SpectraSuite Data File
++++++++++++++++++++++++++++++++++++
Date: Wed May 13 09:14:45 PDT 2015
User: schluterlab
Dark Spectrum Present: Yes
Reference Spectrum Present: No
Number of Sampled Component Spectra: 1
Spectrometers: USB2E3373
Integration Time (usec): 2200000 (USB2E3373)
Spectra Averaged: 3 (USB2E3373)
Boxcar Smoothing: 0 (USB2E3373)
Correct for Electrical Dark: No (USB2E3373)
Strobe/Lamp Enabled: No (USB2E3373)
Correct for Detector Non-linearity: No (USB2E3373)
Correct for Stray Light: No (USB2E3373)
Number of Pixels in Processed Spectrum: 2048
>>>>>Begin Processed Spectral Data<<<<<
178.53	0.0000E00
178.91	0.0000E00
179.29	0.0000E00
179.67	0.0000E00
180.04	0.0000E00
180.42	0.0000E00
180.80	0.0000E00
181.18	0.0000E00
181.56	0.0000E00
181.94	0.0000E00
182.31	0.0000E00
182.69	0.0000E00
183.07	0.0000E00
183.45	0.0000E00
183.83	0.0000E00
184.20	0.0000E00
184.58	0.0000E00
184.96	0.0000E00
185.34	0.0000E00
185.72	0.0000E00
186.09	0.0000E00
186.47	0.0000E00
186.85	0.0000E00
187.23	0.0000E00
187.61	0.0000E00
187.98	0.0000E00
188.36	0.0000E00
188.74	0.0000E00
189.12	0.0000E00
189.49	0.0000E00
189.87	0.0000E00
190.25	0.0000E00
190.63	0.0000E00
191.00	0.0000E00
191.38	0.0000E00
191.76	0.0000E00
192.14	0.0000E00
192.51	0.0000E00
192.89	0.0000E00
193.27	0.0000E00
193.65	0.0000E00
194.02	0.0000E00
194.40	0.0000E00
194.78	0.0000E00
195.15	0.0000E00
195.53	-0.0000E00
195.91	0.0000E00
196.29	0.0000E00
196.66	0.0000E00
197.04	0.0000E00
197.42	0.0000E00
197.79	0.0000E00
198.17	0.0000E00
198.55	0.0000E00
198.92	0.0000E00
199.30	0.0000E00
199.68	0.0000E00
200.05	0.0000E00
200.43	0.0000E00
200.81	0.0000E00
201.18	0.0000E00
201.56	0.0000E00
201.94	0.0000E00
202.31	-0.0000E00
202.69	0.0000E00
203.07	0.0000E00
203.44	0.0000E00
203.82	0.0000E00
204.19	0.0000E00
204.57	0.0000E00
204.95	0.0000E00
205.32	0.0000E00
205.70	0.0000E00
206.08	0.0000E00
206.45	0.0000E00
206.83	0.0000E00
207.20	0.0000E00
207.58	0.0000E00
207.96	0.0000E00
208.33	0.0000E00
208.71	0.0000E00
209.08	0.0000E00
209.46	0.0000E00
209.84	0.0000E00
210.21	0.0000E00
210.59	0.0000E00
210.96	0.0000E00
211.34	0.0000E00
211.71	0.0000E00
212.09	0.0000E00
212.46	0.0000E00
212.84	0.0000E00
213.22	0.0000E00
213.59	0.0000E00
213.97	0.0000E00
214.34	0.0000E00
214.72	0.0000E00
215.09	0.0000E00
215.47	0.0000E00
215.84	0.0000E00
216.22	0.0000E00
216.59	0.0000E00
216.97	0.0000E00
217.34	0.0000E00
217.72	0.0000E00
218.09	0.0000E00
218.47	0.0000E00
218.84	0.0000E00
219.22	0.0000E00
219.59	0.0000E00
219.97	0.0000E00
220.34	0.0000E00
220.72	0.0000E00
221.09	0.0000E00
221.47	0.0000E00
221.84	0.0000E00
222.22	0.0000E00
222.59	0.0000E00
222.97	0.0000E00
223.34	0.0000E00
223.72	0.0000E00
224.09	0.0000E00
224.46	0.0000E00
224.84	0.0000E00
225.21	0.0000E00
225.59	0.0000E00
225.96	0.0000E00
226.34	0.0000E00
226.71	0.0000E00
227.08	0.0000E00
227.46	0.0000E00
227.83	0.0000E00
228.21	0.0000E00
228.58	0.0000E00
228.95	0.0000E00
229.33	0.0000E00
229.70	0.0000E00
230.08	0.0000E00
230.45	0.0000E00
230.82	0.0000E00
231.20	0.0000E00
231.57	0.0000E00
231.95	0.0000E00
232.32	0.0000E00
232.69	0.0000E00
233.07	0.0000E00
233.44	0.0000E00
233.81	0.0000E00
234.19	0.0000E00
234.56	0.0000E00
234.93	0.0000E00
235.31	0.0000E00
235.68	0.0000E00
236.05	0.0000E00
236.43	0.0000E00
236.80	0.0000E00
237.17	0.0000E00
237.55	0.0000E00
237.92	0.0000E00
238.29	0.0000E00
238.67	0.0000E00
239.04	0.0000E00
239.41	0.0000E00
239.79	0.0000E00
240.16	0.0000E00
240.53	0.0000E00
240.91	0.0000E00
241.28	0.0000E00
241.65	0.0000E00
242.02	0.0000E00
242.40	0.0000E00
242.77	0.0000E00
243.14	0.0000E00
243.51	0.0000E00
243.89	0.0000E00
244.26	0.0000E00
244.63	0.0000E00
245.00	0.0000E00
245.38	0.0000E00
245.75	0.0000E00
246.12	0.0000E00
246.49	0.0000E00
246.87	0.0000E00
247.24	0.0000E00
247.61	0.0000E00
247.98	0.0000E00
248.36	0.0000E00
248.73	0.0000E00
249.10	0.0000E00
249.47	0.0000E00
249.84	0.0000E00
250.22	0.0000E00
250.59	0.0000E00
250.96	0.0000E00
251.33	0.0000E00
251.70	0.0000E00
252.08	0.0000E00
252.45	0.0000E00
252.82	0.0000E00
253.19	0.0000E00
253.56	0.0000E00
253.94	0.0000E00
254.31	0.0000E00
254.68	0.0000E00
255.05	0.0000E00
255.42	0.0000E00
255.79	0.0000E00
256.16	0.0000E00
256.54	0.0000E00
256.91	0.0000E00
257.28	0.0000E00
257.65	0.0000E00
258.02	0.0000E00
258.39	0.0000E00
258.76	0.0000E00
259.14	0.0000E00
259.51	0.0000E00
259.88	0.0000E00
260.25	0.0000E00
260.62	0.0000E00
260.99	0.0000E00
261.36	0.0000E00
261.73	0.0000E00
262.10	0.0000E00
262.47	0.0000E00
262.85	0.0000E00
263.22	0.0000E00
263.59	0.0000E00
263.96	0.0000E00
264.33	0.0000E00
264.70	0.0000E00
265.07	0.0000E00
265.44	0.0000E00
265.81	0.0000E00
266.18	0.0000E00
266.55	0.0000E00
266.92	0.0000E00
267.29	0.0000E00
267.66	0.0000E00
268.03	0.0000E00
268.40	0.0000E00
268.77	0.0000E00
269.14	0.0000E00
269.51	0.0000E00
269.88	0.0000E00
270.25	0.0000E00
270.62	0.0000E00
270.99	0.0000E00
271.36	0.0000E00
271.73	0.0000E00
272.10	0.0000E00
272.47	0.0000E00
272.84	0.0000E00
273.21	0.0000E00
273.58	0.0000E00
273.95	0.0000E00
274.32	0.0000E00
274.69	0.0000E00
275.06	0.0000E00
275.43	0.0000E00
275.80	0.0000E00
276.17	0.0000E00
276.54	0.0000E00
276.91	0.0000E00
277.28	0.0000E00
277.65	0.0000E00
278.02	0.0000E00
278.39	0.0000E00
278.76	0.0000E00
279.13	0.0000E00
279.50	0.0000E00
279.87	0.0000E00
280.23	0.0000E00
280.60	0.0000E00
280.97	0.0000E00
281.34	0.0000E00
281.71	0.0000E00
282.08	0.0000E00
282.45	0.0000E00
282.82	0.0000E00
283.19	0.0000E00
283.56	0.0000E00
283.92	0.0000E00
284.29	0.0000E00
284.66	0.0000E00
285.03	0.0000E00
285.40	0.0000E00
285.77	0.0000E00
286.14	0.0000E00
286.51	0.0000E00
286.87	0.0000E00
287.24	0.0000E00
287.61	0.0000E00
287.98	0.0000E00
288.35	0.0000E00
288.72	0.0000E00
289.08	0.0000E00
289.45	0.0000E00
289.82	0.0000E00
290.19	0.0000E00
290.56	0.0000E00
290.93	0.0000E00
291.29	0.0000E00
291.66	0.0000E00
292.03	0.0000E00
292.40	0.0000E00
292.77	0.0000E00
293.13	0.0000E00
293.50	0.0000E00
293.87	0.0000E00
294.24	0.0000E00
294.60	0.0000E00
294.97	0.0000E00
295.34	0.0000E00
295.71	0.0000E00
296.08	0.0000E00
296.44	0.0000E00
296.81	0.0000E00
297.18	0.0000E00
297.55	0.0000E00
297.91	0.0000E00
298.28	0.0000E00
298.65	0.0000E00
299.02	0.0000E00
299.38	0.0000E00
299.75	0.0000E00
300.12	3.4028E-01
300.48	8.7103E-01
300.85	3.6006E-01
301.22	9.8009E-01
301.59	2.9619E-01
301.95	3.5021E-01
302.32	5.3492E-01
302.69	5.6049E-01
303.05	3.4680E-01
303.42	4.8011E-01
303.79	5.6007E-01
304.15	3.5490E-01
304.52	4.2746E-01
304.89	4.1317E-01
305.25	8.3074E-01
305.62	5.4992E-01
305.99	6.7230E-01
306.35	4.1100E-01
306.72	5.7215E-01
307.09	4.8991E-01
307.45	5.2206E-01
307.82	3.8976E-01
308.19	4.9939E-01
308.55	5.9483E-01
308.92	6.9843E-01
309.29	5.8941E-01
309.65	6.9287E-01
310.02	5.4018E-01
310.38	5.9152E-01
310.75	8.2463E-01
311.12	8.3395E-01
311.48	1.4717E00
311.85	9.5360E-01
312.22	6.6846E-01
312.58	1.5768E00
312.95	9.7673E-01
313.31	9.6375E-01
313.68	1.2684E00
314.05	2.1526E00
314.41	1.1930E00
314.78	7.1662E-01
315.14	1.2368E00
315.51	2.5641E00
315.87	1.1072E00
316.24	1.6464E00
316.61	1.5305E00
316.97	1.0168E00
317.34	1.5579E00
317.70	1.2125E00
318.07	1.2193E00
318.43	1.4426E00
318.80	1.0805E00
319.16	1.3510E00
319.53	9.4688E-01
319.89	1.9095E00
320.26	1.4449E00
320.62	1.7489E00
320.99	1.5338E00
321.35	8.8968E-01
321.72	1.1955E00
322.08	1.9032E00
322.45	1.0411E00
322.81	1.2250E00
323.18	3.7032E00
323.54	1.9633E00
323.91	1.5023E00
324.27	2.9121E00
324.64	2.1166E00
325.00	1.5331E00
325.37	2.5734E00
325.73	9.4639E-01
326.10	3.2518E00
326.46	1.5100E00
326.83	1.2323E00
327.19	2.6400E00
327.56	1.0199E00
327.92	1.4783E00
328.29	1.1778E00
328.65	1.5439E00
329.01	1.8297E00
329.38	1.1863E00
329.74	1.0622E00
330.11	1.5533E00
330.47	1.0367E00
330.84	1.4978E00
331.20	1.4967E00
331.56	1.3914E00
331.93	1.5496E00
332.29	1.4368E00
332.66	1.0040E00
333.02	1.2145E00
333.38	1.8176E00
333.75	8.4893E-01
334.11	1.3272E00
334.48	1.3228E00
334.84	1.2395E00
335.20	1.5210E00
335.57	2.8175E00
335.93	1.8754E00
336.29	1.4567E00
336.66	1.4033E00
337.02	9.8167E-01
337.38	1.2261E00
337.75	1.1895E00
338.11	1.0065E00
338.47	1.4045E00
338.84	1.1580E00
339.20	9.6290E-01
339.56	2.8266E00
339.93	8.8213E-01
340.29	1.0501E00
340.65	1.1466E00
341.02	1.9228E00
341.38	1.3106E00
341.74	1.4116E00
342.11	1.3761E00
342.47	1.3862E00
342.83	7.6230E-01
343.20	1.7634E00
343.56	1.0679E00
343.92	1.4850E00
344.28	9.8887E-01
344.65	1.5683E00
345.01	9.2441E-01
345.37	1.4930E00
345.73	1.3302E00
346.10	1.1411E00
346.46	1.3543E00
346.82	1.0337E00
347.19	2.3463E00
347.55	9.6579E-01
347.91	9.7363E-01
348.27	1.0943E00
348.63	9.5187E-01
349.00	9.4045E-01
349.36	1.8945E00
349.72	1.1813E00
350.08	1.7220E00
350.45	9.8472E-01
350.81	9.1724E-01
351.17	1.2075E00
351.53	1.3070E00
351.89	1.0672E00
352.26	1.2246E00
352.62	1.0128E00
352.98	1.1784E00
353.34	1.0399E00
353.70	1.3740E00
354.07	1.0075E00
354.43	9.5613E-01
354.79	1.1232E00
355.15	8.9853E-01
355.51	8.5842E-01
355.87	9.7170E-01
356.24	1.0116E00
356.60	9.7912E-01
356.96	1.0605E00
357.32	9.5357E-01
357.68	8.9579E-01
358.04	8.0855E-01
358.40	8.9246E-01
358.77	8.3076E-01
359.13	9.8273E-01
359.49	1.0448E00
359.85	1.0153E00
360.21	7.6458E-01
360.57	9.3362E-01
360.93	9.2766E-01
361.29	9.8249E-01
361.66	8.1609E-01
362.02	7.5258E-01
362.38	9.8059E-01
362.74	8.5304E-01
363.10	9.0030E-01
363.46	1.0477E00
363.82	8.9580E-01
364.18	1.0728E00
364.54	1.0172E00
364.90	9.6941E-01
365.26	9.5200E-01
365.62	1.0885E00
365.98	9.4903E-01
366.35	7.5910E-01
366.71	9.2002E-01
367.07	1.1784E00
367.43	7.4573E-01
367.79	1.0654E00
368.15	9.7717E-01
368.51	1.1586E00
368.87	1.0134E00
369.23	1.0827E00
369.59	8.5130E-01
369.95	9.2218E-01
370.31	8.7951E-01
370.67	1.0406E00
371.03	8.7804E-01
371.39	8.5855E-01
371.75	8.6740E-01
372.11	8.9390E-01
372.47	8.2292E-01
372.83	8.2996E-01
373.19	6.9308E-01
373.55	9.0829E-01
373.91	9.2622E-01
374.27	9.9985E-01
374.63	9.7583E-01
374.99	8.8575E-01
375.35	8.5184E-01
375.71	8.6851E-01
376.07	8.7586E-01
376.42	8.6667E-01
376.78	7.8525E-01
377.14	8.9039E-01
377.50	9.7307E-01
377.86	8.2774E-01
378.22	7.8103E-01
378.58	7.8130E-01
378.94	7.5793E-01
379.30	7.9586E-01
379.66	7.8443E-01
380.02	7.6741E-01
380.38	7.4573E-01
380.74	7.8167E-01
381.09	8.1996E-01
381.45	7.5611E-01
381.81	7.3121E-01
382.17	7.7051E-01
382.53	8.0175E-01
382.89	7.1822E-01
383.25	7.5502E-01
383.61	7.4623E-01
383.97	7.2452E-01
384.32	7.2232E-01
384.68	6.9005E-01
385.04	7.6605E-01
385.40	7.8882E-01
385.76	7.8551E-01
386.12	7.3916E-01
386.48	7.5118E-01
386.83	7.0073E-01
387.19	6.9938E-01
387.55	7.8178E-01
387.91	7.5502E-01
388.27	7.0685E-01
388.62	7.9436E-01
388.98	7.2002E-01
389.34	7.9874E-01
389.70	7.2520E-01
390.06	7.4784E-01
390.42	7.5533E-01
390.77	7.3604E-01
391.13	7.5087E-01
391.49	7.3754E-01
391.85	7.7763E-01
392.20	6.8679E-01
392.56	6.9653E-01
392.92	7.0646E-01
393.28	7.0911E-01
393.64	7.4065E-01
393.99	7.5476E-01
394.35	7.4206E-01
394.71	7.3368E-01
395.07	7.1845E-01
395.42	7.2149E-01
395.78	7.3429E-01
396.14	6.6320E-01
396.50	6.6575E-01
396.85	7.3161E-01
397.21	7.0449E-01
397.57	7.2425E-01
397.92	6.7768E-01
398.28	6.5537E-01
398.64	7.7875E-01
399.00	6.2748E-01
399.35	6.5311E-01
399.71	7.0024E-01
400.07	6.8395E-01
400.42	6.6802E-01
400.78	6.8450E-01
401.14	6.8755E-01
401.49	6.3722E-01
401.85	6.3336E-01
402.21	6.4289E-01
402.57	6.3924E-01
402.92	6.7401E-01
403.28	6.4129E-01
403.63	6.3792E-01
403.99	6.5209E-01
404.35	6.3372E-01
404.70	6.2210E-01
405.06	6.3170E-01
405.42	6.4633E-01
405.77	6.0094E-01
406.13	6.0065E-01
406.49	5.9617E-01
406.84	6.0276E-01
407.20	5.8828E-01
407.55	6.3513E-01
407.91	6.4728E-01
408.27	6.0608E-01
408.62	6.0939E-01
408.98	6.1700E-01
409.34	6.2765E-01
409.69	6.0007E-01
410.05	6.3312E-01
410.40	6.0422E-01
410.76	5.5887E-01
411.11	5.6414E-01
411.47	6.1164E-01
411.83	5.7982E-01
412.18	5.9013E-01
412.54	5.7877E-01
412.89	5.7514E-01
413.25	5.9645E-01
413.60	6.2263E-01
413.96	5.8425E-01
414.31	5.8782E-01
414.67	6.2075E-01
415.03	6.0860E-01
415.38	6.2310E-01
415.74	6.1580E-01
416.09	6.1163E-01
416.45	6.1930E-01
416.80	6.0838E-01
417.16	6.0276E-01
417.51	5.9927E-01
417.87	5.7672E-01
418.22	5.7057E-01
418.58	5.8260E-01
418.93	5.5799E-01
419.29	5.9778E-01
419.64	5.8046E-01
420.00	5.4887E-01
420.35	5.3866E-01
420.71	5.6543E-01
421.06	5.6792E-01
421.42	5.8220E-01
421.77	5.7385E-01
422.12	5.7204E-01
422.48	5.4221E-01
422.83	5.7917E-01
423.19	5.4813E-01
423.54	5.4799E-01
423.90	5.5481E-01
424.25	5.2403E-01
424.61	5.7779E-01
424.96	5.4066E-01
425.31	5.3731E-01
425.67	5.1506E-01
426.02	5.3772E-01
426.38	5.3738E-01
426.73	5.0935E-01
427.09	5.3286E-01
427.44	5.1080E-01
427.79	5.1641E-01
428.15	5.3270E-01
428.50	5.2898E-01
428.85	5.4159E-01
429.21	5.0003E-01
429.56	4.8901E-01
429.92	4.9892E-01
430.27	5.1535E-01
430.62	5.1492E-01
430.98	5.2113E-01
431.33	5.0938E-01
431.68	4.9242E-01
432.04	4.8892E-01
432.39	4.9572E-01
432.74	5.1329E-01
433.10	4.8153E-01
433.45	5.0977E-01
433.80	5.0726E-01
434.16	5.1828E-01
434.51	4.9321E-01
434.86	5.1370E-01
435.22	4.9536E-01
435.57	5.2911E-01
435.92	5.1823E-01
436.28	5.1588E-01
436.63	4.7897E-01
436.98	5.1242E-01
437.34	5.0851E-01
437.69	4.8327E-01
438.04	4.7048E-01
438.39	5.0332E-01
438.75	5.1516E-01
439.10	4.6499E-01
439.45	5.0533E-01
439.81	4.9973E-01
440.16	4.7014E-01
440.51	4.9083E-01
440.86	4.8926E-01
441.22	4.7833E-01
441.57	4.8296E-01
441.92	4.6914E-01
442.27	4.9204E-01
442.63	4.8161E-01
442.98	5.1432E-01
443.33	5.0348E-01
443.68	4.6807E-01
444.03	4.4182E-01
444.39	4.4423E-01
444.74	4.8192E-01
445.09	4.8897E-01
445.44	4.8973E-01
445.79	4.3274E-01
446.15	4.6517E-01
446.50	4.8067E-01
446.85	4.5184E-01
447.20	4.3943E-01
447.55	4.7519E-01
447.91	4.5699E-01
448.26	4.6893E-01
448.61	4.6475E-01
448.96	4.5520E-01
449.31	4.6244E-01
449.66	4.6664E-01
450.02	4.5899E-01
450.37	4.5933E-01
450.72	4.5361E-01
451.07	4.8893E-01
451.42	4.8615E-01
451.77	4.5908E-01
452.12	4.5886E-01
452.47	4.8006E-01
452.83	4.4144E-01
453.18	4.6683E-01
453.53	4.6175E-01
453.88	4.3477E-01
454.23	4.2908E-01
454.58	4.2950E-01
454.93	4.6058E-01
455.28	4.5755E-01
455.63	4.4420E-01
455.98	4.3465E-01
456.34	4.5791E-01
456.69	4.4369E-01
457.04	4.4714E-01
457.39	4.1961E-01
457.74	4.2853E-01
458.09	4.1734E-01
458.44	4.1661E-01
458.79	4.0753E-01
459.14	4.2140E-01
459.49	4.3858E-01
459.84	4.1394E-01
460.19	4.4032E-01
460.54	4.3755E-01
460.89	4.0336E-01
461.24	4.4140E-01
461.59	4.2264E-01
461.94	4.2813E-01
462.29	4.0010E-01
462.64	4.2320E-01
462.99	4.2773E-01
463.34	4.5189E-01
463.69	4.2360E-01
464.04	3.9522E-01
464.39	4.1082E-01
464.74	4.1643E-01
465.09	4.2748E-01
465.44	4.0254E-01
465.79	4.1514E-01
466.14	4.1713E-01
466.49	4.1024E-01
466.84	4.0643E-01
467.19	4.2054E-01
467.54	4.2212E-01
467.89	4.0177E-01
468.24	3.8082E-01
468.59	3.9327E-01
468.94	3.8533E-01
469.29	3.8708E-01
469.64	4.0032E-01
469.99	3.8558E-01
470.34	3.7357E-01
470.68	3.9760E-01
471.03	3.8354E-01
471.38	3.8480E-01
471.73	3.6664E-01
472.08	3.6180E-01
472.43	3.4923E-01
472.78	3.6901E-01
473.13	3.6435E-01
473.48	3.5866E-01
473.83	3.5173E-01
474.17	3.5698E-01
474.52	3.5309E-01
474.87	3.3883E-01
475.22	3.4614E-01
475.57	3.2904E-01
475.92	3.2083E-01
476.27	3.3060E-01
476.61	3.2185E-01
476.96	3.1351E-01
477.31	3.0353E-01
477.66	3.0954E-01
478.01	3.0780E-01
478.36	3.0596E-01
478.70	3.0146E-01
479.05	3.0619E-01
479.40	2.9223E-01
479.75	2.8889E-01
480.10	2.9108E-01
480.45	2.8413E-01
480.79	2.8289E-01
481.14	2.8688E-01
481.49	2.8011E-01
481.84	2.7500E-01
482.19	2.7278E-01
482.53	2.7227E-01
482.88	2.6999E-01
483.23	2.6553E-01
483.58	2.6003E-01
483.92	2.6649E-01
484.27	2.5815E-01
484.62	2.5662E-01
484.97	2.5106E-01
485.31	2.4982E-01
485.66	2.5507E-01
486.01	2.5494E-01
486.36	2.4285E-01
486.70	2.4947E-01
487.05	2.4804E-01
487.40	2.4823E-01
487.75	2.4085E-01
488.09	2.4138E-01
488.44	2.4331E-01
488.79	2.3945E-01
489.13	2.3706E-01
489.48	2.3998E-01
489.83	2.4042E-01
490.17	2.3405E-01
490.52	2.3414E-01
490.87	2.3495E-01
491.22	2.3833E-01
491.56	2.3494E-01
491.91	2.3818E-01
492.26	2.3519E-01
492.60	2.3534E-01
492.95	2.3712E-01
493.30	2.3685E-01
493.64	2.3402E-01
493.99	2.3529E-01
494.34	2.3240E-01
494.68	2.3004E-01
495.03	2.3571E-01
495.37	2.3348E-01
495.72	2.3596E-01
496.07	2.3055E-01
496.41	2.3209E-01
496.76	2.3086E-01
497.11	2.3297E-01
497.45	2.3200E-01
497.80	2.3241E-01
498.14	2.3224E-01
498.49	2.3248E-01
498.84	2.3325E-01
499.18	2.3282E-01
499.53	2.3253E-01
499.87	2.3048E-01
500.22	2.3334E-01
500.56	2.3261E-01
500.91	2.3237E-01
501.26	2.3198E-01
501.60	2.3162E-01
501.95	2.2977E-01
502.29	2.3285E-01
502.64	2.2854E-01
502.98	2.3232E-01
503.33	2.3020E-01
503.67	2.3098E-01
504.02	2.3033E-01
504.36	2.2966E-01
504.71	2.3045E-01
505.06	2.2840E-01
505.40	2.2839E-01
505.75	2.2975E-01
506.09	2.3000E-01
506.44	2.2971E-01
506.78	2.2764E-01
507.13	2.2866E-01
507.47	2.2709E-01
507.82	2.2691E-01
508.16	2.2918E-01
508.51	2.2712E-01
508.85	2.2430E-01
509.19	2.2722E-01
509.54	2.2668E-01
509.88	2.2682E-01
510.23	2.2371E-01
510.57	2.2469E-01
510.92	2.2404E-01
511.26	2.2410E-01
511.61	2.2412E-01
511.95	2.2443E-01
512.30	2.2307E-01
512.64	2.2450E-01
512.98	2.2082E-01
513.33	2.2249E-01
513.67	2.2308E-01
514.02	2.2222E-01
514.36	2.2018E-01
514.70	2.2154E-01
515.05	2.1902E-01
515.39	2.2077E-01
515.74	2.1865E-01
516.08	2.1751E-01
516.42	2.1947E-01
516.77	2.1982E-01
517.11	2.2005E-01
517.46	2.2138E-01
517.80	2.1802E-01
518.14	2.1940E-01
518.49	2.1739E-01
518.83	2.1824E-01
519.17	2.1821E-01
519.52	2.1854E-01
519.86	2.1752E-01
520.20	2.1663E-01
520.55	2.1743E-01
520.89	2.1582E-01
521.23	2.1832E-01
521.58	2.1766E-01
521.92	2.1929E-01
522.26	2.2043E-01
522.61	2.1685E-01
522.95	2.1872E-01
523.29	2.1551E-01
523.64	2.1576E-01
523.98	2.1671E-01
524.32	2.1738E-01
524.66	2.1932E-01
525.01	2.1926E-01
525.35	2.2013E-01
525.69	2.2081E-01
526.04	2.2000E-01
526.38	2.1669E-01
526.72	2.2110E-01
527.06	2.1989E-01
527.41	2.2165E-01
527.75	2.2340E-01
528.09	2.2187E-01
528.43	2.2531E-01
528.78	2.2272E-01
529.12	2.2485E-01
529.46	2.2656E-01
529.80	2.2596E-01
530.15	2.2661E-01
530.49	2.2631E-01
530.83	2.2756E-01
531.17	2.2753E-01
531.51	2.2676E-01
531.86	2.2888E-01
532.20	2.2977E-01
532.54	2.2932E-01
532.88	2.3115E-01
533.22	2.3301E-01
533.57	2.3408E-01
533.91	2.3355E-01
534.25	2.3537E-01
534.59	2.3409E-01
534.93	2.3624E-01
535.27	2.3528E-01
535.62	2.3958E-01
535.96	2.3859E-01
536.30	2.3910E-01
536.64	2.3941E-01
536.98	2.4171E-01
537.32	2.4073E-01
537.66	2.4074E-01
538.01	2.4336E-01
538.35	2.4524E-01
538.69	2.4216E-01
539.03	2.4819E-01
539.37	2.4552E-01
539.71	2.4748E-01
540.05	2.4818E-01
540.39	2.4892E-01
540.73	2.4773E-01
541.07	2.4846E-01
541.42	2.4906E-01
541.76	2.4937E-01
542.10	2.5053E-01
542.44	2.5145E-01
542.78	2.5175E-01
543.12	2.5118E-01
543.46	2.5660E-01
543.80	2.5347E-01
544.14	2.5353E-01
544.48	2.5230E-01
544.82	2.5516E-01
545.16	2.5461E-01
545.50	2.5376E-01
545.84	2.5655E-01
546.18	2.5486E-01
546.52	2.5777E-01
546.86	2.5553E-01
547.20	2.5915E-01
547.54	2.6201E-01
547.88	2.5739E-01
548.22	2.5795E-01
548.56	2.5950E-01
548.90	2.5761E-01
549.24	2.5993E-01
549.58	2.6059E-01
549.92	2.5885E-01
550.26	2.6330E-01
550.60	2.5956E-01
550.94	2.5826E-01
551.28	2.6199E-01
551.62	2.6000E-01
551.96	2.6230E-01
552.30	2.6348E-01
552.64	2.6282E-01
552.98	2.6246E-01
553.32	2.6324E-01
553.66	2.6185E-01
554.00	2.6249E-01
554.34	2.6305E-01
554.68	2.6415E-01
555.02	2.6451E-01
555.36	2.6576E-01
555.69	2.6443E-01
556.03	2.6413E-01
556.37	2.6547E-01
556.71	2.6313E-01
557.05	2.6278E-01
557.39	2.6324E-01
557.73	2.6387E-01
558.07	2.6572E-01
558.41	2.6452E-01
558.75	2.6487E-01
559.08	2.6517E-01
559.42	2.6287E-01
559.76	2.6679E-01
560.10	2.6645E-01
560.44	2.6625E-01
560.78	2.6380E-01
561.12	2.6549E-01
561.45	2.6505E-01
561.79	2.6606E-01
562.13	2.6622E-01
562.47	2.6629E-01
562.81	2.6663E-01
563.15	2.6665E-01
563.48	2.6693E-01
563.82	2.6364E-01
564.16	2.6599E-01
564.50	2.6631E-01
564.84	2.6699E-01
565.17	2.6715E-01
565.51	2.6644E-01
565.85	2.6848E-01
566.19	2.6531E-01
566.52	2.6896E-01
566.86	2.6581E-01
567.20	2.6853E-01
567.54	2.6749E-01
567.88	2.6800E-01
568.21	2.6793E-01
568.55	2.6952E-01
568.89	2.6934E-01
569.23	2.6935E-01
569.56	2.6858E-01
569.90	2.6962E-01
570.24	2.7171E-01
570.57	2.7153E-01
570.91	2.7201E-01
571.25	2.6815E-01
571.59	2.7141E-01
571.92	2.7118E-01
572.26	2.7212E-01
572.60	2.7446E-01
572.93	2.7325E-01
573.27	2.7584E-01
573.61	2.7649E-01
573.95	2.7190E-01
574.28	2.7632E-01
574.62	2.7675E-01
574.96	2.7696E-01
575.29	2.7624E-01
575.63	2.8064E-01
575.97	2.7982E-01
576.30	2.8608E-01
576.64	2.8263E-01
576.98	2.8215E-01
577.31	2.8367E-01
577.65	2.8676E-01
577.98	2.8451E-01
578.32	2.8695E-01
578.66	2.8848E-01
578.99	2.8899E-01
579.33	2.9002E-01
579.67	2.8812E-01
580.00	2.9194E-01
580.34	2.9131E-01
580.67	2.9288E-01
581.01	2.9528E-01
581.35	2.9638E-01
581.68	2.9743E-01
582.02	2.9639E-01
582.35	2.9866E-01
582.69	2.9857E-01
583.02	3.0324E-01
583.36	3.0025E-01
583.70	2.9962E-01
584.03	3.0187E-01
584.37	3.0032E-01
584.70	3.0642E-01
585.04	3.0629E-01
585.37	3.0475E-01
585.71	3.0933E-01
586.04	3.0849E-01
586.38	3.0621E-01
586.72	3.1020E-01
587.05	3.1172E-01
587.39	3.1314E-01
587.72	3.1109E-01
588.06	3.1398E-01
588.39	3.1362E-01
588.73	3.1662E-01
589.06	3.1445E-01
589.40	3.1911E-01
589.73	3.2081E-01
590.07	3.2158E-01
590.40	3.2194E-01
590.73	3.2573E-01
591.07	3.2206E-01
591.40	3.2905E-01
591.74	3.2181E-01
592.07	3.2647E-01
592.41	3.2769E-01
592.74	3.2863E-01
593.08	3.2665E-01
593.41	3.2895E-01
593.75	3.2670E-01
594.08	3.3129E-01
594.41	3.3028E-01
594.75	3.3134E-01
595.08	3.3103E-01
595.42	3.2706E-01
595.75	3.3242E-01
596.09	3.3244E-01
596.42	3.3074E-01
596.75	3.3489E-01
597.09	3.3647E-01
597.42	3.3328E-01
597.75	3.3728E-01
598.09	3.3836E-01
598.42	3.3539E-01
598.76	3.3744E-01
599.09	3.4200E-01
599.42	3.4181E-01
599.76	3.4013E-01
600.09	3.3905E-01
600.42	3.4442E-01
600.76	3.3727E-01
601.09	3.4169E-01
601.42	3.4504E-01
601.76	3.4113E-01
602.09	3.4074E-01
602.42	3.4243E-01
602.76	3.4150E-01
603.09	3.4049E-01
603.42	3.4654E-01
603.76	3.4309E-01
604.09	3.4293E-01
604.42	3.4557E-01
604.76	3.4262E-01
605.09	3.4812E-01
605.42	3.4461E-01
605.75	3.4634E-01
606.09	3.4475E-01
606.42	3.4577E-01
606.75	3.4729E-01
607.09	3.4787E-01
607.42	3.4814E-01
607.75	3.4858E-01
608.08	3.4805E-01
608.42	3.5071E-01
608.75	3.4686E-01
609.08	3.5134E-01
609.41	3.5054E-01
609.75	3.4840E-01
610.08	3.5037E-01
610.41	3.5258E-01
610.74	3.5155E-01
611.07	3.5195E-01
611.41	3.5119E-01
611.74	3.5240E-01
612.07	3.5418E-01
612.40	3.4952E-01
612.73	3.5291E-01
613.07	3.5493E-01
613.40	3.5090E-01
613.73	3.4977E-01
614.06	3.5296E-01
614.39	3.5397E-01
614.72	3.5520E-01
615.06	3.5487E-01
615.39	3.5952E-01
615.72	3.5362E-01
616.05	3.5734E-01
616.38	3.5792E-01
616.71	3.5850E-01
617.05	3.5650E-01
617.38	3.5858E-01
617.71	3.5654E-01
618.04	3.5804E-01
618.37	3.5600E-01
618.70	3.5757E-01
619.03	3.5852E-01
619.36	3.5322E-01
619.69	3.6058E-01
620.03	3.5653E-01
620.36	3.5734E-01
620.69	3.5530E-01
621.02	3.5875E-01
621.35	3.5776E-01
621.68	3.5446E-01
622.01	3.5354E-01
622.34	3.5544E-01
622.67	3.5473E-01
623.00	3.5581E-01
623.33	3.5650E-01
623.66	3.5383E-01
623.99	3.5487E-01
624.32	3.5423E-01
624.65	3.5493E-01
624.99	3.5486E-01
625.32	3.5625E-01
625.65	3.5557E-01
625.98	3.5040E-01
626.31	3.5501E-01
626.64	3.5564E-01
626.97	3.5620E-01
627.30	3.5318E-01
627.63	3.5523E-01
627.96	3.5203E-01
628.29	3.5207E-01
628.62	3.5524E-01
628.95	3.5535E-01
629.28	3.4946E-01
629.61	3.6070E-01
629.94	3.5537E-01
630.26	3.5610E-01
630.59	3.5817E-01
630.92	3.5595E-01
631.25	3.5787E-01
631.58	3.6148E-01
631.91	3.5678E-01
632.24	3.6425E-01
632.57	3.6053E-01
632.90	3.6129E-01
633.23	3.6149E-01
633.56	3.6358E-01
633.89	3.6417E-01
634.22	3.6561E-01
634.55	3.6664E-01
634.88	3.7036E-01
635.20	3.6999E-01
635.53	3.7241E-01
635.86	3.7252E-01
636.19	3.7694E-01
636.52	3.7834E-01
636.85	3.7508E-01
637.18	3.7961E-01
637.51	3.7640E-01
637.83	3.8021E-01
638.16	3.7711E-01
638.49	3.8806E-01
638.82	3.8636E-01
639.15	3.8939E-01
639.48	3.9231E-01
639.81	3.9427E-01
640.13	3.9077E-01
640.46	3.9640E-01
640.79	3.9654E-01
641.12	4.0006E-01
641.45	3.9951E-01
641.77	3.9704E-01
642.10	4.0611E-01
642.43	4.0699E-01
642.76	4.0891E-01
643.09	4.0672E-01
643.41	4.0970E-01
643.74	4.1020E-01
644.07	4.1001E-01
644.40	4.1330E-01
644.73	4.1799E-01
645.05	4.1941E-01
645.38	4.2242E-01
645.71	4.2358E-01
646.04	4.2400E-01
646.36	4.2283E-01
646.69	4.2944E-01
647.02	4.2964E-01
647.35	4.2712E-01
647.67	4.3261E-01
648.00	4.3098E-01
648.33	4.3642E-01
648.66	4.3445E-01
648.98	4.4054E-01
649.31	4.3900E-01
649.64	4.4063E-01
649.96	4.4528E-01
650.29	4.4751E-01
650.62	4.4772E-01
650.94	4.4726E-01
651.27	4.4686E-01
651.60	4.4792E-01
651.92	4.5595E-01
652.25	4.5675E-01
652.58	4.5610E-01
652.90	4.5814E-01
653.23	4.5799E-01
653.56	4.5958E-01
653.88	4.6119E-01
654.21	4.6174E-01
654.54	4.6359E-01
654.86	4.6990E-01
655.19	4.6363E-01
655.52	4.7132E-01
655.84	4.7004E-01
656.17	4.7251E-01
656.49	4.7819E-01
656.82	4.7250E-01
657.15	4.7766E-01
657.47	4.7787E-01
657.80	4.7840E-01
658.13	4.7961E-01
658.45	4.8250E-01
658.78	4.8135E-01
659.10	4.8770E-01
659.43	4.8689E-01
659.75	4.8598E-01
660.08	4.8376E-01
660.41	4.9007E-01
660.73	4.9099E-01
661.06	4.9456E-01
661.38	4.9256E-01
661.71	4.9411E-01
662.03	4.9491E-01
662.36	5.0087E-01
662.68	4.9993E-01
663.01	4.9365E-01
663.33	4.9819E-01
663.66	5.0188E-01
663.98	4.9906E-01
664.31	4.9944E-01
664.63	5.0965E-01
664.96	5.0638E-01
665.28	5.0999E-01
665.61	5.0873E-01
665.93	5.0993E-01
666.26	5.1257E-01
666.58	5.1281E-01
666.91	5.0977E-01
667.23	5.1571E-01
667.56	5.0895E-01
667.88	5.1744E-01
668.21	5.1705E-01
668.53	5.1489E-01
668.86	5.2468E-01
669.18	5.1690E-01
669.50	5.2833E-01
669.83	5.2739E-01
670.15	5.2837E-01
670.48	5.2742E-01
670.80	5.2544E-01
671.13	5.2308E-01
671.45	5.2939E-01
671.77	5.3225E-01
672.10	5.2828E-01
672.42	5.3608E-01
672.75	5.3293E-01
673.07	5.3743E-01
673.39	5.3217E-01
673.72	5.3598E-01
674.04	5.3998E-01
674.37	5.4400E-01
674.69	5.4017E-01
675.01	5.4466E-01
675.34	5.4607E-01
675.66	5.4712E-01
675.98	5.4182E-01
676.31	5.5060E-01
676.63	5.5215E-01
676.95	5.4927E-01
677.28	5.5309E-01
677.60	5.5362E-01
677.92	5.5149E-01
678.25	5.5777E-01
678.57	5.5800E-01
678.89	5.5673E-01
679.22	5.6571E-01
679.54	5.6313E-01
679.86	5.6303E-01
680.18	5.6488E-01
680.51	5.6679E-01
680.83	5.7188E-01
681.15	5.6613E-01
681.48	5.7006E-01
681.80	5.7379E-01
682.12	5.7063E-01
682.44	5.8024E-01
682.77	5.8006E-01
683.09	5.8370E-01
683.41	5.8067E-01
683.73	5.8673E-01
684.06	5.8554E-01
684.38	5.8791E-01
684.70	5.8546E-01
685.02	5.9213E-01
685.34	5.9788E-01
685.67	5.9268E-01
685.99	6.0054E-01
686.31	5.9563E-01
686.63	6.0616E-01
686.96	6.0239E-01
687.28	6.0971E-01
687.60	6.0135E-01
687.92	6.0815E-01
688.24	6.1436E-01
688.56	6.1559E-01
688.89	6.1714E-01
689.21	6.1445E-01
689.53	6.1729E-01
689.85	6.2673E-01
690.17	6.2223E-01
690.49	6.3224E-01
690.82	6.3185E-01
691.14	6.3176E-01
691.46	6.3524E-01
691.78	6.3919E-01
692.10	6.3251E-01
692.42	6.3945E-01
692.74	6.4452E-01
693.06	6.4547E-01
693.39	6.5682E-01
693.71	6.5765E-01
694.03	6.5792E-01
694.35	6.6023E-01
694.67	6.6155E-01
694.99	6.6816E-01
695.31	6.7036E-01
695.63	6.6980E-01
695.95	6.7522E-01
696.27	6.7343E-01
696.59	6.7916E-01
696.91	6.8826E-01
697.23	6.8785E-01
697.56	6.8558E-01
697.88	6.9349E-01
698.20	6.9209E-01
698.52	6.9943E-01
698.84	7.0514E-01
699.16	7.1007E-01
699.48	7.0265E-01
699.80	7.1214E-01
700.12	7.1831E-01
700.44	7.1984E-01
700.76	7.2110E-01
701.08	7.2592E-01
701.40	7.2895E-01
701.72	7.3675E-01
702.04	7.3624E-01
702.36	7.4293E-01
702.68	7.4561E-01
703.00	7.5114E-01
703.32	7.5485E-01
703.64	7.5564E-01
703.96	7.4826E-01
704.28	7.5969E-01
704.60	7.6892E-01
704.91	7.7079E-01
705.23	7.7217E-01
705.55	7.8044E-01
705.87	7.7528E-01
706.19	7.7769E-01
706.51	7.8303E-01
706.83	7.8680E-01
707.15	8.0786E-01
707.47	7.9039E-01
707.79	8.0558E-01
708.11	8.0719E-01
708.43	8.1017E-01
708.74	8.1770E-01
709.06	8.2893E-01
709.38	8.2411E-01
709.70	8.1908E-01
710.02	8.3013E-01
710.34	8.2759E-01
710.66	8.4854E-01
710.98	8.4365E-01
711.29	8.4288E-01
711.61	8.5861E-01
711.93	8.6336E-01
712.25	8.5511E-01
712.57	8.6740E-01
712.89	8.7089E-01
713.20	8.7159E-01
713.52	8.8070E-01
713.84	8.8941E-01
714.16	8.8105E-01
714.48	8.8327E-01
714.80	8.9860E-01
715.11	8.9657E-01
715.43	9.0854E-01
715.75	9.1430E-01
716.07	9.2411E-01
716.39	9.0730E-01
716.70	9.1845E-01
717.02	9.1397E-01
717.34	9.4082E-01
717.66	9.3127E-01
717.97	9.4265E-01
718.29	9.4826E-01
718.61	9.5969E-01
718.93	9.5885E-01
719.24	9.6323E-01
719.56	9.8379E-01
719.88	9.7493E-01
720.20	9.8747E-01
720.51	9.9900E-01
720.83	9.9613E-01
721.15	1.0156E00
721.46	1.0125E00
721.78	1.0188E00
722.10	1.0324E00
722.42	1.0438E00
722.73	1.0490E00
723.05	1.0366E00
723.37	1.0509E00
723.68	1.0616E00
724.00	1.0616E00
724.32	1.0809E00
724.63	1.0777E00
724.95	1.0722E00
725.27	1.0823E00
725.58	1.0892E00
725.90	1.0900E00
726.22	1.1079E00
726.53	1.0834E00
726.85	1.0997E00
727.16	1.1223E00
727.48	1.1024E00
727.80	1.1151E00
728.11	1.1202E00
728.43	1.1162E00
728.74	1.1122E00
729.06	1.1340E00
729.38	1.1289E00
729.69	1.1338E00
730.01	1.1416E00
730.32	1.1494E00
730.64	1.1496E00
730.96	1.1370E00
731.27	1.1690E00
731.59	1.1410E00
731.90	1.1548E00
732.22	1.1657E00
732.53	1.1638E00
732.85	1.1779E00
733.16	1.1730E00
733.48	1.1802E00
733.80	1.1744E00
734.11	1.1956E00
734.43	1.1949E00
734.74	1.1922E00
735.06	1.2076E00
735.37	1.2169E00
735.69	1.2014E00
736.00	1.2161E00
736.32	1.2186E00
736.63	1.2261E00
736.95	1.2239E00
737.26	1.2457E00
737.58	1.2454E00
737.89	1.2548E00
738.21	1.2421E00
738.52	1.2503E00
738.83	1.2532E00
739.15	1.2526E00
739.46	1.2715E00
739.78	1.2671E00
740.09	1.2828E00
740.41	1.2762E00
740.72	1.2709E00
741.04	1.2713E00
741.35	1.2735E00
741.66	1.2944E00
741.98	1.2878E00
742.29	1.2941E00
742.61	1.2878E00
742.92	1.2934E00
743.23	1.2937E00
743.55	1.3013E00
743.86	1.2904E00
744.18	1.2993E00
744.49	1.3005E00
744.80	1.2981E00
745.12	1.2998E00
745.43	1.3053E00
745.74	1.3044E00
746.06	1.2946E00
746.37	1.2924E00
746.68	1.3038E00
747.00	1.3018E00
747.31	1.2908E00
747.62	1.2810E00
747.94	1.3032E00
748.25	1.3039E00
748.56	1.3045E00
748.88	1.2858E00
749.19	1.2967E00
749.50	1.3014E00
749.82	1.2917E00
750.13	1.3002E00
750.44	1.3013E00
750.75	1.2849E00
751.07	1.3034E00
751.38	1.3111E00
751.69	1.2861E00
752.01	1.3043E00
752.32	1.3012E00
752.63	1.3032E00
752.94	1.3124E00
753.26	1.3186E00
753.57	1.3041E00
753.88	1.3131E00
754.19	1.3139E00
754.51	1.3166E00
754.82	1.3138E00
755.13	1.3283E00
755.44	1.3260E00
755.75	1.3296E00
756.07	1.3303E00
756.38	1.3454E00
756.69	1.3423E00
757.00	1.3497E00
757.31	1.3674E00
757.63	1.3749E00
757.94	1.3776E00
758.25	1.3918E00
758.56	1.3571E00
758.87	1.4052E00
759.18	1.4079E00
759.50	1.4061E00
759.81	1.4005E00
760.12	1.4098E00
760.43	1.4208E00
760.74	1.4168E00
761.05	1.4438E00
761.36	1.4477E00
761.67	1.4581E00
761.99	1.4687E00
762.30	1.4472E00
762.61	1.4823E00
762.92	1.4794E00
763.23	1.4804E00
763.54	1.4961E00
763.85	1.5206E00
764.16	1.5223E00
764.47	1.5430E00
764.78	1.5534E00
765.10	1.5537E00
765.41	1.5558E00
765.72	1.5647E00
766.03	1.6020E00
766.34	1.6123E00
766.65	1.6235E00
766.96	1.6558E00
767.27	1.6425E00
767.58	1.6442E00
767.89	1.6635E00
768.20	1.6889E00
768.51	1.6895E00
768.82	1.6929E00
769.13	1.7258E00
769.44	1.7488E00
769.75	1.7444E00
770.06	1.7495E00
770.37	1.7468E00
770.68	1.7870E00
770.99	1.8013E00
771.30	1.8121E00
771.61	1.8680E00
771.92	1.8267E00
772.23	1.8514E00
772.54	1.8916E00
772.85	1.8733E00
773.16	1.8927E00
773.47	1.9474E00
773.78	1.9353E00
774.09	1.9659E00
774.39	1.9691E00
774.70	1.9738E00
775.01	2.0152E00
775.32	2.0241E00
775.63	2.0458E00
775.94	2.0675E00
776.25	2.0551E00
776.56	2.0752E00
776.87	2.1291E00
777.18	2.1240E00
777.48	2.1436E00
777.79	2.1637E00
778.10	2.1833E00
778.41	2.1999E00
778.72	2.2253E00
779.03	2.2361E00
779.34	2.2833E00
779.65	2.2846E00
779.95	2.3281E00
780.26	2.3091E00
780.57	2.3472E00
780.88	2.3395E00
781.19	2.3835E00
781.50	2.3874E00
781.80	2.4081E00
782.11	2.4138E00
782.42	2.4706E00
782.73	2.4236E00
783.04	2.5197E00
783.34	2.5196E00
783.65	2.5410E00
783.96	2.5488E00
784.27	2.5621E00
784.57	2.5843E00
784.88	2.6127E00
785.19	2.6262E00
785.50	2.6557E00
785.81	2.6893E00
786.11	2.6517E00
786.42	2.6837E00
786.73	2.7114E00
787.04	2.7461E00
787.34	2.7929E00
787.65	2.8066E00
787.96	2.8711E00
788.26	2.8482E00
788.57	2.9070E00
788.88	2.8715E00
789.19	2.9632E00
789.49	2.9349E00
789.80	2.9894E00
790.11	2.9968E00
790.41	3.0288E00
790.72	3.0567E00
791.03	3.0716E00
791.33	3.1020E00
791.64	3.1732E00
791.95	3.1158E00
792.25	3.2144E00
792.56	3.1857E00
792.87	3.2359E00
793.17	3.2526E00
793.48	3.2697E00
793.79	3.3015E00
794.09	3.3641E00
794.40	3.3136E00
794.70	3.3276E00
795.01	3.3387E00
795.32	3.3864E00
795.62	3.4540E00
795.93	3.4589E00
796.23	3.4660E00
796.54	3.5145E00
796.85	3.5022E00
797.15	3.5467E00
797.46	3.5777E00
797.76	3.6669E00
798.07	3.6497E00
798.37	3.6592E00
798.68	3.7129E00
798.99	3.7134E00
799.29	3.7548E00
799.60	3.8165E00
799.90	3.8183E00
800.21	3.8721E00
800.51	3.9021E00
800.82	3.8948E00
801.12	3.9678E00
801.43	3.9550E00
801.73	4.0399E00
802.04	4.0274E00
802.34	4.0284E00
802.65	4.0738E00
802.95	4.2098E00
803.26	4.1795E00
803.56	4.1063E00
803.87	4.1758E00
804.17	4.2038E00
804.48	4.1965E00
804.78	4.2776E00
805.09	4.3496E00
805.39	4.3239E00
805.70	4.3494E00
806.00	4.4095E00
806.30	4.4066E00
806.61	4.4723E00
806.91	4.5033E00
807.22	4.5445E00
807.52	4.5695E00
807.83	4.5869E00
808.13	4.6420E00
808.43	4.5500E00
808.74	4.6809E00
809.04	4.7190E00
809.35	4.6908E00
809.65	4.8029E00
809.95	4.8319E00
810.26	4.8863E00
810.56	4.9072E00
810.86	4.9722E00
811.17	5.0114E00
811.47	5.0035E00
811.77	5.0053E00
812.08	4.9993E00
812.38	5.1524E00
812.69	5.0477E00
812.99	5.2167E00
813.29	5.2394E00
813.59	5.2867E00
813.90	5.2996E00
814.20	5.3067E00
814.50	5.3802E00
814.81	5.3184E00
815.11	5.4470E00
815.41	5.5808E00
815.72	5.5083E00
816.02	5.5469E00
816.32	5.5650E00
816.62	5.5217E00
816.93	5.6200E00
817.23	5.7935E00
817.53	5.6916E00
817.84	5.8091E00
818.14	5.8085E00
818.44	5.7913E00
818.74	5.9549E00
819.04	6.0660E00
819.35	5.9905E00
819.65	6.0416E00
819.95	6.2001E00
820.25	6.2058E00
820.56	6.1977E00
820.86	6.2704E00
821.16	6.3231E00
821.46	6.3241E00
821.76	6.3519E00
822.07	6.3084E00
822.37	6.4191E00
822.67	6.5228E00
822.97	6.5704E00
823.27	6.5497E00
823.57	6.6554E00
823.88	6.6182E00
824.18	6.7389E00
824.48	6.7223E00
824.78	6.8046E00
825.08	6.7808E00
825.38	6.8949E00
825.69	6.9016E00
825.99	7.0010E00
826.29	7.0316E00
826.59	7.0042E00
826.89	7.1359E00
827.19	6.9515E00
827.49	7.4121E00
827.79	7.3017E00
828.09	7.2395E00
828.39	7.4124E00
828.70	7.3915E00
829.00	7.3765E00
829.30	7.5171E00
829.60	7.6343E00
829.90	7.5317E00
830.20	7.4669E00
830.50	7.8027E00
830.80	7.8434E00
831.10	7.6964E00
831.40	7.9746E00
831.70	7.8791E00
832.00	7.9243E00
832.30	8.1530E00
832.60	8.0366E00
832.90	8.1910E00
833.20	8.3501E00
833.50	8.1606E00
833.80	8.3024E00
834.10	8.3919E00
834.40	8.2442E00
834.70	8.4354E00
835.00	8.4811E00
835.30	8.4432E00
835.60	8.5714E00
835.90	8.6484E00
836.20	8.8569E00
836.50	8.8494E00
836.80	8.8589E00
837.10	8.8057E00
837.40	8.9629E00
837.70	9.0271E00
838.00	9.0149E00
838.30	8.9889E00
838.60	9.3448E00
838.90	9.3365E00
839.19	9.2533E00
839.49	9.6049E00
839.79	9.4821E00
840.09	9.5818E00
840.39	9.4274E00
840.69	9.6021E00
840.99	1.0136E01
841.29	9.9848E00
841.59	9.9992E00
841.88	1.0060E01
842.18	1.0127E01
842.48	1.0376E01
842.78	1.0325E01
843.08	1.0436E01
843.38	1.0286E01
843.68	1.0611E01
843.97	1.0653E01
844.27	1.0688E01
844.57	1.0880E01
844.87	1.0944E01
845.17	1.0834E01
845.47	1.0693E01
845.76	1.0999E01
846.06	1.1197E01
846.36	1.1083E01
846.66	1.1330E01
846.96	1.1263E01
847.25	1.1296E01
847.55	1.1397E01
847.85	1.1681E01
848.15	1.1470E01
848.44	1.1839E01
848.74	1.1560E01
849.04	1.1871E01
849.34	1.1950E01
849.63	1.2201E01
849.93	1.2146E01
850.23	1.2639E01
850.53	1.2116E01
850.82	1.2424E01
851.12	1.2412E01
851.42	1.2267E01
851.71	1.2592E01
852.01	1.2875E01
852.31	1.3093E01
852.61	1.3166E01
852.90	1.3175E01
853.20	1.3307E01
853.50	1.3504E01
853.79	1.3853E01
854.09	1.3360E01
854.39	1.3572E01
854.68	1.4317E01
854.98	1.4097E01
855.28	1.4073E01
855.57	1.4238E01
855.87	1.4285E01
856.17	1.4347E01
856.46	1.4337E01
856.76	1.4472E01
857.05	1.4731E01
857.35	1.4836E01
857.65	1.4669E01
857.94	1.5018E01
858.24	1.4993E01
858.53	1.5365E01
858.83	1.5305E01
859.13	1.5576E01
859.42	1.5426E01
859.72	1.5954E01
860.01	1.6542E01
860.31	1.6115E01
860.60	1.6491E01
860.90	1.6452E01
861.20	1.6700E01
861.49	1.6404E01
861.79	1.7165E01
862.08	1.7196E01
862.38	1.7515E01
862.67	1.7460E01
862.97	1.7581E01
863.26	1.7407E01
863.56	1.8383E01
863.85	1.8246E01
864.15	1.8026E01
864.44	1.8660E01
864.74	1.8447E01
865.03	1.8621E01
865.33	1.8764E01
865.62	1.9208E01
865.92	1.8982E01
866.21	2.0238E01
866.51	2.0091E01
866.80	2.0013E01
867.10	2.0422E01
867.39	2.0100E01
867.69	2.0903E01
867.98	2.0062E01
868.27	2.0751E01
868.57	2.0789E01
868.86	2.2005E01
869.16	2.1687E01
869.45	2.1826E01
869.75	2.1237E01
870.04	2.2159E01
870.33	2.2376E01
870.63	2.2173E01
870.92	2.3253E01
871.22	2.3528E01
871.51	2.3114E01
871.80	2.3415E01
872.10	2.3415E01
>>>>>End Processed Spectral Data<<<<<
