SpectraSuite Data File
++++++++++++++++++++++++++++++++++++
Date: Wed May 13 09:04:43 PDT 2015
User: schluterlab
Dark Spectrum Present: Yes
Reference Spectrum Present: No
Number of Sampled Component Spectra: 1
Spectrometers: USB2E3373
Integration Time (usec): 2200000 (USB2E3373)
Spectra Averaged: 3 (USB2E3373)
Boxcar Smoothing: 0 (USB2E3373)
Correct for Electrical Dark: No (USB2E3373)
Strobe/Lamp Enabled: No (USB2E3373)
Correct for Detector Non-linearity: No (USB2E3373)
Correct for Stray Light: No (USB2E3373)
Number of Pixels in Processed Spectrum: 2048
>>>>>Begin Processed Spectral Data<<<<<
178.53	0.0000E00
178.91	0.0000E00
179.29	0.0000E00
179.67	0.0000E00
180.04	0.0000E00
180.42	0.0000E00
180.80	0.0000E00
181.18	0.0000E00
181.56	0.0000E00
181.94	0.0000E00
182.31	0.0000E00
182.69	0.0000E00
183.07	0.0000E00
183.45	0.0000E00
183.83	0.0000E00
184.20	0.0000E00
184.58	0.0000E00
184.96	0.0000E00
185.34	0.0000E00
185.72	0.0000E00
186.09	0.0000E00
186.47	0.0000E00
186.85	0.0000E00
187.23	0.0000E00
187.61	0.0000E00
187.98	0.0000E00
188.36	0.0000E00
188.74	0.0000E00
189.12	0.0000E00
189.49	0.0000E00
189.87	0.0000E00
190.25	0.0000E00
190.63	0.0000E00
191.00	0.0000E00
191.38	0.0000E00
191.76	0.0000E00
192.14	0.0000E00
192.51	0.0000E00
192.89	0.0000E00
193.27	0.0000E00
193.65	0.0000E00
194.02	0.0000E00
194.40	0.0000E00
194.78	0.0000E00
195.15	0.0000E00
195.53	-0.0000E00
195.91	0.0000E00
196.29	0.0000E00
196.66	0.0000E00
197.04	0.0000E00
197.42	0.0000E00
197.79	0.0000E00
198.17	0.0000E00
198.55	0.0000E00
198.92	0.0000E00
199.30	0.0000E00
199.68	0.0000E00
200.05	0.0000E00
200.43	0.0000E00
200.81	0.0000E00
201.18	0.0000E00
201.56	0.0000E00
201.94	0.0000E00
202.31	-0.0000E00
202.69	0.0000E00
203.07	0.0000E00
203.44	0.0000E00
203.82	0.0000E00
204.19	0.0000E00
204.57	0.0000E00
204.95	0.0000E00
205.32	0.0000E00
205.70	0.0000E00
206.08	0.0000E00
206.45	0.0000E00
206.83	0.0000E00
207.20	0.0000E00
207.58	0.0000E00
207.96	0.0000E00
208.33	0.0000E00
208.71	0.0000E00
209.08	0.0000E00
209.46	0.0000E00
209.84	0.0000E00
210.21	0.0000E00
210.59	0.0000E00
210.96	0.0000E00
211.34	0.0000E00
211.71	0.0000E00
212.09	0.0000E00
212.46	0.0000E00
212.84	0.0000E00
213.22	0.0000E00
213.59	0.0000E00
213.97	0.0000E00
214.34	0.0000E00
214.72	0.0000E00
215.09	0.0000E00
215.47	0.0000E00
215.84	0.0000E00
216.22	0.0000E00
216.59	0.0000E00
216.97	0.0000E00
217.34	0.0000E00
217.72	0.0000E00
218.09	0.0000E00
218.47	0.0000E00
218.84	0.0000E00
219.22	0.0000E00
219.59	0.0000E00
219.97	0.0000E00
220.34	0.0000E00
220.72	0.0000E00
221.09	0.0000E00
221.47	0.0000E00
221.84	0.0000E00
222.22	0.0000E00
222.59	0.0000E00
222.97	0.0000E00
223.34	0.0000E00
223.72	0.0000E00
224.09	0.0000E00
224.46	0.0000E00
224.84	0.0000E00
225.21	0.0000E00
225.59	0.0000E00
225.96	0.0000E00
226.34	0.0000E00
226.71	0.0000E00
227.08	0.0000E00
227.46	0.0000E00
227.83	0.0000E00
228.21	0.0000E00
228.58	0.0000E00
228.95	0.0000E00
229.33	0.0000E00
229.70	0.0000E00
230.08	0.0000E00
230.45	0.0000E00
230.82	0.0000E00
231.20	0.0000E00
231.57	0.0000E00
231.95	0.0000E00
232.32	0.0000E00
232.69	0.0000E00
233.07	0.0000E00
233.44	0.0000E00
233.81	0.0000E00
234.19	0.0000E00
234.56	0.0000E00
234.93	0.0000E00
235.31	0.0000E00
235.68	0.0000E00
236.05	0.0000E00
236.43	0.0000E00
236.80	0.0000E00
237.17	0.0000E00
237.55	0.0000E00
237.92	0.0000E00
238.29	0.0000E00
238.67	0.0000E00
239.04	0.0000E00
239.41	0.0000E00
239.79	0.0000E00
240.16	0.0000E00
240.53	0.0000E00
240.91	0.0000E00
241.28	0.0000E00
241.65	0.0000E00
242.02	0.0000E00
242.40	0.0000E00
242.77	0.0000E00
243.14	0.0000E00
243.51	0.0000E00
243.89	0.0000E00
244.26	0.0000E00
244.63	0.0000E00
245.00	0.0000E00
245.38	0.0000E00
245.75	0.0000E00
246.12	0.0000E00
246.49	0.0000E00
246.87	0.0000E00
247.24	0.0000E00
247.61	0.0000E00
247.98	0.0000E00
248.36	0.0000E00
248.73	0.0000E00
249.10	0.0000E00
249.47	0.0000E00
249.84	0.0000E00
250.22	0.0000E00
250.59	0.0000E00
250.96	0.0000E00
251.33	0.0000E00
251.70	0.0000E00
252.08	0.0000E00
252.45	0.0000E00
252.82	0.0000E00
253.19	0.0000E00
253.56	0.0000E00
253.94	0.0000E00
254.31	0.0000E00
254.68	0.0000E00
255.05	0.0000E00
255.42	0.0000E00
255.79	0.0000E00
256.16	0.0000E00
256.54	0.0000E00
256.91	0.0000E00
257.28	0.0000E00
257.65	0.0000E00
258.02	0.0000E00
258.39	0.0000E00
258.76	0.0000E00
259.14	0.0000E00
259.51	0.0000E00
259.88	0.0000E00
260.25	0.0000E00
260.62	0.0000E00
260.99	0.0000E00
261.36	0.0000E00
261.73	0.0000E00
262.10	0.0000E00
262.47	0.0000E00
262.85	0.0000E00
263.22	0.0000E00
263.59	0.0000E00
263.96	0.0000E00
264.33	0.0000E00
264.70	0.0000E00
265.07	0.0000E00
265.44	0.0000E00
265.81	0.0000E00
266.18	0.0000E00
266.55	0.0000E00
266.92	0.0000E00
267.29	0.0000E00
267.66	0.0000E00
268.03	0.0000E00
268.40	0.0000E00
268.77	0.0000E00
269.14	0.0000E00
269.51	0.0000E00
269.88	0.0000E00
270.25	0.0000E00
270.62	0.0000E00
270.99	0.0000E00
271.36	0.0000E00
271.73	0.0000E00
272.10	0.0000E00
272.47	0.0000E00
272.84	0.0000E00
273.21	0.0000E00
273.58	0.0000E00
273.95	0.0000E00
274.32	0.0000E00
274.69	0.0000E00
275.06	0.0000E00
275.43	0.0000E00
275.80	0.0000E00
276.17	0.0000E00
276.54	0.0000E00
276.91	0.0000E00
277.28	0.0000E00
277.65	0.0000E00
278.02	0.0000E00
278.39	0.0000E00
278.76	0.0000E00
279.13	0.0000E00
279.50	0.0000E00
279.87	0.0000E00
280.23	0.0000E00
280.60	0.0000E00
280.97	0.0000E00
281.34	0.0000E00
281.71	0.0000E00
282.08	0.0000E00
282.45	0.0000E00
282.82	0.0000E00
283.19	0.0000E00
283.56	0.0000E00
283.92	0.0000E00
284.29	0.0000E00
284.66	0.0000E00
285.03	0.0000E00
285.40	0.0000E00
285.77	0.0000E00
286.14	0.0000E00
286.51	0.0000E00
286.87	0.0000E00
287.24	0.0000E00
287.61	0.0000E00
287.98	0.0000E00
288.35	0.0000E00
288.72	0.0000E00
289.08	0.0000E00
289.45	0.0000E00
289.82	0.0000E00
290.19	0.0000E00
290.56	0.0000E00
290.93	0.0000E00
291.29	0.0000E00
291.66	0.0000E00
292.03	0.0000E00
292.40	0.0000E00
292.77	0.0000E00
293.13	0.0000E00
293.50	0.0000E00
293.87	0.0000E00
294.24	0.0000E00
294.60	0.0000E00
294.97	0.0000E00
295.34	0.0000E00
295.71	0.0000E00
296.08	0.0000E00
296.44	0.0000E00
296.81	0.0000E00
297.18	0.0000E00
297.55	0.0000E00
297.91	0.0000E00
298.28	0.0000E00
298.65	0.0000E00
299.02	0.0000E00
299.38	0.0000E00
299.75	0.0000E00
300.12	3.8023E-01
300.48	9.6469E-01
300.85	4.0436E-01
301.22	1.0988E00
301.59	3.4239E-01
301.95	4.1233E-01
302.32	6.3831E-01
302.69	6.5817E-01
303.05	4.2228E-01
303.42	5.8768E-01
303.79	6.9942E-01
304.15	4.4324E-01
304.52	5.4363E-01
304.89	5.2017E-01
305.25	1.0756E00
305.62	7.1880E-01
305.99	8.7149E-01
306.35	5.4096E-01
306.72	7.5729E-01
307.09	6.4752E-01
307.45	6.9359E-01
307.82	5.3074E-01
308.19	6.8111E-01
308.55	8.2299E-01
308.92	9.6078E-01
309.29	8.1508E-01
309.65	9.3502E-01
310.02	7.4964E-01
310.38	8.2844E-01
310.75	1.1729E00
311.12	1.1728E00
311.48	1.9877E00
311.85	1.2462E00
312.22	8.5635E-01
312.58	2.0011E00
312.95	1.1999E00
313.31	1.1130E00
313.68	1.4386E00
314.05	2.3366E00
314.41	1.2749E00
314.78	7.5085E-01
315.14	1.2391E00
315.51	2.6003E00
315.87	1.1226E00
316.24	1.6679E00
316.61	1.5218E00
316.97	1.0065E00
317.34	1.5455E00
317.70	1.2120E00
318.07	1.2219E00
318.43	1.4453E00
318.80	1.0828E00
319.16	1.3541E00
319.53	9.4963E-01
319.89	1.9144E00
320.26	1.4474E00
320.62	1.7525E00
320.99	1.5376E00
321.35	8.9120E-01
321.72	1.1982E00
322.08	1.9084E00
322.45	1.0434E00
322.81	1.2271E00
323.18	3.7105E00
323.54	1.9670E00
323.91	1.5057E00
324.27	2.9174E00
324.64	2.1222E00
325.00	1.5362E00
325.37	2.5789E00
325.73	9.4874E-01
326.10	3.2610E00
326.46	1.5137E00
326.83	1.2355E00
327.19	2.6493E00
327.56	1.0222E00
327.92	1.4815E00
328.29	1.1806E00
328.65	1.5481E00
329.01	1.8340E00
329.38	1.1888E00
329.74	1.0646E00
330.11	1.5578E00
330.47	1.0393E00
330.84	1.5014E00
331.20	1.4998E00
331.56	1.3947E00
331.93	1.5547E00
332.29	1.4403E00
332.66	1.0062E00
333.02	1.2180E00
333.38	1.8215E00
333.75	8.5031E-01
334.11	1.3300E00
334.48	1.3262E00
334.84	1.2419E00
335.20	1.5250E00
335.57	2.8262E00
335.93	1.8805E00
336.29	1.4598E00
336.66	1.4069E00
337.02	9.8360E-01
337.38	1.2291E00
337.75	1.1917E00
338.11	1.0096E00
338.47	1.4080E00
338.84	1.1614E00
339.20	9.6545E-01
339.56	2.8353E00
339.93	8.8515E-01
340.29	1.0526E00
340.65	1.1487E00
341.02	1.9272E00
341.38	1.3144E00
341.74	1.4154E00
342.11	1.3792E00
342.47	1.3893E00
342.83	7.6380E-01
343.20	1.7672E00
343.56	1.0701E00
343.92	1.4889E00
344.28	9.9150E-01
344.65	1.5717E00
345.01	9.2662E-01
345.37	1.4963E00
345.73	1.3336E00
346.10	1.1435E00
346.46	1.3574E00
346.82	1.0361E00
347.19	2.3541E00
347.55	9.6835E-01
347.91	9.7639E-01
348.27	1.0964E00
348.63	9.5398E-01
349.00	9.4230E-01
349.36	1.8994E00
349.72	1.1849E00
350.08	1.7278E00
350.45	9.8733E-01
350.81	9.2038E-01
351.17	1.2114E00
351.53	1.3109E00
351.89	1.0696E00
352.26	1.2275E00
352.62	1.0161E00
352.98	1.1814E00
353.34	1.0425E00
353.70	1.3770E00
354.07	1.0109E00
354.43	9.5850E-01
354.79	1.1259E00
355.15	9.0061E-01
355.51	8.6018E-01
355.87	9.7403E-01
356.24	1.0147E00
356.60	9.8121E-01
356.96	1.0626E00
357.32	9.5643E-01
357.68	8.9793E-01
358.04	8.1034E-01
358.40	8.9421E-01
358.77	8.3275E-01
359.13	9.8626E-01
359.49	1.0476E00
359.85	1.0178E00
360.21	7.6648E-01
360.57	9.3578E-01
360.93	9.2996E-01
361.29	9.8501E-01
361.66	8.1833E-01
362.02	7.5426E-01
362.38	9.8386E-01
362.74	8.5530E-01
363.10	9.0284E-01
363.46	1.0501E00
363.82	8.9887E-01
364.18	1.0750E00
364.54	1.0201E00
364.90	9.7239E-01
365.26	9.5509E-01
365.62	1.0909E00
365.98	9.5105E-01
366.35	7.6111E-01
366.71	9.2238E-01
367.07	1.1813E00
367.43	7.4700E-01
367.79	1.0669E00
368.15	9.7893E-01
368.51	1.1600E00
368.87	1.0148E00
369.23	1.0845E00
369.59	8.5261E-01
369.95	9.2344E-01
370.31	8.8078E-01
370.67	1.0422E00
371.03	8.7917E-01
371.39	8.5994E-01
371.75	8.6851E-01
372.11	8.9550E-01
372.47	8.2362E-01
372.83	8.3166E-01
373.19	6.9421E-01
373.55	9.0992E-01
373.91	9.2757E-01
374.27	1.0019E00
374.63	9.7700E-01
374.99	8.8749E-01
375.35	8.5366E-01
375.71	8.7022E-01
376.07	8.7743E-01
376.42	8.6734E-01
376.78	7.8653E-01
377.14	8.9176E-01
377.50	9.7440E-01
377.86	8.2951E-01
378.22	7.8210E-01
378.58	7.8270E-01
378.94	7.5981E-01
379.30	7.9749E-01
379.66	7.8550E-01
380.02	7.6892E-01
380.38	7.4700E-01
380.74	7.8348E-01
381.09	8.2172E-01
381.45	7.5779E-01
381.81	7.3271E-01
382.17	7.7216E-01
382.53	8.0305E-01
382.89	7.1932E-01
383.25	7.5625E-01
383.61	7.4731E-01
383.97	7.2507E-01
384.32	7.2300E-01
384.68	6.9105E-01
385.04	7.6677E-01
385.40	7.8956E-01
385.76	7.8706E-01
386.12	7.4011E-01
386.48	7.5150E-01
386.83	7.0133E-01
387.19	6.9998E-01
387.55	7.8292E-01
387.91	7.5624E-01
388.27	7.0806E-01
388.62	7.9592E-01
388.98	7.2082E-01
389.34	8.0004E-01
389.70	7.2644E-01
390.06	7.4944E-01
390.42	7.5623E-01
390.77	7.3774E-01
391.13	7.5305E-01
391.49	7.3892E-01
391.85	7.7876E-01
392.20	6.8832E-01
392.56	6.9814E-01
392.92	7.0736E-01
393.28	7.0984E-01
393.64	7.4192E-01
393.99	7.5631E-01
394.35	7.4371E-01
394.71	7.3525E-01
395.07	7.2011E-01
395.42	7.2180E-01
395.78	7.3617E-01
396.14	6.6462E-01
396.50	6.6695E-01
396.85	7.3298E-01
397.21	7.0600E-01
397.57	7.2548E-01
397.92	6.7907E-01
398.28	6.5677E-01
398.64	7.8041E-01
399.00	6.2871E-01
399.35	6.5422E-01
399.71	7.0162E-01
400.07	6.8524E-01
400.42	6.6922E-01
400.78	6.8602E-01
401.14	6.8896E-01
401.49	6.3874E-01
401.85	6.3460E-01
402.21	6.4421E-01
402.57	6.4039E-01
402.92	6.7539E-01
403.28	6.4206E-01
403.63	6.3923E-01
403.99	6.5366E-01
404.35	6.3485E-01
404.70	6.2349E-01
405.06	6.3300E-01
405.42	6.4711E-01
405.77	6.0192E-01
406.13	6.0157E-01
406.49	5.9709E-01
406.84	6.0431E-01
407.20	5.8954E-01
407.55	6.3649E-01
407.91	6.4877E-01
408.27	6.0670E-01
408.62	6.1100E-01
408.98	6.1842E-01
409.34	6.2878E-01
409.69	6.0136E-01
410.05	6.3425E-01
410.40	6.0531E-01
410.76	5.6016E-01
411.11	5.6511E-01
411.47	6.1331E-01
411.83	5.8136E-01
412.18	5.9175E-01
412.54	5.7976E-01
412.89	5.7638E-01
413.25	5.9793E-01
413.60	6.2413E-01
413.96	5.8530E-01
414.31	5.8908E-01
414.67	6.2213E-01
415.03	6.0954E-01
415.38	6.2465E-01
415.74	6.1706E-01
416.09	6.1294E-01
416.45	6.2121E-01
416.80	6.0937E-01
417.16	6.0399E-01
417.51	6.0050E-01
417.87	5.7840E-01
418.22	5.7174E-01
418.58	5.8445E-01
418.93	5.5885E-01
419.29	5.9916E-01
419.64	5.8150E-01
420.00	5.5004E-01
420.35	5.3999E-01
420.71	5.6669E-01
421.06	5.6923E-01
421.42	5.8345E-01
421.77	5.7513E-01
422.12	5.7355E-01
422.48	5.4346E-01
422.83	5.8100E-01
423.19	5.4912E-01
423.54	5.4916E-01
423.90	5.5604E-01
424.25	5.2506E-01
424.61	5.7888E-01
424.96	5.4154E-01
425.31	5.3846E-01
425.67	5.1611E-01
426.02	5.3905E-01
426.38	5.3863E-01
426.73	5.1031E-01
427.09	5.3423E-01
427.44	5.1176E-01
427.79	5.1769E-01
428.15	5.3402E-01
428.50	5.3056E-01
428.85	5.4252E-01
429.21	5.0144E-01
429.56	4.8993E-01
429.92	4.9973E-01
430.27	5.1672E-01
430.62	5.1585E-01
430.98	5.2220E-01
431.33	5.1047E-01
431.68	4.9338E-01
432.04	4.8975E-01
432.39	4.9674E-01
432.74	5.1448E-01
433.10	4.8248E-01
433.45	5.1099E-01
433.80	5.0848E-01
434.16	5.1935E-01
434.51	4.9461E-01
434.86	5.1475E-01
435.22	4.9625E-01
435.57	5.3019E-01
435.92	5.1961E-01
436.28	5.1742E-01
436.63	4.8012E-01
436.98	5.1347E-01
437.34	5.0965E-01
437.69	4.8464E-01
438.04	4.7160E-01
438.39	5.0440E-01
438.75	5.1600E-01
439.10	4.6615E-01
439.45	5.0637E-01
439.81	5.0101E-01
440.16	4.7095E-01
440.51	4.9214E-01
440.86	4.9026E-01
441.22	4.7944E-01
441.57	4.8379E-01
441.92	4.6966E-01
442.27	4.9330E-01
442.63	4.8256E-01
442.98	5.1551E-01
443.33	5.0426E-01
443.68	4.6927E-01
444.03	4.4292E-01
444.39	4.4530E-01
444.74	4.8328E-01
445.09	4.8980E-01
445.44	4.9090E-01
445.79	4.3325E-01
446.15	4.6560E-01
446.50	4.8194E-01
446.85	4.5269E-01
447.20	4.4045E-01
447.55	4.7613E-01
447.91	4.5844E-01
448.26	4.7013E-01
448.61	4.6594E-01
448.96	4.5606E-01
449.31	4.6316E-01
449.66	4.6748E-01
450.02	4.5993E-01
450.37	4.6075E-01
450.72	4.5474E-01
451.07	4.9006E-01
451.42	4.8711E-01
451.77	4.5994E-01
452.12	4.5976E-01
452.47	4.8084E-01
452.83	4.4224E-01
453.18	4.6798E-01
453.53	4.6274E-01
453.88	4.3592E-01
454.23	4.3004E-01
454.58	4.3027E-01
454.93	4.6156E-01
455.28	4.5857E-01
455.63	4.4538E-01
455.98	4.3543E-01
456.34	4.5896E-01
456.69	4.4480E-01
457.04	4.4802E-01
457.39	4.2069E-01
457.74	4.2938E-01
458.09	4.1812E-01
458.44	4.1715E-01
458.79	4.0833E-01
459.14	4.2230E-01
459.49	4.3956E-01
459.84	4.1525E-01
460.19	4.4092E-01
460.54	4.3848E-01
460.89	4.0408E-01
461.24	4.4242E-01
461.59	4.2315E-01
461.94	4.2916E-01
462.29	4.0116E-01
462.64	4.2389E-01
462.99	4.2868E-01
463.34	4.5309E-01
463.69	4.2461E-01
464.04	3.9623E-01
464.39	4.1166E-01
464.74	4.1740E-01
465.09	4.2861E-01
465.44	4.0371E-01
465.79	4.1607E-01
466.14	4.1809E-01
466.49	4.1126E-01
466.84	4.0744E-01
467.19	4.2166E-01
467.54	4.2280E-01
467.89	4.0219E-01
468.24	3.8163E-01
468.59	3.9408E-01
468.94	3.8625E-01
469.29	3.8814E-01
469.64	4.0111E-01
469.99	3.8637E-01
470.34	3.7427E-01
470.68	3.9848E-01
471.03	3.8466E-01
471.38	3.8572E-01
471.73	3.6742E-01
472.08	3.6242E-01
472.43	3.5018E-01
472.78	3.6958E-01
473.13	3.6535E-01
473.48	3.5946E-01
473.83	3.5278E-01
474.17	3.5763E-01
474.52	3.5379E-01
474.87	3.3988E-01
475.22	3.4683E-01
475.57	3.2974E-01
475.92	3.2157E-01
476.27	3.3119E-01
476.61	3.2251E-01
476.96	3.1421E-01
477.31	3.0438E-01
477.66	3.1031E-01
478.01	3.0836E-01
478.36	3.0664E-01
478.70	3.0233E-01
479.05	3.0711E-01
479.40	2.9303E-01
479.75	2.8973E-01
480.10	2.9158E-01
480.45	2.8473E-01
480.79	2.8347E-01
481.14	2.8754E-01
481.49	2.8061E-01
481.84	2.7542E-01
482.19	2.7351E-01
482.53	2.7287E-01
482.88	2.7059E-01
483.23	2.6583E-01
483.58	2.6052E-01
483.92	2.6697E-01
484.27	2.5864E-01
484.62	2.5710E-01
484.97	2.5168E-01
485.31	2.5027E-01
485.66	2.5557E-01
486.01	2.5557E-01
486.36	2.4322E-01
486.70	2.5000E-01
487.05	2.4859E-01
487.40	2.4889E-01
487.75	2.4141E-01
488.09	2.4192E-01
488.44	2.4396E-01
488.79	2.3999E-01
489.13	2.3749E-01
489.48	2.4039E-01
489.83	2.4075E-01
490.17	2.3471E-01
490.52	2.3440E-01
490.87	2.3552E-01
491.22	2.3876E-01
491.56	2.3538E-01
491.91	2.3862E-01
492.26	2.3584E-01
492.60	2.3558E-01
492.95	2.3769E-01
493.30	2.3740E-01
493.64	2.3448E-01
493.99	2.3571E-01
494.34	2.3292E-01
494.68	2.3045E-01
495.03	2.3609E-01
495.37	2.3402E-01
495.72	2.3620E-01
496.07	2.3119E-01
496.41	2.3257E-01
496.76	2.3116E-01
497.11	2.3353E-01
497.45	2.3250E-01
497.80	2.3283E-01
498.14	2.3270E-01
498.49	2.3306E-01
498.84	2.3377E-01
499.18	2.3333E-01
499.53	2.3293E-01
499.87	2.3102E-01
500.22	2.3382E-01
500.56	2.3312E-01
500.91	2.3288E-01
501.26	2.3276E-01
501.60	2.3204E-01
501.95	2.3021E-01
502.29	2.3316E-01
502.64	2.2913E-01
502.98	2.3252E-01
503.33	2.3061E-01
503.67	2.3139E-01
504.02	2.3076E-01
504.36	2.3034E-01
504.71	2.3100E-01
505.06	2.2893E-01
505.40	2.2896E-01
505.75	2.3024E-01
506.09	2.3058E-01
506.44	2.3034E-01
506.78	2.2811E-01
507.13	2.2923E-01
507.47	2.2746E-01
507.82	2.2739E-01
508.16	2.2955E-01
508.51	2.2749E-01
508.85	2.2496E-01
509.19	2.2765E-01
509.54	2.2732E-01
509.88	2.2742E-01
510.23	2.2425E-01
510.57	2.2519E-01
510.92	2.2448E-01
511.26	2.2471E-01
511.61	2.2449E-01
511.95	2.2487E-01
512.30	2.2351E-01
512.64	2.2521E-01
512.98	2.2129E-01
513.33	2.2285E-01
513.67	2.2357E-01
514.02	2.2266E-01
514.36	2.2069E-01
514.70	2.2190E-01
515.05	2.1958E-01
515.39	2.2128E-01
515.74	2.1912E-01
516.08	2.1787E-01
516.42	2.1990E-01
516.77	2.2029E-01
517.11	2.2046E-01
517.46	2.2153E-01
517.80	2.1848E-01
518.14	2.1978E-01
518.49	2.1789E-01
518.83	2.1863E-01
519.17	2.1875E-01
519.52	2.1910E-01
519.86	2.1804E-01
520.20	2.1711E-01
520.55	2.1787E-01
520.89	2.1635E-01
521.23	2.1873E-01
521.58	2.1811E-01
521.92	2.1987E-01
522.26	2.2102E-01
522.61	2.1739E-01
522.95	2.1910E-01
523.29	2.1615E-01
523.64	2.1626E-01
523.98	2.1718E-01
524.32	2.1796E-01
524.66	2.1990E-01
525.01	2.1977E-01
525.35	2.2055E-01
525.69	2.2118E-01
526.04	2.2038E-01
526.38	2.1719E-01
526.72	2.2165E-01
527.06	2.2024E-01
527.41	2.2209E-01
527.75	2.2397E-01
528.09	2.2227E-01
528.43	2.2575E-01
528.78	2.2302E-01
529.12	2.2544E-01
529.46	2.2712E-01
529.80	2.2650E-01
530.15	2.2694E-01
530.49	2.2680E-01
530.83	2.2801E-01
531.17	2.2821E-01
531.51	2.2724E-01
531.86	2.2928E-01
532.20	2.3046E-01
532.54	2.2973E-01
532.88	2.3147E-01
533.22	2.3367E-01
533.57	2.3458E-01
533.91	2.3371E-01
534.25	2.3598E-01
534.59	2.3465E-01
534.93	2.3661E-01
535.27	2.3560E-01
535.62	2.4018E-01
535.96	2.3902E-01
536.30	2.3976E-01
536.64	2.4006E-01
536.98	2.4208E-01
537.32	2.4117E-01
537.66	2.4138E-01
538.01	2.4386E-01
538.35	2.4578E-01
538.69	2.4284E-01
539.03	2.4868E-01
539.37	2.4626E-01
539.71	2.4812E-01
540.05	2.4850E-01
540.39	2.4943E-01
540.73	2.4826E-01
541.07	2.4894E-01
541.42	2.4972E-01
541.76	2.4991E-01
542.10	2.5137E-01
542.44	2.5216E-01
542.78	2.5235E-01
543.12	2.5169E-01
543.46	2.5710E-01
543.80	2.5389E-01
544.14	2.5401E-01
544.48	2.5301E-01
544.82	2.5568E-01
545.16	2.5509E-01
545.50	2.5428E-01
545.84	2.5697E-01
546.18	2.5527E-01
546.52	2.5839E-01
546.86	2.5615E-01
547.20	2.5963E-01
547.54	2.6273E-01
547.88	2.5807E-01
548.22	2.5861E-01
548.56	2.6005E-01
548.90	2.5823E-01
549.24	2.6053E-01
549.58	2.6126E-01
549.92	2.5943E-01
550.26	2.6388E-01
550.60	2.6009E-01
550.94	2.5881E-01
551.28	2.6250E-01
551.62	2.6056E-01
551.96	2.6286E-01
552.30	2.6403E-01
552.64	2.6327E-01
552.98	2.6329E-01
553.32	2.6367E-01
553.66	2.6245E-01
554.00	2.6303E-01
554.34	2.6373E-01
554.68	2.6485E-01
555.02	2.6510E-01
555.36	2.6632E-01
555.69	2.6506E-01
556.03	2.6463E-01
556.37	2.6609E-01
556.71	2.6356E-01
557.05	2.6336E-01
557.39	2.6391E-01
557.73	2.6446E-01
558.07	2.6627E-01
558.41	2.6495E-01
558.75	2.6566E-01
559.08	2.6578E-01
559.42	2.6332E-01
559.76	2.6745E-01
560.10	2.6702E-01
560.44	2.6684E-01
560.78	2.6425E-01
561.12	2.6602E-01
561.45	2.6553E-01
561.79	2.6677E-01
562.13	2.6667E-01
562.47	2.6682E-01
562.81	2.6706E-01
563.15	2.6716E-01
563.48	2.6748E-01
563.82	2.6429E-01
564.16	2.6672E-01
564.50	2.6707E-01
564.84	2.6772E-01
565.17	2.6777E-01
565.51	2.6692E-01
565.85	2.6917E-01
566.19	2.6595E-01
566.52	2.6932E-01
566.86	2.6640E-01
567.20	2.6908E-01
567.54	2.6813E-01
567.88	2.6864E-01
568.21	2.6855E-01
568.55	2.7000E-01
568.89	2.7001E-01
569.23	2.6967E-01
569.56	2.6916E-01
569.90	2.7027E-01
570.24	2.7216E-01
570.57	2.7206E-01
570.91	2.7255E-01
571.25	2.6886E-01
571.59	2.7203E-01
571.92	2.7162E-01
572.26	2.7286E-01
572.60	2.7519E-01
572.93	2.7370E-01
573.27	2.7621E-01
573.61	2.7684E-01
573.95	2.7248E-01
574.28	2.7708E-01
574.62	2.7734E-01
574.96	2.7746E-01
575.29	2.7693E-01
575.63	2.8114E-01
575.97	2.8029E-01
576.30	2.8677E-01
576.64	2.8338E-01
576.98	2.8271E-01
577.31	2.8435E-01
577.65	2.8713E-01
577.98	2.8500E-01
578.32	2.8763E-01
578.66	2.8908E-01
578.99	2.8971E-01
579.33	2.9076E-01
579.67	2.8886E-01
580.00	2.9232E-01
580.34	2.9176E-01
580.67	2.9348E-01
581.01	2.9571E-01
581.35	2.9678E-01
581.68	2.9839E-01
582.02	2.9687E-01
582.35	2.9945E-01
582.69	2.9924E-01
583.02	3.0363E-01
583.36	3.0089E-01
583.70	3.0026E-01
584.03	3.0254E-01
584.37	3.0099E-01
584.70	3.0713E-01
585.04	3.0689E-01
585.37	3.0516E-01
585.71	3.1002E-01
586.04	3.0907E-01
586.38	3.0687E-01
586.72	3.1087E-01
587.05	3.1250E-01
587.39	3.1362E-01
587.72	3.1181E-01
588.06	3.1457E-01
588.39	3.1432E-01
588.73	3.1724E-01
589.06	3.1518E-01
589.40	3.1973E-01
589.73	3.2150E-01
590.07	3.2213E-01
590.40	3.2244E-01
590.73	3.2606E-01
591.07	3.2272E-01
591.40	3.2989E-01
591.74	3.2258E-01
592.07	3.2692E-01
592.41	3.2830E-01
592.74	3.2942E-01
593.08	3.2738E-01
593.41	3.2982E-01
593.75	3.2743E-01
594.08	3.3217E-01
594.41	3.3093E-01
594.75	3.3219E-01
595.08	3.3166E-01
595.42	3.2762E-01
595.75	3.3333E-01
596.09	3.3301E-01
596.42	3.3159E-01
596.75	3.3541E-01
597.09	3.3747E-01
597.42	3.3410E-01
597.75	3.3806E-01
598.09	3.3903E-01
598.42	3.3639E-01
598.76	3.3817E-01
599.09	3.4261E-01
599.42	3.4274E-01
599.76	3.4092E-01
600.09	3.3992E-01
600.42	3.4495E-01
600.76	3.3831E-01
601.09	3.4245E-01
601.42	3.4584E-01
601.76	3.4160E-01
602.09	3.4127E-01
602.42	3.4319E-01
602.76	3.4234E-01
603.09	3.4122E-01
603.42	3.4737E-01
603.76	3.4361E-01
604.09	3.4375E-01
604.42	3.4640E-01
604.76	3.4359E-01
605.09	3.4872E-01
605.42	3.4550E-01
605.75	3.4711E-01
606.09	3.4539E-01
606.42	3.4657E-01
606.75	3.4833E-01
607.09	3.4852E-01
607.42	3.4915E-01
607.75	3.4923E-01
608.08	3.4867E-01
608.42	3.5128E-01
608.75	3.4739E-01
609.08	3.5194E-01
609.41	3.5099E-01
609.75	3.4921E-01
610.08	3.5109E-01
610.41	3.5357E-01
610.74	3.5257E-01
611.07	3.5279E-01
611.41	3.5173E-01
611.74	3.5291E-01
612.07	3.5518E-01
612.40	3.5018E-01
612.73	3.5361E-01
613.07	3.5569E-01
613.40	3.5177E-01
613.73	3.5058E-01
614.06	3.5399E-01
614.39	3.5491E-01
614.72	3.5602E-01
615.06	3.5572E-01
615.39	3.6023E-01
615.72	3.5432E-01
616.05	3.5792E-01
616.38	3.5883E-01
616.71	3.5933E-01
617.05	3.5742E-01
617.38	3.5928E-01
617.71	3.5706E-01
618.04	3.5893E-01
618.37	3.5713E-01
618.70	3.5803E-01
619.03	3.5944E-01
619.36	3.5392E-01
619.69	3.6159E-01
620.03	3.5720E-01
620.36	3.5811E-01
620.69	3.5591E-01
621.02	3.5952E-01
621.35	3.5828E-01
621.68	3.5525E-01
622.01	3.5445E-01
622.34	3.5620E-01
622.67	3.5558E-01
623.00	3.5670E-01
623.33	3.5721E-01
623.66	3.5486E-01
623.99	3.5593E-01
624.32	3.5484E-01
624.65	3.5587E-01
624.99	3.5562E-01
625.32	3.5707E-01
625.65	3.5624E-01
625.98	3.5091E-01
626.31	3.5595E-01
626.64	3.5634E-01
626.97	3.5666E-01
627.30	3.5397E-01
627.63	3.5592E-01
627.96	3.5276E-01
628.29	3.5282E-01
628.62	3.5655E-01
628.95	3.5605E-01
629.28	3.5033E-01
629.61	3.6116E-01
629.94	3.5638E-01
630.26	3.5702E-01
630.59	3.5924E-01
630.92	3.5677E-01
631.25	3.5857E-01
631.58	3.6225E-01
631.91	3.5748E-01
632.24	3.6490E-01
632.57	3.6140E-01
632.90	3.6185E-01
633.23	3.6261E-01
633.56	3.6448E-01
633.89	3.6514E-01
634.22	3.6649E-01
634.55	3.6748E-01
634.88	3.7160E-01
635.20	3.7066E-01
635.53	3.7295E-01
635.86	3.7319E-01
636.19	3.7787E-01
636.52	3.7938E-01
636.85	3.7598E-01
637.18	3.8007E-01
637.51	3.7721E-01
637.83	3.8135E-01
638.16	3.7766E-01
638.49	3.8879E-01
638.82	3.8749E-01
639.15	3.9012E-01
639.48	3.9335E-01
639.81	3.9531E-01
640.13	3.9164E-01
640.46	3.9735E-01
640.79	3.9745E-01
641.12	4.0116E-01
641.45	4.0009E-01
641.77	3.9789E-01
642.10	4.0674E-01
642.43	4.0775E-01
642.76	4.0996E-01
643.09	4.0721E-01
643.41	4.1033E-01
643.74	4.1118E-01
644.07	4.1053E-01
644.40	4.1411E-01
644.73	4.1870E-01
645.05	4.2002E-01
645.38	4.2325E-01
645.71	4.2445E-01
646.04	4.2450E-01
646.36	4.2370E-01
646.69	4.3021E-01
647.02	4.3012E-01
647.35	4.2767E-01
647.67	4.3321E-01
648.00	4.3171E-01
648.33	4.3751E-01
648.66	4.3516E-01
648.98	4.4136E-01
649.31	4.3976E-01
649.64	4.4119E-01
649.96	4.4600E-01
650.29	4.4851E-01
650.62	4.4837E-01
650.94	4.4830E-01
651.27	4.4771E-01
651.60	4.4873E-01
651.92	4.5649E-01
652.25	4.5726E-01
652.58	4.5688E-01
652.90	4.5888E-01
653.23	4.5889E-01
653.56	4.6049E-01
653.88	4.6210E-01
654.21	4.6237E-01
654.54	4.6446E-01
654.86	4.7023E-01
655.19	4.6435E-01
655.52	4.7205E-01
655.84	4.7080E-01
656.17	4.7360E-01
656.49	4.7888E-01
656.82	4.7331E-01
657.15	4.7880E-01
657.47	4.7872E-01
657.80	4.7893E-01
658.13	4.8071E-01
658.45	4.8345E-01
658.78	4.8251E-01
659.10	4.8849E-01
659.43	4.8785E-01
659.75	4.8644E-01
660.08	4.8442E-01
660.41	4.9079E-01
660.73	4.9200E-01
661.06	4.9540E-01
661.38	4.9379E-01
661.71	4.9483E-01
662.03	4.9563E-01
662.36	5.0185E-01
662.68	5.0079E-01
663.01	4.9449E-01
663.33	4.9951E-01
663.66	5.0269E-01
663.98	4.9957E-01
664.31	5.0025E-01
664.63	5.1052E-01
664.96	5.0669E-01
665.28	5.1073E-01
665.61	5.0978E-01
665.93	5.1080E-01
666.26	5.1301E-01
666.58	5.1421E-01
666.91	5.1051E-01
667.23	5.1628E-01
667.56	5.0986E-01
667.88	5.1828E-01
668.21	5.1776E-01
668.53	5.1550E-01
668.86	5.2553E-01
669.18	5.1787E-01
669.50	5.2933E-01
669.83	5.2780E-01
670.15	5.2919E-01
670.48	5.2836E-01
670.80	5.2607E-01
671.13	5.2429E-01
671.45	5.3002E-01
671.77	5.3334E-01
672.10	5.2928E-01
672.42	5.3695E-01
672.75	5.3412E-01
673.07	5.3817E-01
673.39	5.3313E-01
673.72	5.3676E-01
674.04	5.4081E-01
674.37	5.4479E-01
674.69	5.4114E-01
675.01	5.4540E-01
675.34	5.4710E-01
675.66	5.4801E-01
675.98	5.4270E-01
676.31	5.5135E-01
676.63	5.5281E-01
676.95	5.5026E-01
677.28	5.5390E-01
677.60	5.5485E-01
677.92	5.5229E-01
678.25	5.5830E-01
678.57	5.5914E-01
678.89	5.5754E-01
679.22	5.6634E-01
679.54	5.6395E-01
679.86	5.6390E-01
680.18	5.6546E-01
680.51	5.6781E-01
680.83	5.7306E-01
681.15	5.6696E-01
681.48	5.7157E-01
681.80	5.7492E-01
682.12	5.7166E-01
682.44	5.8098E-01
682.77	5.8090E-01
683.09	5.8449E-01
683.41	5.8151E-01
683.73	5.8773E-01
684.06	5.8689E-01
684.38	5.8892E-01
684.70	5.8686E-01
685.02	5.9324E-01
685.34	5.9921E-01
685.67	5.9389E-01
685.99	6.0126E-01
686.31	5.9650E-01
686.63	6.0699E-01
686.96	6.0316E-01
687.28	6.1044E-01
687.60	6.0227E-01
687.92	6.0908E-01
688.24	6.1526E-01
688.56	6.1607E-01
688.89	6.1772E-01
689.21	6.1514E-01
689.53	6.1899E-01
689.85	6.2732E-01
690.17	6.2297E-01
690.49	6.3327E-01
690.82	6.3271E-01
691.14	6.3241E-01
691.46	6.3600E-01
691.78	6.3996E-01
692.10	6.3326E-01
692.42	6.4038E-01
692.74	6.4535E-01
693.06	6.4624E-01
693.39	6.5794E-01
693.71	6.5883E-01
694.03	6.5927E-01
694.35	6.6158E-01
694.67	6.6308E-01
694.99	6.6890E-01
695.31	6.7213E-01
695.63	6.7094E-01
695.95	6.7689E-01
696.27	6.7493E-01
696.59	6.8055E-01
696.91	6.8985E-01
697.23	6.8949E-01
697.56	6.8728E-01
697.88	6.9539E-01
698.20	6.9357E-01
698.52	7.0086E-01
698.84	7.0634E-01
699.16	7.1110E-01
699.48	7.0409E-01
699.80	7.1397E-01
700.12	7.2028E-01
700.44	7.2120E-01
700.76	7.2326E-01
701.08	7.2723E-01
701.40	7.3045E-01
701.72	7.3839E-01
702.04	7.3756E-01
702.36	7.4401E-01
702.68	7.4740E-01
703.00	7.5223E-01
703.32	7.5666E-01
703.64	7.5726E-01
703.96	7.4928E-01
704.28	7.6131E-01
704.60	7.7050E-01
704.91	7.7218E-01
705.23	7.7402E-01
705.55	7.8198E-01
705.87	7.7727E-01
706.19	7.7969E-01
706.51	7.8470E-01
706.83	7.8774E-01
707.15	8.0972E-01
707.47	7.9249E-01
707.79	8.0723E-01
708.11	8.0878E-01
708.43	8.1197E-01
708.74	8.1973E-01
709.06	8.3071E-01
709.38	8.2580E-01
709.70	8.2084E-01
710.02	8.3205E-01
710.34	8.2908E-01
710.66	8.5021E-01
710.98	8.4495E-01
711.29	8.4482E-01
711.61	8.6038E-01
711.93	8.6536E-01
712.25	8.5738E-01
712.57	8.6910E-01
712.89	8.7312E-01
713.20	8.7353E-01
713.52	8.8206E-01
713.84	8.9093E-01
714.16	8.8271E-01
714.48	8.8561E-01
714.80	9.0060E-01
715.11	8.9826E-01
715.43	9.1071E-01
715.75	9.1634E-01
716.07	9.2656E-01
716.39	9.0947E-01
716.70	9.1978E-01
717.02	9.1576E-01
717.34	9.4283E-01
717.66	9.3271E-01
717.97	9.4450E-01
718.29	9.5029E-01
718.61	9.6150E-01
718.93	9.6065E-01
719.24	9.6521E-01
719.56	9.8649E-01
719.88	9.7694E-01
720.20	9.8916E-01
720.51	1.0019E00
720.83	9.9749E-01
721.15	1.0177E00
721.46	1.0145E00
721.78	1.0211E00
722.10	1.0359E00
722.42	1.0452E00
722.73	1.0517E00
723.05	1.0388E00
723.37	1.0535E00
723.68	1.0634E00
724.00	1.0637E00
724.32	1.0835E00
724.63	1.0802E00
724.95	1.0746E00
725.27	1.0855E00
725.58	1.0923E00
725.90	1.0928E00
726.22	1.1094E00
726.53	1.0859E00
726.85	1.1020E00
727.16	1.1249E00
727.48	1.1050E00
727.80	1.1170E00
728.11	1.1228E00
728.43	1.1187E00
728.74	1.1138E00
729.06	1.1359E00
729.38	1.1317E00
729.69	1.1361E00
730.01	1.1437E00
730.32	1.1520E00
730.64	1.1516E00
730.96	1.1393E00
731.27	1.1715E00
731.59	1.1438E00
731.90	1.1581E00
732.22	1.1673E00
732.53	1.1667E00
732.85	1.1810E00
733.16	1.1756E00
733.48	1.1835E00
733.80	1.1766E00
734.11	1.1989E00
734.43	1.1976E00
734.74	1.1945E00
735.06	1.2099E00
735.37	1.2193E00
735.69	1.2047E00
736.00	1.2193E00
736.32	1.2211E00
736.63	1.2288E00
736.95	1.2270E00
737.26	1.2485E00
737.58	1.2489E00
737.89	1.2577E00
738.21	1.2459E00
738.52	1.2522E00
738.83	1.2562E00
739.15	1.2549E00
739.46	1.2737E00
739.78	1.2698E00
740.09	1.2847E00
740.41	1.2782E00
740.72	1.2731E00
741.04	1.2743E00
741.35	1.2769E00
741.66	1.2975E00
741.98	1.2901E00
742.29	1.2973E00
742.61	1.2907E00
742.92	1.2953E00
743.23	1.2965E00
743.55	1.3047E00
743.86	1.2930E00
744.18	1.3023E00
744.49	1.3035E00
744.80	1.3015E00
745.12	1.3027E00
745.43	1.3085E00
745.74	1.3076E00
746.06	1.2971E00
746.37	1.2956E00
746.68	1.3060E00
747.00	1.3041E00
747.31	1.2926E00
747.62	1.2849E00
747.94	1.3063E00
748.25	1.3073E00
748.56	1.3077E00
748.88	1.2882E00
749.19	1.2999E00
749.50	1.3031E00
749.82	1.2939E00
750.13	1.3026E00
750.44	1.3036E00
750.75	1.2876E00
751.07	1.3059E00
751.38	1.3138E00
751.69	1.2887E00
752.01	1.3071E00
752.32	1.3045E00
752.63	1.3063E00
752.94	1.3155E00
753.26	1.3212E00
753.57	1.3073E00
753.88	1.3152E00
754.19	1.3162E00
754.51	1.3201E00
754.82	1.3161E00
755.13	1.3309E00
755.44	1.3291E00
755.75	1.3338E00
756.07	1.3331E00
756.38	1.3485E00
756.69	1.3453E00
757.00	1.3531E00
757.31	1.3704E00
757.63	1.3778E00
757.94	1.3804E00
758.25	1.3956E00
758.56	1.3600E00
758.87	1.4078E00
759.18	1.4109E00
759.50	1.4078E00
759.81	1.4026E00
760.12	1.4125E00
760.43	1.4242E00
760.74	1.4200E00
761.05	1.4467E00
761.36	1.4517E00
761.67	1.4612E00
761.99	1.4714E00
762.30	1.4497E00
762.61	1.4856E00
762.92	1.4818E00
763.23	1.4832E00
763.54	1.4993E00
763.85	1.5228E00
764.16	1.5270E00
764.47	1.5455E00
764.78	1.5572E00
765.10	1.5576E00
765.41	1.5595E00
765.72	1.5685E00
766.03	1.6058E00
766.34	1.6165E00
766.65	1.6274E00
766.96	1.6585E00
767.27	1.6463E00
767.58	1.6474E00
767.89	1.6666E00
768.20	1.6925E00
768.51	1.6920E00
768.82	1.6970E00
769.13	1.7310E00
769.44	1.7520E00
769.75	1.7482E00
770.06	1.7529E00
770.37	1.7505E00
770.68	1.7924E00
770.99	1.8057E00
771.30	1.8161E00
771.61	1.8716E00
771.92	1.8312E00
772.23	1.8548E00
772.54	1.8955E00
772.85	1.8769E00
773.16	1.8964E00
773.47	1.9527E00
773.78	1.9394E00
774.09	1.9703E00
774.39	1.9725E00
774.70	1.9792E00
775.01	2.0195E00
775.32	2.0278E00
775.63	2.0514E00
775.94	2.0727E00
776.25	2.0588E00
776.56	2.0793E00
776.87	2.1329E00
777.18	2.1281E00
777.48	2.1485E00
777.79	2.1689E00
778.10	2.1881E00
778.41	2.2048E00
778.72	2.2293E00
779.03	2.2396E00
779.34	2.2891E00
779.65	2.2892E00
779.95	2.3325E00
780.26	2.3125E00
780.57	2.3524E00
780.88	2.3466E00
781.19	2.3886E00
781.50	2.3932E00
781.80	2.4139E00
782.11	2.4189E00
782.42	2.4778E00
782.73	2.4294E00
783.04	2.5258E00
783.34	2.5237E00
783.65	2.5443E00
783.96	2.5530E00
784.27	2.5680E00
784.57	2.5885E00
784.88	2.6190E00
785.19	2.6311E00
785.50	2.6618E00
785.81	2.6950E00
786.11	2.6576E00
786.42	2.6892E00
786.73	2.7172E00
787.04	2.7518E00
787.34	2.7987E00
787.65	2.8145E00
787.96	2.8768E00
788.26	2.8546E00
788.57	2.9128E00
788.88	2.8777E00
789.19	2.9683E00
789.49	2.9400E00
789.80	2.9943E00
790.11	3.0017E00
790.41	3.0317E00
790.72	3.0617E00
791.03	3.0806E00
791.33	3.1076E00
791.64	3.1778E00
791.95	3.1214E00
792.25	3.2235E00
792.56	3.1920E00
792.87	3.2422E00
793.17	3.2590E00
793.48	3.2733E00
793.79	3.3080E00
794.09	3.3719E00
794.40	3.3199E00
794.70	3.3335E00
795.01	3.3445E00
795.32	3.3913E00
795.62	3.4590E00
795.93	3.4666E00
796.23	3.4743E00
796.54	3.5235E00
796.85	3.5088E00
797.15	3.5549E00
797.46	3.5792E00
797.76	3.6754E00
798.07	3.6578E00
798.37	3.6664E00
798.68	3.7240E00
798.99	3.7223E00
799.29	3.7599E00
799.60	3.8237E00
799.90	3.8255E00
800.21	3.8800E00
800.51	3.9128E00
800.82	3.9051E00
801.12	3.9742E00
801.43	3.9669E00
801.73	4.0485E00
802.04	4.0395E00
802.34	4.0378E00
802.65	4.0832E00
802.95	4.2206E00
803.26	4.1888E00
803.56	4.1175E00
803.87	4.1854E00
804.17	4.2124E00
804.48	4.2051E00
804.78	4.2864E00
805.09	4.3604E00
805.39	4.3336E00
805.70	4.3576E00
806.00	4.4197E00
806.30	4.4168E00
806.61	4.4853E00
806.91	4.5086E00
807.22	4.5538E00
807.52	4.5808E00
807.83	4.5960E00
808.13	4.6531E00
808.43	4.5574E00
808.74	4.6865E00
809.04	4.7299E00
809.35	4.7032E00
809.65	4.8165E00
809.95	4.8426E00
810.26	4.8985E00
810.56	4.9164E00
810.86	4.9841E00
811.17	5.0222E00
811.47	5.0142E00
811.77	5.0147E00
812.08	5.0070E00
812.38	5.1639E00
812.69	5.0580E00
812.99	5.2270E00
813.29	5.2510E00
813.59	5.2998E00
813.90	5.3119E00
814.20	5.3199E00
814.50	5.3940E00
814.81	5.3335E00
815.11	5.4563E00
815.41	5.5917E00
815.72	5.5168E00
816.02	5.5555E00
816.32	5.5740E00
816.62	5.5349E00
816.93	5.6378E00
817.23	5.8094E00
817.53	5.7047E00
817.84	5.8200E00
818.14	5.8190E00
818.44	5.8022E00
818.74	5.9702E00
819.04	6.0820E00
819.35	6.0079E00
819.65	6.0566E00
819.95	6.2118E00
820.25	6.2185E00
820.56	6.2088E00
820.86	6.2854E00
821.16	6.3328E00
821.46	6.3327E00
821.76	6.3671E00
822.07	6.3209E00
822.37	6.4312E00
822.67	6.5435E00
822.97	6.5867E00
823.27	6.5687E00
823.57	6.6697E00
823.88	6.6324E00
824.18	6.7550E00
824.48	6.7344E00
824.78	6.8273E00
825.08	6.7976E00
825.38	6.9055E00
825.69	6.9105E00
825.99	7.0171E00
826.29	7.0473E00
826.59	7.0180E00
826.89	7.1524E00
827.19	6.9658E00
827.49	7.4292E00
827.79	7.3167E00
828.09	7.2495E00
828.39	7.4250E00
828.70	7.4066E00
829.00	7.3936E00
829.30	7.5325E00
829.60	7.6526E00
829.90	7.5420E00
830.20	7.4886E00
830.50	7.8194E00
830.80	7.8622E00
831.10	7.7049E00
831.40	7.9917E00
831.70	7.9007E00
832.00	7.9432E00
832.30	8.1684E00
832.60	8.0545E00
832.90	8.2120E00
833.20	8.3687E00
833.50	8.1753E00
833.80	8.3187E00
834.10	8.4063E00
834.40	8.2569E00
834.70	8.4434E00
835.00	8.4992E00
835.30	8.4612E00
835.60	8.5904E00
835.90	8.6632E00
836.20	8.8819E00
836.50	8.8691E00
836.80	8.8839E00
837.10	8.8246E00
837.40	8.9867E00
837.70	9.0394E00
838.00	9.0373E00
838.30	9.0058E00
838.60	9.3648E00
838.90	9.3564E00
839.19	9.2660E00
839.49	9.6247E00
839.79	9.4999E00
840.09	9.6022E00
840.39	9.4444E00
840.69	9.6308E00
840.99	1.0158E01
841.29	9.9976E00
841.59	1.0019E01
841.88	1.0086E01
842.18	1.0144E01
842.48	1.0395E01
842.78	1.0344E01
843.08	1.0461E01
843.38	1.0308E01
843.68	1.0635E01
843.97	1.0675E01
844.27	1.0711E01
844.57	1.0915E01
844.87	1.0961E01
845.17	1.0853E01
845.47	1.0720E01
845.76	1.1024E01
846.06	1.1224E01
846.36	1.1108E01
846.66	1.1346E01
846.96	1.1290E01
847.25	1.1322E01
847.55	1.1420E01
847.85	1.1706E01
848.15	1.1499E01
848.44	1.1868E01
848.74	1.1584E01
849.04	1.1897E01
849.34	1.1966E01
849.63	1.2224E01
849.93	1.2173E01
850.23	1.2663E01
850.53	1.2141E01
850.82	1.2455E01
851.12	1.2432E01
851.42	1.2290E01
851.71	1.2617E01
852.01	1.2899E01
852.31	1.3117E01
852.61	1.3198E01
852.90	1.3204E01
853.20	1.3334E01
853.50	1.3542E01
853.79	1.3890E01
854.09	1.3378E01
854.39	1.3593E01
854.68	1.4343E01
854.98	1.4143E01
855.28	1.4107E01
855.57	1.4271E01
855.87	1.4309E01
856.17	1.4380E01
856.46	1.4366E01
856.76	1.4498E01
857.05	1.4766E01
857.35	1.4868E01
857.65	1.4695E01
857.94	1.5067E01
858.24	1.5015E01
858.53	1.5406E01
858.83	1.5343E01
859.13	1.5609E01
859.42	1.5461E01
859.72	1.5997E01
860.01	1.6567E01
860.31	1.6146E01
860.60	1.6522E01
860.90	1.6476E01
861.20	1.6732E01
861.49	1.6452E01
861.79	1.7187E01
862.08	1.7228E01
862.38	1.7536E01
862.67	1.7492E01
862.97	1.7620E01
863.26	1.7454E01
863.56	1.8419E01
863.85	1.8284E01
864.15	1.8063E01
864.44	1.8702E01
864.74	1.8490E01
865.03	1.8658E01
865.33	1.8801E01
865.62	1.9258E01
865.92	1.9027E01
866.21	2.0276E01
866.51	2.0134E01
866.80	2.0061E01
867.10	2.0492E01
867.39	2.0146E01
867.69	2.0949E01
867.98	2.0113E01
868.27	2.0785E01
868.57	2.0826E01
868.86	2.2052E01
869.16	2.1735E01
869.45	2.1854E01
869.75	2.1303E01
870.04	2.2191E01
870.33	2.2434E01
870.63	2.2220E01
870.92	2.3293E01
871.22	2.3590E01
871.51	2.3174E01
871.80	2.3475E01
872.10	2.3475E01
>>>>>End Processed Spectral Data<<<<<
