SpectraSuite Data File
++++++++++++++++++++++++++++++++++++
Date: Wed May 13 09:21:50 PDT 2015
User: schluterlab
Dark Spectrum Present: Yes
Reference Spectrum Present: No
Number of Sampled Component Spectra: 1
Spectrometers: USB2E3373
Integration Time (usec): 2200000 (USB2E3373)
Spectra Averaged: 3 (USB2E3373)
Boxcar Smoothing: 0 (USB2E3373)
Correct for Electrical Dark: No (USB2E3373)
Strobe/Lamp Enabled: No (USB2E3373)
Correct for Detector Non-linearity: No (USB2E3373)
Correct for Stray Light: No (USB2E3373)
Number of Pixels in Processed Spectrum: 2048
>>>>>Begin Processed Spectral Data<<<<<
178.53	0.0000E00
178.91	0.0000E00
179.29	0.0000E00
179.67	0.0000E00
180.04	0.0000E00
180.42	0.0000E00
180.80	0.0000E00
181.18	0.0000E00
181.56	0.0000E00
181.94	0.0000E00
182.31	0.0000E00
182.69	0.0000E00
183.07	0.0000E00
183.45	0.0000E00
183.83	0.0000E00
184.20	0.0000E00
184.58	0.0000E00
184.96	0.0000E00
185.34	0.0000E00
185.72	0.0000E00
186.09	0.0000E00
186.47	0.0000E00
186.85	0.0000E00
187.23	0.0000E00
187.61	0.0000E00
187.98	0.0000E00
188.36	0.0000E00
188.74	0.0000E00
189.12	0.0000E00
189.49	0.0000E00
189.87	0.0000E00
190.25	0.0000E00
190.63	0.0000E00
191.00	0.0000E00
191.38	0.0000E00
191.76	0.0000E00
192.14	0.0000E00
192.51	0.0000E00
192.89	0.0000E00
193.27	0.0000E00
193.65	0.0000E00
194.02	0.0000E00
194.40	0.0000E00
194.78	0.0000E00
195.15	0.0000E00
195.53	-0.0000E00
195.91	0.0000E00
196.29	0.0000E00
196.66	0.0000E00
197.04	0.0000E00
197.42	0.0000E00
197.79	0.0000E00
198.17	0.0000E00
198.55	0.0000E00
198.92	0.0000E00
199.30	0.0000E00
199.68	0.0000E00
200.05	0.0000E00
200.43	0.0000E00
200.81	0.0000E00
201.18	0.0000E00
201.56	0.0000E00
201.94	0.0000E00
202.31	-0.0000E00
202.69	0.0000E00
203.07	0.0000E00
203.44	0.0000E00
203.82	0.0000E00
204.19	0.0000E00
204.57	0.0000E00
204.95	0.0000E00
205.32	0.0000E00
205.70	0.0000E00
206.08	0.0000E00
206.45	0.0000E00
206.83	0.0000E00
207.20	0.0000E00
207.58	0.0000E00
207.96	0.0000E00
208.33	0.0000E00
208.71	0.0000E00
209.08	0.0000E00
209.46	0.0000E00
209.84	0.0000E00
210.21	0.0000E00
210.59	0.0000E00
210.96	0.0000E00
211.34	0.0000E00
211.71	0.0000E00
212.09	0.0000E00
212.46	0.0000E00
212.84	0.0000E00
213.22	0.0000E00
213.59	0.0000E00
213.97	0.0000E00
214.34	0.0000E00
214.72	0.0000E00
215.09	0.0000E00
215.47	0.0000E00
215.84	0.0000E00
216.22	0.0000E00
216.59	0.0000E00
216.97	0.0000E00
217.34	0.0000E00
217.72	0.0000E00
218.09	0.0000E00
218.47	0.0000E00
218.84	0.0000E00
219.22	0.0000E00
219.59	0.0000E00
219.97	0.0000E00
220.34	0.0000E00
220.72	0.0000E00
221.09	0.0000E00
221.47	0.0000E00
221.84	0.0000E00
222.22	0.0000E00
222.59	0.0000E00
222.97	0.0000E00
223.34	0.0000E00
223.72	0.0000E00
224.09	0.0000E00
224.46	0.0000E00
224.84	0.0000E00
225.21	0.0000E00
225.59	0.0000E00
225.96	0.0000E00
226.34	0.0000E00
226.71	0.0000E00
227.08	0.0000E00
227.46	0.0000E00
227.83	0.0000E00
228.21	0.0000E00
228.58	0.0000E00
228.95	0.0000E00
229.33	0.0000E00
229.70	0.0000E00
230.08	0.0000E00
230.45	0.0000E00
230.82	0.0000E00
231.20	0.0000E00
231.57	0.0000E00
231.95	0.0000E00
232.32	0.0000E00
232.69	0.0000E00
233.07	0.0000E00
233.44	0.0000E00
233.81	0.0000E00
234.19	0.0000E00
234.56	0.0000E00
234.93	0.0000E00
235.31	0.0000E00
235.68	0.0000E00
236.05	0.0000E00
236.43	0.0000E00
236.80	0.0000E00
237.17	0.0000E00
237.55	0.0000E00
237.92	0.0000E00
238.29	0.0000E00
238.67	0.0000E00
239.04	0.0000E00
239.41	0.0000E00
239.79	0.0000E00
240.16	0.0000E00
240.53	0.0000E00
240.91	0.0000E00
241.28	0.0000E00
241.65	0.0000E00
242.02	0.0000E00
242.40	0.0000E00
242.77	0.0000E00
243.14	0.0000E00
243.51	0.0000E00
243.89	0.0000E00
244.26	0.0000E00
244.63	0.0000E00
245.00	0.0000E00
245.38	0.0000E00
245.75	0.0000E00
246.12	0.0000E00
246.49	0.0000E00
246.87	0.0000E00
247.24	0.0000E00
247.61	0.0000E00
247.98	0.0000E00
248.36	0.0000E00
248.73	0.0000E00
249.10	0.0000E00
249.47	0.0000E00
249.84	0.0000E00
250.22	0.0000E00
250.59	0.0000E00
250.96	0.0000E00
251.33	0.0000E00
251.70	0.0000E00
252.08	0.0000E00
252.45	0.0000E00
252.82	0.0000E00
253.19	0.0000E00
253.56	0.0000E00
253.94	0.0000E00
254.31	0.0000E00
254.68	0.0000E00
255.05	0.0000E00
255.42	0.0000E00
255.79	0.0000E00
256.16	0.0000E00
256.54	0.0000E00
256.91	0.0000E00
257.28	0.0000E00
257.65	0.0000E00
258.02	0.0000E00
258.39	0.0000E00
258.76	0.0000E00
259.14	0.0000E00
259.51	0.0000E00
259.88	0.0000E00
260.25	0.0000E00
260.62	0.0000E00
260.99	0.0000E00
261.36	0.0000E00
261.73	0.0000E00
262.10	0.0000E00
262.47	0.0000E00
262.85	0.0000E00
263.22	0.0000E00
263.59	0.0000E00
263.96	0.0000E00
264.33	0.0000E00
264.70	0.0000E00
265.07	0.0000E00
265.44	0.0000E00
265.81	0.0000E00
266.18	0.0000E00
266.55	0.0000E00
266.92	0.0000E00
267.29	0.0000E00
267.66	0.0000E00
268.03	0.0000E00
268.40	0.0000E00
268.77	0.0000E00
269.14	0.0000E00
269.51	0.0000E00
269.88	0.0000E00
270.25	0.0000E00
270.62	0.0000E00
270.99	0.0000E00
271.36	0.0000E00
271.73	0.0000E00
272.10	0.0000E00
272.47	0.0000E00
272.84	0.0000E00
273.21	0.0000E00
273.58	0.0000E00
273.95	0.0000E00
274.32	0.0000E00
274.69	0.0000E00
275.06	0.0000E00
275.43	0.0000E00
275.80	0.0000E00
276.17	0.0000E00
276.54	0.0000E00
276.91	0.0000E00
277.28	0.0000E00
277.65	0.0000E00
278.02	0.0000E00
278.39	0.0000E00
278.76	0.0000E00
279.13	0.0000E00
279.50	0.0000E00
279.87	0.0000E00
280.23	0.0000E00
280.60	0.0000E00
280.97	0.0000E00
281.34	0.0000E00
281.71	0.0000E00
282.08	0.0000E00
282.45	0.0000E00
282.82	0.0000E00
283.19	0.0000E00
283.56	0.0000E00
283.92	0.0000E00
284.29	0.0000E00
284.66	0.0000E00
285.03	0.0000E00
285.40	0.0000E00
285.77	0.0000E00
286.14	0.0000E00
286.51	0.0000E00
286.87	0.0000E00
287.24	0.0000E00
287.61	0.0000E00
287.98	0.0000E00
288.35	0.0000E00
288.72	0.0000E00
289.08	0.0000E00
289.45	0.0000E00
289.82	0.0000E00
290.19	0.0000E00
290.56	0.0000E00
290.93	0.0000E00
291.29	0.0000E00
291.66	0.0000E00
292.03	0.0000E00
292.40	0.0000E00
292.77	0.0000E00
293.13	0.0000E00
293.50	0.0000E00
293.87	0.0000E00
294.24	0.0000E00
294.60	0.0000E00
294.97	0.0000E00
295.34	0.0000E00
295.71	0.0000E00
296.08	0.0000E00
296.44	0.0000E00
296.81	0.0000E00
297.18	0.0000E00
297.55	0.0000E00
297.91	0.0000E00
298.28	0.0000E00
298.65	0.0000E00
299.02	0.0000E00
299.38	0.0000E00
299.75	0.0000E00
300.12	1.2460E-01
300.48	3.3593E-01
300.85	1.2663E-01
301.22	3.5296E-01
301.59	1.1059E-01
301.95	1.3069E-01
302.32	1.8224E-01
302.69	1.8653E-01
303.05	1.1230E-01
303.42	1.5516E-01
303.79	1.7689E-01
304.15	1.1515E-01
304.52	1.2965E-01
304.89	1.2435E-01
305.25	2.5740E-01
305.62	1.5919E-01
305.99	1.9935E-01
306.35	1.1616E-01
306.72	1.5553E-01
307.09	1.5262E-01
307.45	1.4916E-01
307.82	1.0430E-01
308.19	1.3336E-01
308.55	1.5154E-01
308.92	1.7873E-01
309.29	1.4711E-01
309.65	2.2706E-01
310.02	1.3817E-01
310.38	1.4303E-01
310.75	1.9212E-01
311.12	1.8832E-01
311.48	3.3142E-01
311.85	2.1996E-01
312.22	1.5911E-01
312.58	3.5107E-01
312.95	2.1753E-01
313.31	2.1126E-01
313.68	2.7887E-01
314.05	4.6589E-01
314.41	2.6045E-01
314.78	1.5941E-01
315.14	3.2811E-01
315.51	5.4564E-01
315.87	2.3922E-01
316.24	3.5636E-01
316.61	3.3910E-01
316.97	2.3857E-01
317.34	4.1190E-01
317.70	3.2241E-01
318.07	3.3400E-01
318.43	3.9246E-01
318.80	2.9082E-01
319.16	3.8038E-01
319.53	2.6847E-01
319.89	5.5483E-01
320.26	4.3332E-01
320.62	5.3854E-01
320.99	4.7572E-01
321.35	2.7587E-01
321.72	3.7950E-01
322.08	5.8414E-01
322.45	3.7181E-01
322.81	3.8734E-01
323.18	1.2274E00
323.54	6.4418E-01
323.91	5.0075E-01
324.27	1.0303E00
324.64	8.1858E-01
325.00	6.3169E-01
325.37	1.0735E00
325.73	4.1385E-01
326.10	1.5839E00
326.46	7.5667E-01
326.83	6.6313E-01
327.19	1.4160E00
327.56	5.6107E-01
327.92	8.0089E-01
328.29	6.3211E-01
328.65	8.1066E-01
329.01	9.9894E-01
329.38	6.7525E-01
329.74	6.2397E-01
330.11	9.4753E-01
330.47	6.3115E-01
330.84	8.8011E-01
331.20	8.8635E-01
331.56	8.1047E-01
331.93	9.3288E-01
332.29	8.9375E-01
332.66	6.2009E-01
333.02	7.4823E-01
333.38	1.1278E00
333.75	5.3124E-01
334.11	9.1880E-01
334.48	8.4296E-01
334.84	7.9974E-01
335.20	1.0158E00
335.57	1.8813E00
335.93	1.2439E00
336.29	9.3613E-01
336.66	8.8720E-01
337.02	6.3807E-01
337.38	7.6640E-01
337.75	7.8776E-01
338.11	6.8743E-01
338.47	9.9433E-01
338.84	8.4126E-01
339.20	7.1278E-01
339.56	2.1439E00
339.93	7.2271E-01
340.29	8.5733E-01
340.65	9.4342E-01
341.02	1.6024E00
341.38	1.0693E00
341.74	1.1727E00
342.11	1.1596E00
342.47	1.1942E00
342.83	7.1220E-01
343.20	1.5625E00
343.56	9.5729E-01
343.92	1.3500E00
344.28	8.2251E-01
344.65	1.2738E00
345.01	7.7354E-01
345.37	1.3053E00
345.73	1.2316E00
346.10	1.0528E00
346.46	1.2731E00
346.82	9.8758E-01
347.19	2.2853E00
347.55	9.4414E-01
347.91	9.6130E-01
348.27	1.0740E00
348.63	9.3355E-01
349.00	9.4126E-01
349.36	1.9007E00
349.72	1.1911E00
350.08	1.7394E00
350.45	9.9255E-01
350.81	9.2179E-01
351.17	1.2088E00
351.53	1.3050E00
351.89	1.0648E00
352.26	1.2220E00
352.62	1.0108E00
352.98	1.1762E00
353.34	1.0378E00
353.70	1.3711E00
354.07	1.0060E00
354.43	9.5416E-01
354.79	1.1200E00
355.15	8.9661E-01
355.51	8.5607E-01
355.87	9.6996E-01
356.24	1.0095E00
356.60	9.7660E-01
356.96	1.0584E00
357.32	9.5186E-01
357.68	8.9395E-01
358.04	8.0668E-01
358.40	8.9025E-01
358.77	8.2906E-01
359.13	9.8105E-01
359.49	1.0424E00
359.85	1.0129E00
360.21	7.6281E-01
360.57	9.3099E-01
360.93	9.2512E-01
361.29	9.8022E-01
361.66	8.1386E-01
362.02	7.5065E-01
362.38	9.7874E-01
362.74	8.5129E-01
363.10	8.9807E-01
363.46	1.0452E00
363.82	8.9358E-01
364.18	1.0700E00
364.54	1.0150E00
364.90	9.6701E-01
365.26	9.5061E-01
365.62	1.0857E00
365.98	9.4635E-01
366.35	7.5709E-01
366.71	9.1782E-01
367.07	1.1755E00
367.43	7.4381E-01
367.79	1.0628E00
368.15	9.7467E-01
368.51	1.1554E00
368.87	1.0103E00
369.23	1.0801E00
369.59	8.4890E-01
369.95	9.1966E-01
370.31	8.7710E-01
370.67	1.0373E00
371.03	8.7579E-01
371.39	8.5642E-01
371.75	8.6548E-01
372.11	8.9176E-01
372.47	8.2067E-01
372.83	8.2797E-01
373.19	6.9171E-01
373.55	9.0596E-01
373.91	9.2440E-01
374.27	9.9712E-01
374.63	9.7258E-01
374.99	8.8363E-01
375.35	8.4937E-01
375.71	8.6621E-01
376.07	8.7287E-01
376.42	8.6379E-01
376.78	7.8324E-01
377.14	8.8811E-01
377.50	9.7016E-01
377.86	8.2590E-01
378.22	7.7870E-01
378.58	7.8023E-01
378.94	7.5670E-01
379.30	7.9429E-01
379.66	7.8242E-01
380.02	7.6570E-01
380.38	7.4470E-01
380.74	7.8000E-01
381.09	8.1856E-01
381.45	7.5449E-01
381.81	7.2996E-01
382.17	7.6906E-01
382.53	7.9949E-01
382.89	7.1668E-01
383.25	7.5335E-01
383.61	7.4463E-01
383.97	7.2266E-01
384.32	7.2103E-01
384.68	6.8805E-01
385.04	7.6409E-01
385.40	7.8686E-01
385.76	7.8370E-01
386.12	7.3764E-01
386.48	7.4926E-01
386.83	6.9858E-01
387.19	6.9735E-01
387.55	7.7977E-01
387.91	7.5372E-01
388.27	7.0516E-01
388.62	7.9239E-01
388.98	7.1879E-01
389.34	7.9697E-01
389.70	7.2371E-01
390.06	7.4688E-01
390.42	7.5358E-01
390.77	7.3453E-01
391.13	7.4945E-01
391.49	7.3627E-01
391.85	7.7596E-01
392.20	6.8603E-01
392.56	6.9474E-01
392.92	7.0495E-01
393.28	7.0748E-01
393.64	7.3919E-01
393.99	7.5308E-01
394.35	7.4085E-01
394.71	7.3280E-01
395.07	7.1734E-01
395.42	7.1977E-01
395.78	7.3303E-01
396.14	6.6241E-01
396.50	6.6455E-01
396.85	7.3029E-01
397.21	7.0340E-01
397.57	7.2263E-01
397.92	6.7582E-01
398.28	6.5447E-01
398.64	7.7755E-01
399.00	6.2678E-01
399.35	6.5243E-01
399.71	6.9952E-01
400.07	6.8290E-01
400.42	6.6694E-01
400.78	6.8356E-01
401.14	6.8714E-01
401.49	6.3673E-01
401.85	6.3249E-01
402.21	6.4223E-01
402.57	6.3803E-01
402.92	6.7372E-01
403.28	6.4052E-01
403.63	6.3721E-01
403.99	6.5153E-01
404.35	6.3312E-01
404.70	6.2157E-01
405.06	6.3105E-01
405.42	6.4556E-01
405.77	6.0037E-01
406.13	5.9957E-01
406.49	5.9546E-01
406.84	6.0256E-01
407.20	5.8753E-01
407.55	6.3470E-01
407.91	6.4661E-01
408.27	6.0551E-01
408.62	6.0902E-01
408.98	6.1668E-01
409.34	6.2690E-01
409.69	6.0002E-01
410.05	6.3230E-01
410.40	6.0386E-01
410.76	5.5820E-01
411.11	5.6380E-01
411.47	6.1133E-01
411.83	5.7928E-01
412.18	5.8983E-01
412.54	5.7827E-01
412.89	5.7500E-01
413.25	5.9614E-01
413.60	6.2247E-01
413.96	5.8400E-01
414.31	5.8722E-01
414.67	6.2032E-01
415.03	6.0814E-01
415.38	6.2273E-01
415.74	6.1522E-01
416.09	6.1137E-01
416.45	6.1914E-01
416.80	6.0780E-01
417.16	6.0250E-01
417.51	5.9927E-01
417.87	5.7692E-01
418.22	5.7008E-01
418.58	5.8270E-01
418.93	5.5733E-01
419.29	5.9742E-01
419.64	5.8011E-01
420.00	5.4849E-01
420.35	5.3838E-01
420.71	5.6553E-01
421.06	5.6748E-01
421.42	5.8185E-01
421.77	5.7317E-01
422.12	5.7218E-01
422.48	5.4174E-01
422.83	5.7931E-01
423.19	5.4766E-01
423.54	5.4799E-01
423.90	5.5443E-01
424.25	5.2376E-01
424.61	5.7760E-01
424.96	5.4048E-01
425.31	5.3727E-01
425.67	5.1475E-01
426.02	5.3781E-01
426.38	5.3748E-01
426.73	5.0909E-01
427.09	5.3309E-01
427.44	5.1041E-01
427.79	5.1610E-01
428.15	5.3211E-01
428.50	5.2875E-01
428.85	5.4145E-01
429.21	5.0007E-01
429.56	4.8885E-01
429.92	4.9837E-01
430.27	5.1526E-01
430.62	5.1461E-01
430.98	5.2104E-01
431.33	5.0907E-01
431.68	4.9258E-01
432.04	4.8837E-01
432.39	4.9547E-01
432.74	5.1298E-01
433.10	4.8100E-01
433.45	5.0950E-01
433.80	5.0648E-01
434.16	5.1757E-01
434.51	4.9254E-01
434.86	5.1304E-01
435.22	4.9460E-01
435.57	5.2829E-01
435.92	5.1783E-01
436.28	5.1557E-01
436.63	4.7840E-01
436.98	5.1149E-01
437.34	5.0790E-01
437.69	4.8265E-01
438.04	4.6995E-01
438.39	5.0267E-01
438.75	5.1455E-01
439.10	4.6491E-01
439.45	5.0459E-01
439.81	4.9883E-01
440.16	4.6934E-01
440.51	4.9033E-01
440.86	4.8834E-01
441.22	4.7763E-01
441.57	4.8209E-01
441.92	4.6821E-01
442.27	4.9166E-01
442.63	4.8120E-01
442.98	5.1397E-01
443.33	5.0240E-01
443.68	4.6739E-01
444.03	4.4137E-01
444.39	4.4343E-01
444.74	4.8130E-01
445.09	4.8834E-01
445.44	4.8893E-01
445.79	4.3196E-01
446.15	4.6385E-01
446.50	4.7993E-01
446.85	4.5137E-01
447.20	4.3909E-01
447.55	4.7466E-01
447.91	4.5629E-01
448.26	4.6865E-01
448.61	4.6380E-01
448.96	4.5485E-01
449.31	4.6165E-01
449.66	4.6588E-01
450.02	4.5832E-01
450.37	4.5906E-01
450.72	4.5303E-01
451.07	4.8843E-01
451.42	4.8540E-01
451.77	4.5837E-01
452.12	4.5823E-01
452.47	4.7911E-01
452.83	4.4061E-01
453.18	4.6635E-01
453.53	4.6112E-01
453.88	4.3406E-01
454.23	4.2846E-01
454.58	4.2873E-01
454.93	4.5963E-01
455.28	4.5704E-01
455.63	4.4367E-01
455.98	4.3365E-01
456.34	4.5747E-01
456.69	4.4316E-01
457.04	4.4660E-01
457.39	4.1893E-01
457.74	4.2773E-01
458.09	4.1652E-01
458.44	4.1576E-01
458.79	4.0700E-01
459.14	4.2071E-01
459.49	4.3765E-01
459.84	4.1344E-01
460.19	4.3937E-01
460.54	4.3661E-01
460.89	4.0270E-01
461.24	4.4072E-01
461.59	4.2170E-01
461.94	4.2743E-01
462.29	3.9952E-01
462.64	4.2262E-01
462.99	4.2704E-01
463.34	4.5139E-01
463.69	4.2305E-01
464.04	3.9464E-01
464.39	4.1005E-01
464.74	4.1551E-01
465.09	4.2689E-01
465.44	4.0195E-01
465.79	4.1450E-01
466.14	4.1659E-01
466.49	4.0968E-01
466.84	4.0577E-01
467.19	4.1989E-01
467.54	4.2110E-01
467.89	4.0119E-01
468.24	3.8023E-01
468.59	3.9253E-01
468.94	3.8453E-01
469.29	3.8685E-01
469.64	3.9964E-01
469.99	3.8482E-01
470.34	3.7309E-01
470.68	3.9699E-01
471.03	3.8288E-01
471.38	3.8395E-01
471.73	3.6604E-01
472.08	3.6124E-01
472.43	3.4866E-01
472.78	3.6819E-01
473.13	3.6391E-01
473.48	3.5814E-01
473.83	3.5133E-01
474.17	3.5653E-01
474.52	3.5291E-01
474.87	3.3848E-01
475.22	3.4567E-01
475.57	3.2881E-01
475.92	3.2039E-01
476.27	3.3017E-01
476.61	3.2152E-01
476.96	3.1330E-01
477.31	3.0340E-01
477.66	3.0933E-01
478.01	3.0725E-01
478.36	3.0554E-01
478.70	3.0135E-01
479.05	3.0611E-01
479.40	2.9198E-01
479.75	2.8872E-01
480.10	2.9056E-01
480.45	2.8381E-01
480.79	2.8258E-01
481.14	2.8658E-01
481.49	2.7980E-01
481.84	2.7434E-01
482.19	2.7262E-01
482.53	2.7196E-01
482.88	2.6976E-01
483.23	2.6505E-01
483.58	2.5972E-01
483.92	2.6617E-01
484.27	2.5791E-01
484.62	2.5636E-01
484.97	2.5090E-01
485.31	2.4937E-01
485.66	2.5481E-01
486.01	2.5466E-01
486.36	2.4231E-01
486.70	2.4919E-01
487.05	2.4772E-01
487.40	2.4779E-01
487.75	2.4044E-01
488.09	2.4105E-01
488.44	2.4315E-01
488.79	2.3925E-01
489.13	2.3666E-01
489.48	2.3971E-01
489.83	2.3998E-01
490.17	2.3385E-01
490.52	2.3372E-01
490.87	2.3475E-01
491.22	2.3792E-01
491.56	2.3458E-01
491.91	2.3783E-01
492.26	2.3503E-01
492.60	2.3483E-01
492.95	2.3692E-01
493.30	2.3646E-01
493.64	2.3378E-01
493.99	2.3490E-01
494.34	2.3208E-01
494.68	2.2965E-01
495.03	2.3534E-01
495.37	2.3334E-01
495.72	2.3543E-01
496.07	2.3028E-01
496.41	2.3189E-01
496.76	2.3050E-01
497.11	2.3278E-01
497.45	2.3191E-01
497.80	2.3210E-01
498.14	2.3184E-01
498.49	2.3236E-01
498.84	2.3301E-01
499.18	2.3250E-01
499.53	2.3227E-01
499.87	2.3027E-01
500.22	2.3296E-01
500.56	2.3251E-01
500.91	2.3207E-01
501.26	2.3190E-01
501.60	2.3138E-01
501.95	2.2956E-01
502.29	2.3251E-01
502.64	2.2831E-01
502.98	2.3184E-01
503.33	2.2992E-01
503.67	2.3070E-01
504.02	2.3009E-01
504.36	2.2954E-01
504.71	2.3031E-01
505.06	2.2817E-01
505.40	2.2826E-01
505.75	2.2951E-01
506.09	2.2969E-01
506.44	2.2945E-01
506.78	2.2731E-01
507.13	2.2848E-01
507.47	2.2673E-01
507.82	2.2662E-01
508.16	2.2885E-01
508.51	2.2683E-01
508.85	2.2417E-01
509.19	2.2695E-01
509.54	2.2648E-01
509.88	2.2668E-01
510.23	2.2341E-01
510.57	2.2442E-01
510.92	2.2377E-01
511.26	2.2404E-01
511.61	2.2385E-01
511.95	2.2404E-01
512.30	2.2277E-01
512.64	2.2446E-01
512.98	2.2052E-01
513.33	2.2225E-01
513.67	2.2277E-01
514.02	2.2201E-01
514.36	2.1982E-01
514.70	2.2137E-01
515.05	2.1879E-01
515.39	2.2053E-01
515.74	2.1833E-01
516.08	2.1725E-01
516.42	2.1917E-01
516.77	2.1970E-01
517.11	2.1974E-01
517.46	2.2095E-01
517.80	2.1766E-01
518.14	2.1906E-01
518.49	2.1718E-01
518.83	2.1794E-01
519.17	2.1791E-01
519.52	2.1842E-01
519.86	2.1729E-01
520.20	2.1630E-01
520.55	2.1702E-01
520.89	2.1567E-01
521.23	2.1806E-01
521.58	2.1738E-01
521.92	2.1910E-01
522.26	2.2036E-01
522.61	2.1678E-01
522.95	2.1846E-01
523.29	2.1530E-01
523.64	2.1535E-01
523.98	2.1647E-01
524.32	2.1719E-01
524.66	2.1909E-01
525.01	2.1892E-01
525.35	2.1989E-01
525.69	2.2047E-01
526.04	2.1982E-01
526.38	2.1636E-01
526.72	2.2093E-01
527.06	2.1938E-01
527.41	2.2139E-01
527.75	2.2325E-01
528.09	2.2160E-01
528.43	2.2486E-01
528.78	2.2243E-01
529.12	2.2467E-01
529.46	2.2627E-01
529.80	2.2573E-01
530.15	2.2624E-01
530.49	2.2618E-01
530.83	2.2727E-01
531.17	2.2737E-01
531.51	2.2650E-01
531.86	2.2861E-01
532.20	2.2957E-01
532.54	2.2906E-01
532.88	2.3091E-01
533.22	2.3275E-01
533.57	2.3370E-01
533.91	2.3317E-01
534.25	2.3511E-01
534.59	2.3383E-01
534.93	2.3602E-01
535.27	2.3485E-01
535.62	2.3932E-01
535.96	2.3823E-01
536.30	2.3886E-01
536.64	2.3908E-01
536.98	2.4127E-01
537.32	2.4055E-01
537.66	2.4041E-01
538.01	2.4294E-01
538.35	2.4492E-01
538.69	2.4197E-01
539.03	2.4798E-01
539.37	2.4525E-01
539.71	2.4729E-01
540.05	2.4786E-01
540.39	2.4852E-01
540.73	2.4758E-01
541.07	2.4818E-01
541.42	2.4889E-01
541.76	2.4907E-01
542.10	2.5047E-01
542.44	2.5128E-01
542.78	2.5132E-01
543.12	2.5096E-01
543.46	2.5638E-01
543.80	2.5306E-01
544.14	2.5330E-01
544.48	2.5212E-01
544.82	2.5492E-01
545.16	2.5419E-01
545.50	2.5341E-01
545.84	2.5633E-01
546.18	2.5444E-01
546.52	2.5755E-01
546.86	2.5523E-01
547.20	2.5875E-01
547.54	2.6177E-01
547.88	2.5741E-01
548.22	2.5771E-01
548.56	2.5925E-01
548.90	2.5759E-01
549.24	2.5978E-01
549.58	2.6052E-01
549.92	2.5861E-01
550.26	2.6287E-01
550.60	2.5931E-01
550.94	2.5788E-01
551.28	2.6163E-01
551.62	2.5965E-01
551.96	2.6206E-01
552.30	2.6335E-01
552.64	2.6244E-01
552.98	2.6219E-01
553.32	2.6279E-01
553.66	2.6142E-01
554.00	2.6229E-01
554.34	2.6276E-01
554.68	2.6387E-01
555.02	2.6417E-01
555.36	2.6535E-01
555.69	2.6413E-01
556.03	2.6393E-01
556.37	2.6518E-01
556.71	2.6284E-01
557.05	2.6253E-01
557.39	2.6312E-01
557.73	2.6365E-01
558.07	2.6540E-01
558.41	2.6427E-01
558.75	2.6478E-01
559.08	2.6487E-01
559.42	2.6246E-01
559.76	2.6653E-01
560.10	2.6622E-01
560.44	2.6606E-01
560.78	2.6344E-01
561.12	2.6522E-01
561.45	2.6480E-01
561.79	2.6595E-01
562.13	2.6581E-01
562.47	2.6618E-01
562.81	2.6645E-01
563.15	2.6622E-01
563.48	2.6666E-01
563.82	2.6350E-01
564.16	2.6572E-01
564.50	2.6618E-01
564.84	2.6678E-01
565.17	2.6678E-01
565.51	2.6598E-01
565.85	2.6814E-01
566.19	2.6517E-01
566.52	2.6854E-01
566.86	2.6552E-01
567.20	2.6823E-01
567.54	2.6710E-01
567.88	2.6772E-01
568.21	2.6777E-01
568.55	2.6903E-01
568.89	2.6905E-01
569.23	2.6887E-01
569.56	2.6838E-01
569.90	2.6937E-01
570.24	2.7120E-01
570.57	2.7109E-01
570.91	2.7176E-01
571.25	2.6794E-01
571.59	2.7108E-01
571.92	2.7085E-01
572.26	2.7203E-01
572.60	2.7427E-01
572.93	2.7285E-01
573.27	2.7543E-01
573.61	2.7611E-01
573.95	2.7169E-01
574.28	2.7616E-01
574.62	2.7644E-01
574.96	2.7665E-01
575.29	2.7601E-01
575.63	2.8028E-01
575.97	2.7950E-01
576.30	2.8596E-01
576.64	2.8229E-01
576.98	2.8174E-01
577.31	2.8345E-01
577.65	2.8641E-01
577.98	2.8431E-01
578.32	2.8663E-01
578.66	2.8824E-01
578.99	2.8872E-01
579.33	2.8967E-01
579.67	2.8787E-01
580.00	2.9147E-01
580.34	2.9079E-01
580.67	2.9240E-01
581.01	2.9488E-01
581.35	2.9587E-01
581.68	2.9717E-01
582.02	2.9606E-01
582.35	2.9835E-01
582.69	2.9814E-01
583.02	3.0262E-01
583.36	2.9991E-01
583.70	2.9944E-01
584.03	3.0167E-01
584.37	2.9986E-01
584.70	3.0602E-01
585.04	3.0571E-01
585.37	3.0438E-01
585.71	3.0909E-01
586.04	3.0854E-01
586.38	3.0579E-01
586.72	3.0996E-01
587.05	3.1148E-01
587.39	3.1253E-01
587.72	3.1087E-01
588.06	3.1357E-01
588.39	3.1330E-01
588.73	3.1645E-01
589.06	3.1426E-01
589.40	3.1881E-01
589.73	3.2054E-01
590.07	3.2122E-01
590.40	3.2159E-01
590.73	3.2539E-01
591.07	3.2168E-01
591.40	3.2874E-01
591.74	3.2137E-01
592.07	3.2600E-01
592.41	3.2729E-01
592.74	3.2832E-01
593.08	3.2621E-01
593.41	3.2870E-01
593.75	3.2622E-01
594.08	3.3095E-01
594.41	3.2986E-01
594.75	3.3097E-01
595.08	3.3044E-01
595.42	3.2670E-01
595.75	3.3213E-01
596.09	3.3205E-01
596.42	3.3037E-01
596.75	3.3452E-01
597.09	3.3603E-01
597.42	3.3299E-01
597.75	3.3687E-01
598.09	3.3775E-01
598.42	3.3493E-01
598.76	3.3669E-01
599.09	3.4168E-01
599.42	3.4163E-01
599.76	3.3984E-01
600.09	3.3870E-01
600.42	3.4389E-01
600.76	3.3681E-01
601.09	3.4125E-01
601.42	3.4483E-01
601.76	3.4061E-01
602.09	3.3996E-01
602.42	3.4205E-01
602.76	3.4112E-01
603.09	3.3991E-01
603.42	3.4615E-01
603.76	3.4253E-01
604.09	3.4275E-01
604.42	3.4536E-01
604.76	3.4250E-01
605.09	3.4761E-01
605.42	3.4429E-01
605.75	3.4569E-01
606.09	3.4448E-01
606.42	3.4562E-01
606.75	3.4699E-01
607.09	3.4742E-01
607.42	3.4775E-01
607.75	3.4813E-01
608.08	3.4757E-01
608.42	3.5038E-01
608.75	3.4659E-01
609.08	3.5080E-01
609.41	3.5009E-01
609.75	3.4819E-01
610.08	3.4995E-01
610.41	3.5212E-01
610.74	3.5134E-01
611.07	3.5165E-01
611.41	3.5077E-01
611.74	3.5195E-01
612.07	3.5378E-01
612.40	3.4902E-01
612.73	3.5252E-01
613.07	3.5463E-01
613.40	3.5050E-01
613.73	3.4935E-01
614.06	3.5287E-01
614.39	3.5360E-01
614.72	3.5477E-01
615.06	3.5475E-01
615.39	3.5931E-01
615.72	3.5329E-01
616.05	3.5700E-01
616.38	3.5758E-01
616.71	3.5807E-01
617.05	3.5614E-01
617.38	3.5824E-01
617.71	3.5602E-01
618.04	3.5795E-01
618.37	3.5566E-01
618.70	3.5662E-01
619.03	3.5821E-01
619.36	3.5304E-01
619.69	3.6021E-01
620.03	3.5625E-01
620.36	3.5728E-01
620.69	3.5491E-01
621.02	3.5798E-01
621.35	3.5721E-01
621.68	3.5419E-01
622.01	3.5336E-01
622.34	3.5526E-01
622.67	3.5448E-01
623.00	3.5560E-01
623.33	3.5626E-01
623.66	3.5346E-01
623.99	3.5454E-01
624.32	3.5369E-01
624.65	3.5456E-01
624.99	3.5443E-01
625.32	3.5579E-01
625.65	3.5514E-01
625.98	3.4998E-01
626.31	3.5449E-01
626.64	3.5539E-01
626.97	3.5550E-01
627.30	3.5291E-01
627.63	3.5486E-01
627.96	3.5158E-01
628.29	3.5170E-01
628.62	3.5530E-01
628.95	3.5498E-01
629.28	3.4922E-01
629.61	3.5999E-01
629.94	3.5507E-01
630.26	3.5567E-01
630.59	3.5823E-01
630.92	3.5571E-01
631.25	3.5741E-01
631.58	3.6123E-01
631.91	3.5596E-01
632.24	3.6378E-01
632.57	3.6007E-01
632.90	3.6082E-01
633.23	3.6143E-01
633.56	3.6324E-01
633.89	3.6389E-01
634.22	3.6502E-01
634.55	3.6626E-01
634.88	3.7020E-01
635.20	3.6939E-01
635.53	3.7177E-01
635.86	3.7230E-01
636.19	3.7671E-01
636.52	3.7769E-01
636.85	3.7489E-01
637.18	3.7922E-01
637.51	3.7611E-01
637.83	3.8017E-01
638.16	3.7669E-01
638.49	3.8756E-01
638.82	3.8620E-01
639.15	3.8906E-01
639.48	3.9198E-01
639.81	3.9373E-01
640.13	3.9023E-01
640.46	3.9586E-01
640.79	3.9610E-01
641.12	3.9975E-01
641.45	3.9910E-01
641.77	3.9643E-01
642.10	4.0535E-01
642.43	4.0626E-01
642.76	4.0849E-01
643.09	4.0599E-01
643.41	4.0921E-01
643.74	4.0974E-01
644.07	4.0934E-01
644.40	4.1316E-01
644.73	4.1760E-01
645.05	4.1887E-01
645.38	4.2195E-01
645.71	4.2285E-01
646.04	4.2324E-01
646.36	4.2226E-01
646.69	4.2915E-01
647.02	4.2861E-01
647.35	4.2621E-01
647.67	4.3198E-01
648.00	4.3024E-01
648.33	4.3616E-01
648.66	4.3334E-01
648.98	4.3971E-01
649.31	4.3837E-01
649.64	4.4006E-01
649.96	4.4470E-01
650.29	4.4694E-01
650.62	4.4699E-01
650.94	4.4654E-01
651.27	4.4617E-01
651.60	4.4735E-01
651.92	4.5493E-01
652.25	4.5574E-01
652.58	4.5532E-01
652.90	4.5751E-01
653.23	4.5760E-01
653.56	4.5883E-01
653.88	4.6064E-01
654.21	4.6118E-01
654.54	4.6279E-01
654.86	4.6918E-01
655.19	4.6284E-01
655.52	4.7064E-01
655.84	4.6939E-01
656.17	4.7203E-01
656.49	4.7745E-01
656.82	4.7149E-01
657.15	4.7700E-01
657.47	4.7721E-01
657.80	4.7742E-01
658.13	4.7879E-01
658.45	4.8213E-01
658.78	4.8061E-01
659.10	4.8703E-01
659.43	4.8597E-01
659.75	4.8494E-01
660.08	4.8334E-01
660.41	4.8915E-01
660.73	4.9007E-01
661.06	4.9392E-01
661.38	4.9206E-01
661.71	4.9352E-01
662.03	4.9364E-01
662.36	5.0048E-01
662.68	4.9882E-01
663.01	4.9284E-01
663.33	4.9751E-01
663.66	5.0115E-01
663.98	4.9820E-01
664.31	4.9841E-01
664.63	5.0887E-01
664.96	5.0569E-01
665.28	5.0934E-01
665.61	5.0825E-01
665.93	5.0919E-01
666.26	5.1191E-01
666.58	5.1215E-01
666.91	5.0881E-01
667.23	5.1482E-01
667.56	5.0821E-01
667.88	5.1682E-01
668.21	5.1590E-01
668.53	5.1436E-01
668.86	5.2400E-01
669.18	5.1628E-01
669.50	5.2774E-01
669.83	5.2654E-01
670.15	5.2747E-01
670.48	5.2656E-01
670.80	5.2467E-01
671.13	5.2227E-01
671.45	5.2789E-01
671.77	5.3143E-01
672.10	5.2769E-01
672.42	5.3521E-01
672.75	5.3225E-01
673.07	5.3647E-01
673.39	5.3181E-01
673.72	5.3525E-01
674.04	5.3896E-01
674.37	5.4303E-01
674.69	5.3966E-01
675.01	5.4368E-01
675.34	5.4500E-01
675.66	5.4637E-01
675.98	5.4117E-01
676.31	5.4956E-01
676.63	5.5102E-01
676.95	5.4871E-01
677.28	5.5210E-01
677.60	5.5272E-01
677.92	5.5041E-01
678.25	5.5682E-01
678.57	5.5752E-01
678.89	5.5596E-01
679.22	5.6475E-01
679.54	5.6197E-01
679.86	5.6231E-01
680.18	5.6353E-01
680.51	5.6591E-01
680.83	5.7115E-01
681.15	5.6545E-01
681.48	5.6977E-01
681.80	5.7310E-01
682.12	5.6975E-01
682.44	5.7920E-01
682.77	5.7916E-01
683.09	5.8250E-01
683.41	5.7967E-01
683.73	5.8573E-01
684.06	5.8489E-01
684.38	5.8691E-01
684.70	5.8426E-01
685.02	5.9127E-01
685.34	5.9701E-01
685.67	5.9207E-01
685.99	5.9967E-01
686.31	5.9502E-01
686.63	6.0502E-01
686.96	6.0136E-01
687.28	6.0871E-01
687.60	6.0022E-01
687.92	6.0711E-01
688.24	6.1331E-01
688.56	6.1417E-01
688.89	6.1640E-01
689.21	6.1309E-01
689.53	6.1708E-01
689.85	6.2560E-01
690.17	6.2138E-01
690.49	6.3143E-01
690.82	6.3066E-01
691.14	6.3057E-01
691.46	6.3405E-01
691.78	6.3788E-01
692.10	6.3164E-01
692.42	6.3847E-01
692.74	6.4348E-01
693.06	6.4398E-01
693.39	6.5564E-01
693.71	6.5686E-01
694.03	6.5662E-01
694.35	6.5898E-01
694.67	6.6025E-01
694.99	6.6713E-01
695.31	6.6967E-01
695.63	6.6877E-01
695.95	6.7446E-01
696.27	6.7187E-01
696.59	6.7794E-01
696.91	6.8702E-01
697.23	6.8685E-01
697.56	6.8446E-01
697.88	6.9230E-01
698.20	6.9084E-01
698.52	6.9775E-01
698.84	7.0375E-01
699.16	7.0861E-01
699.48	7.0132E-01
699.80	7.1098E-01
700.12	7.1733E-01
700.44	7.1830E-01
700.76	7.2005E-01
701.08	7.2487E-01
701.40	7.2777E-01
701.72	7.3524E-01
702.04	7.3454E-01
702.36	7.4154E-01
702.68	7.4421E-01
703.00	7.4985E-01
703.32	7.5330E-01
703.64	7.5441E-01
703.96	7.4666E-01
704.28	7.5839E-01
704.60	7.6747E-01
704.91	7.6895E-01
705.23	7.7045E-01
705.55	7.7911E-01
705.87	7.7449E-01
706.19	7.7610E-01
706.51	7.8236E-01
706.83	7.8559E-01
707.15	8.0655E-01
707.47	7.8911E-01
707.79	8.0434E-01
708.11	8.0567E-01
708.43	8.0871E-01
708.74	8.1651E-01
709.06	8.2844E-01
709.38	8.2284E-01
709.70	8.1803E-01
710.02	8.2900E-01
710.34	8.2596E-01
710.66	8.4716E-01
710.98	8.4256E-01
711.29	8.4251E-01
711.61	8.5692E-01
711.93	8.6181E-01
712.25	8.5423E-01
712.57	8.6636E-01
712.89	8.6932E-01
713.20	8.7009E-01
713.52	8.7942E-01
713.84	8.8659E-01
714.16	8.7992E-01
714.48	8.8228E-01
714.80	8.9698E-01
715.11	8.9450E-01
715.43	9.0721E-01
715.75	9.1289E-01
716.07	9.2300E-01
716.39	9.0598E-01
716.70	9.1664E-01
717.02	9.1240E-01
717.34	9.3929E-01
717.66	9.2984E-01
717.97	9.4111E-01
718.29	9.4672E-01
718.61	9.5788E-01
718.93	9.5803E-01
719.24	9.6109E-01
719.56	9.8245E-01
719.88	9.7335E-01
720.20	9.8561E-01
720.51	9.9823E-01
720.83	9.9408E-01
721.15	1.0142E00
721.46	1.0110E00
721.78	1.0173E00
722.10	1.0317E00
722.42	1.0416E00
722.73	1.0478E00
723.05	1.0349E00
723.37	1.0495E00
723.68	1.0598E00
724.00	1.0603E00
724.32	1.0799E00
724.63	1.0758E00
724.95	1.0705E00
725.27	1.0812E00
725.58	1.0879E00
725.90	1.0891E00
726.22	1.1058E00
726.53	1.0826E00
726.85	1.0979E00
727.16	1.1209E00
727.48	1.1007E00
727.80	1.1132E00
728.11	1.1186E00
728.43	1.1145E00
728.74	1.1100E00
729.06	1.1314E00
729.38	1.1273E00
729.69	1.1324E00
730.01	1.1403E00
730.32	1.1478E00
730.64	1.1467E00
730.96	1.1361E00
731.27	1.1663E00
731.59	1.1395E00
731.90	1.1527E00
732.22	1.1627E00
732.53	1.1623E00
732.85	1.1764E00
733.16	1.1715E00
733.48	1.1786E00
733.80	1.1726E00
734.11	1.1941E00
734.43	1.1919E00
734.74	1.1899E00
735.06	1.2056E00
735.37	1.2151E00
735.69	1.2000E00
736.00	1.2141E00
736.32	1.2171E00
736.63	1.2243E00
736.95	1.2225E00
737.26	1.2438E00
737.58	1.2443E00
737.89	1.2527E00
738.21	1.2411E00
738.52	1.2476E00
738.83	1.2513E00
739.15	1.2508E00
739.46	1.2698E00
739.78	1.2652E00
740.09	1.2798E00
740.41	1.2732E00
740.72	1.2687E00
741.04	1.2696E00
741.35	1.2711E00
741.66	1.2929E00
741.98	1.2856E00
742.29	1.2927E00
742.61	1.2860E00
742.92	1.2906E00
743.23	1.2916E00
743.55	1.2988E00
743.86	1.2886E00
744.18	1.2978E00
744.49	1.2979E00
744.80	1.2967E00
745.12	1.2978E00
745.43	1.3035E00
745.74	1.3029E00
746.06	1.2923E00
746.37	1.2913E00
746.68	1.3020E00
747.00	1.2987E00
747.31	1.2879E00
747.62	1.2799E00
747.94	1.3020E00
748.25	1.3018E00
748.56	1.3023E00
748.88	1.2845E00
749.19	1.2951E00
749.50	1.2996E00
749.82	1.2895E00
750.13	1.2970E00
750.44	1.2988E00
750.75	1.2828E00
751.07	1.3004E00
751.38	1.3087E00
751.69	1.2836E00
752.01	1.3019E00
752.32	1.3000E00
752.63	1.3014E00
752.94	1.3099E00
753.26	1.3158E00
753.57	1.3028E00
753.88	1.3110E00
754.19	1.3120E00
754.51	1.3148E00
754.82	1.3098E00
755.13	1.3259E00
755.44	1.3236E00
755.75	1.3283E00
756.07	1.3287E00
756.38	1.3423E00
756.69	1.3398E00
757.00	1.3478E00
757.31	1.3648E00
757.63	1.3719E00
757.94	1.3749E00
758.25	1.3897E00
758.56	1.3549E00
758.87	1.4020E00
759.18	1.4049E00
759.50	1.4029E00
759.81	1.3960E00
760.12	1.4066E00
760.43	1.4176E00
760.74	1.4125E00
761.05	1.4405E00
761.36	1.4450E00
761.67	1.4553E00
761.99	1.4656E00
762.30	1.4431E00
762.61	1.4797E00
762.92	1.4761E00
763.23	1.4770E00
763.54	1.4921E00
763.85	1.5160E00
764.16	1.5203E00
764.47	1.5392E00
764.78	1.5507E00
765.10	1.5502E00
765.41	1.5528E00
765.72	1.5612E00
766.03	1.5986E00
766.34	1.6100E00
766.65	1.6199E00
766.96	1.6517E00
767.27	1.6383E00
767.58	1.6412E00
767.89	1.6597E00
768.20	1.6854E00
768.51	1.6850E00
768.82	1.6894E00
769.13	1.7226E00
769.44	1.7447E00
769.75	1.7412E00
770.06	1.7471E00
770.37	1.7444E00
770.68	1.7844E00
770.99	1.7976E00
771.30	1.8082E00
771.61	1.8643E00
771.92	1.8242E00
772.23	1.8469E00
772.54	1.8875E00
772.85	1.8682E00
773.16	1.8886E00
773.47	1.9454E00
773.78	1.9305E00
774.09	1.9625E00
774.39	1.9639E00
774.70	1.9706E00
775.01	2.0104E00
775.32	2.0195E00
775.63	2.0442E00
775.94	2.0647E00
776.25	2.0515E00
776.56	2.0704E00
776.87	2.1247E00
777.18	2.1189E00
777.48	2.1399E00
777.79	2.1591E00
778.10	2.1791E00
778.41	2.1959E00
778.72	2.2201E00
779.03	2.2315E00
779.34	2.2784E00
779.65	2.2803E00
779.95	2.3215E00
780.26	2.3032E00
780.57	2.3420E00
780.88	2.3345E00
781.19	2.3786E00
781.50	2.3827E00
781.80	2.4019E00
782.11	2.4092E00
782.42	2.4663E00
782.73	2.4188E00
783.04	2.5135E00
783.34	2.5138E00
783.65	2.5354E00
783.96	2.5436E00
784.27	2.5584E00
784.57	2.5790E00
784.88	2.6065E00
785.19	2.6208E00
785.50	2.6512E00
785.81	2.6846E00
786.11	2.6467E00
786.42	2.6777E00
786.73	2.7056E00
787.04	2.7417E00
787.34	2.7886E00
787.65	2.8049E00
787.96	2.8652E00
788.26	2.8441E00
788.57	2.9013E00
788.88	2.8661E00
789.19	2.9563E00
789.49	2.9299E00
789.80	2.9817E00
790.11	2.9917E00
790.41	3.0208E00
790.72	3.0512E00
791.03	3.0666E00
791.33	3.0956E00
791.64	3.1653E00
791.95	3.1086E00
792.25	3.2075E00
792.56	3.1775E00
792.87	3.2273E00
793.17	3.2454E00
793.48	3.2610E00
793.79	3.2930E00
794.09	3.3560E00
794.40	3.3062E00
794.70	3.3202E00
795.01	3.3313E00
795.32	3.3786E00
795.62	3.4448E00
795.93	3.4512E00
796.23	3.4610E00
796.54	3.5072E00
796.85	3.4941E00
797.15	3.5394E00
797.46	3.5652E00
797.76	3.6584E00
798.07	3.6425E00
798.37	3.6498E00
798.68	3.7071E00
798.99	3.7045E00
799.29	3.7445E00
799.60	3.8070E00
799.90	3.8082E00
800.21	3.8628E00
800.51	3.8944E00
800.82	3.8831E00
801.12	3.9579E00
801.43	3.9469E00
801.73	4.0309E00
802.04	4.0205E00
802.34	4.0181E00
802.65	4.0654E00
802.95	4.2012E00
803.26	4.1702E00
803.56	4.0975E00
803.87	4.1669E00
804.17	4.1959E00
804.48	4.1883E00
804.78	4.2700E00
805.09	4.3395E00
805.39	4.3136E00
805.70	4.3368E00
806.00	4.4004E00
806.30	4.3987E00
806.61	4.4631E00
806.91	4.4890E00
807.22	4.5332E00
807.52	4.5605E00
807.83	4.5791E00
808.13	4.6317E00
808.43	4.5407E00
808.74	4.6673E00
809.04	4.7077E00
809.35	4.6819E00
809.65	4.7951E00
809.95	4.8215E00
810.26	4.8763E00
810.56	4.8958E00
810.86	4.9611E00
811.17	5.0003E00
811.47	4.9911E00
811.77	4.9929E00
812.08	4.9839E00
812.38	5.1396E00
812.69	5.0382E00
812.99	5.2065E00
813.29	5.2313E00
813.59	5.2786E00
813.90	5.2992E00
814.20	5.3103E00
814.50	5.3972E00
814.81	5.3485E00
815.11	5.4842E00
815.41	5.6185E00
815.72	5.1721E00
816.02	4.5200E00
816.32	4.2810E00
816.62	4.2353E00
816.93	4.2444E00
817.23	4.3546E00
817.53	4.3175E00
817.84	4.2912E00
818.14	4.2378E00
818.44	4.3095E00
818.74	4.5245E00
819.04	4.4667E00
819.35	4.4534E00
819.65	4.5280E00
819.95	4.5855E00
820.25	4.7122E00
820.56	4.9677E00
820.86	5.2284E00
821.16	5.3863E00
821.46	5.3954E00
821.76	5.4505E00
822.07	5.3498E00
822.37	5.0655E00
822.67	4.9241E00
822.97	4.4835E00
823.27	4.1636E00
823.57	4.1477E00
823.88	4.2971E00
824.18	4.4401E00
824.48	4.5860E00
824.78	4.7167E00
825.08	5.0213E00
825.38	5.1536E00
825.69	5.1317E00
825.99	5.2112E00
826.29	5.2651E00
826.59	5.1850E00
826.89	5.3106E00
827.19	5.3063E00
827.49	5.2533E00
827.79	4.9514E00
828.09	4.7433E00
828.39	4.7673E00
828.70	4.7615E00
829.00	4.7049E00
829.30	4.6386E00
829.60	4.6527E00
829.90	4.6461E00
830.20	4.5106E00
830.50	4.6332E00
830.80	4.6872E00
831.10	4.5479E00
831.40	4.7522E00
831.70	4.6379E00
832.00	4.6137E00
832.30	4.5604E00
832.60	4.5935E00
832.90	4.5688E00
833.20	4.6313E00
833.50	4.5059E00
833.80	4.4980E00
834.10	4.5046E00
834.40	4.5593E00
834.70	4.6937E00
835.00	4.6410E00
835.30	4.6762E00
835.60	4.7104E00
835.90	4.7435E00
836.20	4.8753E00
836.50	4.8832E00
836.80	5.0290E00
837.10	5.2576E00
837.40	5.0435E00
837.70	5.0458E00
838.00	4.9113E00
838.30	4.9453E00
838.60	5.0747E00
838.90	5.0401E00
839.19	5.2668E00
839.49	5.1331E00
839.79	5.1858E00
840.09	5.0805E00
840.39	5.1507E00
840.69	5.2523E00
840.99	5.3739E00
841.29	5.3102E00
841.59	5.1618E00
841.88	5.1533E00
842.18	5.2857E00
842.48	5.2548E00
842.78	5.2480E00
843.08	5.2919E00
843.38	5.2089E00
843.68	5.3299E00
843.97	5.3970E00
844.27	5.3008E00
844.57	5.3193E00
844.87	5.3296E00
845.17	5.3385E00
845.47	5.1869E00
845.76	5.3330E00
846.06	5.4111E00
846.36	5.7591E00
846.66	5.4255E00
846.96	5.4336E00
847.25	5.2898E00
847.55	5.2650E00
847.85	5.4297E00
848.15	5.3001E00
848.44	5.3512E00
848.74	5.1943E00
849.04	5.2557E00
849.34	5.2864E00
849.63	5.3034E00
849.93	5.1395E00
850.23	5.1528E00
850.53	4.9320E00
850.82	5.0055E00
851.12	4.9074E00
851.42	4.9991E00
851.71	5.0487E00
852.01	4.9582E00
852.31	5.1363E00
852.61	5.0434E00
852.90	5.0661E00
853.20	5.1261E00
853.50	5.3931E00
853.79	5.3545E00
854.09	4.9285E00
854.39	4.8424E00
854.68	4.8779E00
854.98	4.6806E00
855.28	4.7063E00
855.57	4.8547E00
855.87	4.7520E00
856.17	4.7983E00
856.46	4.6599E00
856.76	4.7616E00
857.05	4.9624E00
857.35	4.9455E00
857.65	5.1535E00
857.94	5.1881E00
858.24	5.2114E00
858.53	5.1683E00
858.83	5.4731E00
859.13	5.2018E00
859.42	5.1720E00
859.72	5.3131E00
860.01	5.3209E00
860.31	5.1608E00
860.60	5.1971E00
860.90	5.3788E00
861.20	5.2268E00
861.49	5.1349E00
861.79	5.3073E00
862.08	6.1235E00
862.38	5.5206E00
862.67	5.2187E00
862.97	5.2567E00
863.26	5.1879E00
863.56	5.4402E00
863.85	5.5487E00
864.15	5.1075E00
864.44	5.3758E00
864.74	5.2852E00
865.03	5.4525E00
865.33	5.3366E00
865.62	5.2941E00
865.92	5.0883E00
866.21	5.4168E00
866.51	5.2544E00
866.80	5.2511E00
867.10	5.2899E00
867.39	4.9677E00
867.69	5.2387E00
867.98	4.8004E00
868.27	4.8411E00
868.57	4.8117E00
868.86	5.2302E00
869.16	5.0553E00
869.45	5.0189E00
869.75	4.9657E00
870.04	5.0750E00
870.33	5.2675E00
870.63	5.0499E00
870.92	5.3695E00
871.22	6.1447E00
871.51	5.2027E00
871.80	5.3207E00
872.10	5.3207E00
>>>>>End Processed Spectral Data<<<<<
