SpectraSuite Data File
++++++++++++++++++++++++++++++++++++
Date: Wed May 13 09:27:41 PDT 2015
User: schluterlab
Dark Spectrum Present: Yes
Reference Spectrum Present: No
Number of Sampled Component Spectra: 1
Spectrometers: USB2E3373
Integration Time (usec): 2200000 (USB2E3373)
Spectra Averaged: 3 (USB2E3373)
Boxcar Smoothing: 0 (USB2E3373)
Correct for Electrical Dark: No (USB2E3373)
Strobe/Lamp Enabled: No (USB2E3373)
Correct for Detector Non-linearity: No (USB2E3373)
Correct for Stray Light: No (USB2E3373)
Number of Pixels in Processed Spectrum: 2048
>>>>>Begin Processed Spectral Data<<<<<
178.53	0.0000E00
178.91	0.0000E00
179.29	0.0000E00
179.67	0.0000E00
180.04	0.0000E00
180.42	0.0000E00
180.80	0.0000E00
181.18	0.0000E00
181.56	0.0000E00
181.94	0.0000E00
182.31	0.0000E00
182.69	0.0000E00
183.07	0.0000E00
183.45	0.0000E00
183.83	0.0000E00
184.20	0.0000E00
184.58	0.0000E00
184.96	0.0000E00
185.34	0.0000E00
185.72	0.0000E00
186.09	0.0000E00
186.47	0.0000E00
186.85	0.0000E00
187.23	0.0000E00
187.61	0.0000E00
187.98	0.0000E00
188.36	0.0000E00
188.74	0.0000E00
189.12	0.0000E00
189.49	0.0000E00
189.87	0.0000E00
190.25	0.0000E00
190.63	0.0000E00
191.00	0.0000E00
191.38	0.0000E00
191.76	0.0000E00
192.14	0.0000E00
192.51	0.0000E00
192.89	0.0000E00
193.27	0.0000E00
193.65	0.0000E00
194.02	0.0000E00
194.40	0.0000E00
194.78	0.0000E00
195.15	0.0000E00
195.53	-0.0000E00
195.91	0.0000E00
196.29	0.0000E00
196.66	0.0000E00
197.04	0.0000E00
197.42	0.0000E00
197.79	0.0000E00
198.17	0.0000E00
198.55	0.0000E00
198.92	0.0000E00
199.30	0.0000E00
199.68	0.0000E00
200.05	0.0000E00
200.43	0.0000E00
200.81	0.0000E00
201.18	0.0000E00
201.56	0.0000E00
201.94	0.0000E00
202.31	-0.0000E00
202.69	0.0000E00
203.07	0.0000E00
203.44	0.0000E00
203.82	0.0000E00
204.19	0.0000E00
204.57	0.0000E00
204.95	0.0000E00
205.32	0.0000E00
205.70	0.0000E00
206.08	0.0000E00
206.45	0.0000E00
206.83	0.0000E00
207.20	0.0000E00
207.58	0.0000E00
207.96	0.0000E00
208.33	0.0000E00
208.71	0.0000E00
209.08	0.0000E00
209.46	0.0000E00
209.84	0.0000E00
210.21	0.0000E00
210.59	0.0000E00
210.96	0.0000E00
211.34	0.0000E00
211.71	0.0000E00
212.09	0.0000E00
212.46	0.0000E00
212.84	0.0000E00
213.22	0.0000E00
213.59	0.0000E00
213.97	0.0000E00
214.34	0.0000E00
214.72	0.0000E00
215.09	0.0000E00
215.47	0.0000E00
215.84	0.0000E00
216.22	0.0000E00
216.59	0.0000E00
216.97	0.0000E00
217.34	0.0000E00
217.72	0.0000E00
218.09	0.0000E00
218.47	0.0000E00
218.84	0.0000E00
219.22	0.0000E00
219.59	0.0000E00
219.97	0.0000E00
220.34	0.0000E00
220.72	0.0000E00
221.09	0.0000E00
221.47	0.0000E00
221.84	0.0000E00
222.22	0.0000E00
222.59	0.0000E00
222.97	0.0000E00
223.34	0.0000E00
223.72	0.0000E00
224.09	0.0000E00
224.46	0.0000E00
224.84	0.0000E00
225.21	0.0000E00
225.59	0.0000E00
225.96	0.0000E00
226.34	0.0000E00
226.71	0.0000E00
227.08	0.0000E00
227.46	0.0000E00
227.83	0.0000E00
228.21	0.0000E00
228.58	0.0000E00
228.95	0.0000E00
229.33	0.0000E00
229.70	0.0000E00
230.08	0.0000E00
230.45	0.0000E00
230.82	0.0000E00
231.20	0.0000E00
231.57	0.0000E00
231.95	0.0000E00
232.32	0.0000E00
232.69	0.0000E00
233.07	0.0000E00
233.44	0.0000E00
233.81	0.0000E00
234.19	0.0000E00
234.56	0.0000E00
234.93	0.0000E00
235.31	0.0000E00
235.68	0.0000E00
236.05	0.0000E00
236.43	0.0000E00
236.80	0.0000E00
237.17	0.0000E00
237.55	0.0000E00
237.92	0.0000E00
238.29	0.0000E00
238.67	0.0000E00
239.04	0.0000E00
239.41	0.0000E00
239.79	0.0000E00
240.16	0.0000E00
240.53	0.0000E00
240.91	0.0000E00
241.28	0.0000E00
241.65	0.0000E00
242.02	0.0000E00
242.40	0.0000E00
242.77	0.0000E00
243.14	0.0000E00
243.51	0.0000E00
243.89	0.0000E00
244.26	0.0000E00
244.63	0.0000E00
245.00	0.0000E00
245.38	0.0000E00
245.75	0.0000E00
246.12	0.0000E00
246.49	0.0000E00
246.87	0.0000E00
247.24	0.0000E00
247.61	0.0000E00
247.98	0.0000E00
248.36	0.0000E00
248.73	0.0000E00
249.10	0.0000E00
249.47	0.0000E00
249.84	0.0000E00
250.22	0.0000E00
250.59	0.0000E00
250.96	0.0000E00
251.33	0.0000E00
251.70	0.0000E00
252.08	0.0000E00
252.45	0.0000E00
252.82	0.0000E00
253.19	0.0000E00
253.56	0.0000E00
253.94	0.0000E00
254.31	0.0000E00
254.68	0.0000E00
255.05	0.0000E00
255.42	0.0000E00
255.79	0.0000E00
256.16	0.0000E00
256.54	0.0000E00
256.91	0.0000E00
257.28	0.0000E00
257.65	0.0000E00
258.02	0.0000E00
258.39	0.0000E00
258.76	0.0000E00
259.14	0.0000E00
259.51	0.0000E00
259.88	0.0000E00
260.25	0.0000E00
260.62	0.0000E00
260.99	0.0000E00
261.36	0.0000E00
261.73	0.0000E00
262.10	0.0000E00
262.47	0.0000E00
262.85	0.0000E00
263.22	0.0000E00
263.59	0.0000E00
263.96	0.0000E00
264.33	0.0000E00
264.70	0.0000E00
265.07	0.0000E00
265.44	0.0000E00
265.81	0.0000E00
266.18	0.0000E00
266.55	0.0000E00
266.92	0.0000E00
267.29	0.0000E00
267.66	0.0000E00
268.03	0.0000E00
268.40	0.0000E00
268.77	0.0000E00
269.14	0.0000E00
269.51	0.0000E00
269.88	0.0000E00
270.25	0.0000E00
270.62	0.0000E00
270.99	0.0000E00
271.36	0.0000E00
271.73	0.0000E00
272.10	0.0000E00
272.47	0.0000E00
272.84	0.0000E00
273.21	0.0000E00
273.58	0.0000E00
273.95	0.0000E00
274.32	0.0000E00
274.69	0.0000E00
275.06	0.0000E00
275.43	0.0000E00
275.80	0.0000E00
276.17	0.0000E00
276.54	0.0000E00
276.91	0.0000E00
277.28	0.0000E00
277.65	0.0000E00
278.02	0.0000E00
278.39	0.0000E00
278.76	0.0000E00
279.13	0.0000E00
279.50	0.0000E00
279.87	0.0000E00
280.23	0.0000E00
280.60	0.0000E00
280.97	0.0000E00
281.34	0.0000E00
281.71	0.0000E00
282.08	0.0000E00
282.45	0.0000E00
282.82	0.0000E00
283.19	0.0000E00
283.56	0.0000E00
283.92	0.0000E00
284.29	0.0000E00
284.66	0.0000E00
285.03	0.0000E00
285.40	0.0000E00
285.77	0.0000E00
286.14	0.0000E00
286.51	0.0000E00
286.87	0.0000E00
287.24	0.0000E00
287.61	0.0000E00
287.98	0.0000E00
288.35	0.0000E00
288.72	0.0000E00
289.08	0.0000E00
289.45	0.0000E00
289.82	0.0000E00
290.19	0.0000E00
290.56	0.0000E00
290.93	0.0000E00
291.29	0.0000E00
291.66	0.0000E00
292.03	0.0000E00
292.40	0.0000E00
292.77	0.0000E00
293.13	0.0000E00
293.50	0.0000E00
293.87	0.0000E00
294.24	0.0000E00
294.60	0.0000E00
294.97	0.0000E00
295.34	0.0000E00
295.71	0.0000E00
296.08	0.0000E00
296.44	0.0000E00
296.81	0.0000E00
297.18	0.0000E00
297.55	0.0000E00
297.91	0.0000E00
298.28	0.0000E00
298.65	0.0000E00
299.02	0.0000E00
299.38	0.0000E00
299.75	0.0000E00
300.12	1.2614E-01
300.48	3.2437E-01
300.85	1.2969E-01
301.22	3.5400E-01
301.59	1.1191E-01
301.95	1.3319E-01
302.32	1.8969E-01
302.69	1.9556E-01
303.05	1.1854E-01
303.42	1.6332E-01
303.79	1.9425E-01
304.15	1.2554E-01
304.52	1.4153E-01
304.89	1.3344E-01
305.25	2.7798E-01
305.62	1.7792E-01
305.99	2.2188E-01
306.35	1.3042E-01
306.72	1.7907E-01
307.09	1.7114E-01
307.45	1.6900E-01
307.82	1.2313E-01
308.19	1.5806E-01
308.55	1.8163E-01
308.92	2.1548E-01
309.29	1.7778E-01
309.65	2.6114E-01
310.02	1.6657E-01
310.38	1.7812E-01
310.75	2.4295E-01
311.12	2.4240E-01
311.48	4.3216E-01
311.85	2.8921E-01
312.22	2.0380E-01
312.58	4.6087E-01
312.95	2.8115E-01
313.31	2.7997E-01
313.68	3.6708E-01
314.05	6.1320E-01
314.41	3.4780E-01
314.78	2.0992E-01
315.14	4.1151E-01
315.51	7.3107E-01
315.87	3.2052E-01
316.24	4.6926E-01
316.61	4.5230E-01
316.97	3.2282E-01
317.34	5.5769E-01
317.70	4.4264E-01
318.07	4.4836E-01
318.43	5.2847E-01
318.80	4.0045E-01
319.16	5.1623E-01
319.53	3.6970E-01
319.89	7.5905E-01
320.26	5.8967E-01
320.62	7.3795E-01
320.99	6.5035E-01
321.35	3.7743E-01
321.72	5.1187E-01
322.08	7.9926E-01
322.45	4.8892E-01
322.81	5.2872E-01
323.18	1.6542E00
323.54	8.7974E-01
323.91	6.8070E-01
324.27	1.4282E00
324.64	1.1298E00
325.00	8.6562E-01
325.37	1.4992E00
325.73	5.7953E-01
326.10	2.1863E00
326.46	1.0487E00
326.83	9.1555E-01
327.19	1.9653E00
327.56	7.7722E-01
327.92	1.1183E00
328.29	8.6733E-01
328.65	1.1076E00
329.01	1.3700E00
329.38	9.2977E-01
329.74	8.5900E-01
330.11	1.3009E00
330.47	8.6731E-01
330.84	1.2081E00
331.20	1.2093E00
331.56	1.1090E00
331.93	1.2794E00
332.29	1.2032E00
332.66	8.4230E-01
333.02	1.0125E00
333.38	1.5390E00
333.75	7.1783E-01
334.11	1.2044E00
334.48	1.1595E00
334.84	1.0893E00
335.20	1.3563E00
335.57	2.5387E00
335.93	1.6799E00
336.29	1.2699E00
336.66	1.1968E00
337.02	8.4236E-01
337.38	1.0242E00
337.75	1.0460E00
338.11	9.0922E-01
338.47	1.3066E00
338.84	1.0931E00
339.20	9.1908E-01
339.56	2.7352E00
339.93	8.8031E-01
340.29	1.0502E00
340.65	1.1498E00
341.02	1.9353E00
341.38	1.3181E00
341.74	1.4184E00
342.11	1.3840E00
342.47	1.3935E00
342.83	7.6491E-01
343.20	1.7678E00
343.56	1.0689E00
343.92	1.4866E00
344.28	9.8938E-01
344.65	1.5703E00
345.01	9.2480E-01
345.37	1.4935E00
345.73	1.3281E00
346.10	1.1395E00
346.46	1.3526E00
346.82	1.0318E00
347.19	2.3427E00
347.55	9.6406E-01
347.91	9.7263E-01
348.27	1.0921E00
348.63	9.4983E-01
349.00	9.3860E-01
349.36	1.8918E00
349.72	1.1788E00
350.08	1.7195E00
350.45	9.8253E-01
350.81	9.1582E-01
351.17	1.2064E00
351.53	1.3049E00
351.89	1.0649E00
352.26	1.2227E00
352.62	1.0111E00
352.98	1.1762E00
353.34	1.0381E00
353.70	1.3712E00
354.07	1.0061E00
354.43	9.5408E-01
354.79	1.1209E00
355.15	8.9730E-01
355.51	8.5695E-01
355.87	9.6987E-01
356.24	1.0100E00
356.60	9.7728E-01
356.96	1.0587E00
357.32	9.5202E-01
357.68	8.9425E-01
358.04	8.0702E-01
358.40	8.9109E-01
358.77	8.2913E-01
359.13	9.8138E-01
359.49	1.0429E00
359.85	1.0132E00
360.21	7.6340E-01
360.57	9.3179E-01
360.93	9.2607E-01
361.29	9.8056E-01
361.66	8.1449E-01
362.02	7.5053E-01
362.38	9.7958E-01
362.74	8.5151E-01
363.10	8.9876E-01
363.46	1.0452E00
363.82	8.9412E-01
364.18	1.0705E00
364.54	1.0155E00
364.90	9.6734E-01
365.26	9.5077E-01
365.62	1.0858E00
365.98	9.4684E-01
366.35	7.5806E-01
366.71	9.1806E-01
367.07	1.1762E00
367.43	7.4394E-01
367.79	1.0628E00
368.15	9.7484E-01
368.51	1.1559E00
368.87	1.0114E00
369.23	1.0803E00
369.59	8.4956E-01
369.95	9.1998E-01
370.31	8.7785E-01
370.67	1.0382E00
371.03	8.7632E-01
371.39	8.5664E-01
371.75	8.6525E-01
372.11	8.9199E-01
372.47	8.2088E-01
372.83	8.2847E-01
373.19	6.9213E-01
373.55	9.0619E-01
373.91	9.2455E-01
374.27	9.9797E-01
374.63	9.7341E-01
374.99	8.8409E-01
375.35	8.4937E-01
375.71	8.6621E-01
376.07	8.7362E-01
376.42	8.6438E-01
376.78	7.8357E-01
377.14	8.8841E-01
377.50	9.7008E-01
377.86	8.2632E-01
378.22	7.7943E-01
378.58	7.8036E-01
378.94	7.5715E-01
379.30	7.9484E-01
379.66	7.8289E-01
380.02	7.6616E-01
380.38	7.4439E-01
380.74	7.8034E-01
381.09	8.1877E-01
381.45	7.5494E-01
381.81	7.2989E-01
382.17	7.6926E-01
382.53	7.9963E-01
382.89	7.1705E-01
383.25	7.5354E-01
383.61	7.4508E-01
383.97	7.2315E-01
384.32	7.2090E-01
384.68	6.8811E-01
385.04	7.6429E-01
385.40	7.8733E-01
385.76	7.8430E-01
386.12	7.3796E-01
386.48	7.4919E-01
386.83	6.9911E-01
387.19	6.9789E-01
387.55	7.8078E-01
387.91	7.5411E-01
388.27	7.0570E-01
388.62	7.9279E-01
388.98	7.1872E-01
389.34	7.9792E-01
389.70	7.2440E-01
390.06	7.4752E-01
390.42	7.5410E-01
390.77	7.3516E-01
391.13	7.5022E-01
391.49	7.3665E-01
391.85	7.7630E-01
392.20	6.8609E-01
392.56	6.9552E-01
392.92	7.0513E-01
393.28	7.0772E-01
393.64	7.3964E-01
393.99	7.5347E-01
394.35	7.4142E-01
394.71	7.3356E-01
395.07	7.1771E-01
395.42	7.2008E-01
395.78	7.3335E-01
396.14	6.6292E-01
396.50	6.6467E-01
396.85	7.3079E-01
397.21	7.0389E-01
397.57	7.2313E-01
397.92	6.7669E-01
398.28	6.5503E-01
398.64	7.7815E-01
399.00	6.2667E-01
399.35	6.5266E-01
399.71	6.9994E-01
400.07	6.8307E-01
400.42	6.6768E-01
400.78	6.8368E-01
401.14	6.8731E-01
401.49	6.3700E-01
401.85	6.3281E-01
402.21	6.4250E-01
402.57	6.3902E-01
402.92	6.7430E-01
403.28	6.4079E-01
403.63	6.3721E-01
403.99	6.5243E-01
404.35	6.3301E-01
404.70	6.2173E-01
405.06	6.3121E-01
405.42	6.4584E-01
405.77	6.0063E-01
406.13	5.9988E-01
406.49	5.9561E-01
406.84	6.0271E-01
407.20	5.8813E-01
407.55	6.3486E-01
407.91	6.4661E-01
408.27	6.0535E-01
408.62	6.0949E-01
408.98	6.1689E-01
409.34	6.2717E-01
409.69	5.9992E-01
410.05	6.3285E-01
410.40	6.0407E-01
410.76	5.5868E-01
411.11	5.6380E-01
411.47	6.1185E-01
411.83	5.7962E-01
412.18	5.9079E-01
412.54	5.7852E-01
412.89	5.7485E-01
413.25	5.9670E-01
413.60	6.2317E-01
413.96	5.8395E-01
414.31	5.8782E-01
414.67	6.2043E-01
415.03	6.0814E-01
415.38	6.2326E-01
415.74	6.1574E-01
416.09	6.1137E-01
416.45	6.1925E-01
416.80	6.0765E-01
417.16	6.0250E-01
417.51	5.9921E-01
417.87	5.7697E-01
418.22	5.7038E-01
418.58	5.8270E-01
418.93	5.5785E-01
419.29	5.9778E-01
419.64	5.8031E-01
420.00	5.4858E-01
420.35	5.3875E-01
420.71	5.6563E-01
421.06	5.6787E-01
421.42	5.8205E-01
421.77	5.7366E-01
422.12	5.7253E-01
422.48	5.4179E-01
422.83	5.7946E-01
423.19	5.4790E-01
423.54	5.4813E-01
423.90	5.5533E-01
424.25	5.2429E-01
424.61	5.7745E-01
424.96	5.4057E-01
425.31	5.3722E-01
425.67	5.1532E-01
426.02	5.3753E-01
426.38	5.3748E-01
426.73	5.0905E-01
427.09	5.3277E-01
427.44	5.1049E-01
427.79	5.1628E-01
428.15	5.3261E-01
428.50	5.2911E-01
428.85	5.4178E-01
429.21	4.9977E-01
429.56	4.8927E-01
429.92	4.9854E-01
430.27	5.1526E-01
430.62	5.1453E-01
430.98	5.2122E-01
431.33	5.0933E-01
431.68	4.9220E-01
432.04	4.8875E-01
432.39	4.9534E-01
432.74	5.1346E-01
433.10	4.8157E-01
433.45	5.0946E-01
433.80	5.0704E-01
434.16	5.1820E-01
434.51	4.9330E-01
434.86	5.1357E-01
435.22	4.9473E-01
435.57	5.2897E-01
435.92	5.1837E-01
436.28	5.1583E-01
436.63	4.7918E-01
436.98	5.1180E-01
437.34	5.0790E-01
437.69	4.8261E-01
438.04	4.7007E-01
438.39	5.0276E-01
438.75	5.1481E-01
439.10	4.6440E-01
439.45	5.0511E-01
439.81	4.9947E-01
440.16	4.6954E-01
440.51	4.9067E-01
440.86	4.8901E-01
441.22	4.7792E-01
441.57	4.8255E-01
441.92	4.6862E-01
442.27	4.9179E-01
442.63	4.8137E-01
442.98	5.1375E-01
443.33	5.0262E-01
443.68	4.6747E-01
444.03	4.4133E-01
444.39	4.4366E-01
444.74	4.8154E-01
445.09	4.8859E-01
445.44	4.8939E-01
445.79	4.3222E-01
446.15	4.6433E-01
446.50	4.8051E-01
446.85	4.5157E-01
447.20	4.3943E-01
447.55	4.7458E-01
447.91	4.5672E-01
448.26	4.6857E-01
448.61	4.6427E-01
448.96	4.5442E-01
449.31	4.6185E-01
449.66	4.6612E-01
450.02	4.5863E-01
450.37	4.5922E-01
450.72	4.5295E-01
451.07	4.8847E-01
451.42	4.8557E-01
451.77	4.5872E-01
452.12	4.5854E-01
452.47	4.7960E-01
452.83	4.4110E-01
453.18	4.6643E-01
453.53	4.6096E-01
453.88	4.3440E-01
454.23	4.2879E-01
454.58	4.2877E-01
454.93	4.6002E-01
455.28	4.5692E-01
455.63	4.4367E-01
455.98	4.3417E-01
456.34	4.5744E-01
456.69	4.4316E-01
457.04	4.4652E-01
457.39	4.1932E-01
457.74	4.2824E-01
458.09	4.1694E-01
458.44	4.1579E-01
458.79	4.0700E-01
459.14	4.2082E-01
459.49	4.3795E-01
459.84	4.1344E-01
460.19	4.3979E-01
460.54	4.3691E-01
460.89	4.0270E-01
461.24	4.4102E-01
461.59	4.2181E-01
461.94	4.2751E-01
462.29	3.9969E-01
462.64	4.2273E-01
462.99	4.2718E-01
463.34	4.5158E-01
463.69	4.2316E-01
464.04	3.9475E-01
464.39	4.1054E-01
464.74	4.1572E-01
465.09	4.2696E-01
465.44	4.0220E-01
465.79	4.1472E-01
466.14	4.1706E-01
466.49	4.0972E-01
466.84	4.0605E-01
467.19	4.2025E-01
467.54	4.2147E-01
467.89	4.0116E-01
468.24	3.8059E-01
468.59	3.9290E-01
468.94	3.8473E-01
469.29	3.8698E-01
469.64	4.0002E-01
469.99	3.8505E-01
470.34	3.7328E-01
470.68	3.9729E-01
471.03	3.8338E-01
471.38	3.8454E-01
471.73	3.6629E-01
472.08	3.6155E-01
472.43	3.4896E-01
472.78	3.6841E-01
473.13	3.6441E-01
473.48	3.5804E-01
473.83	3.5158E-01
474.17	3.5674E-01
474.52	3.5276E-01
474.87	3.3898E-01
475.22	3.4573E-01
475.57	3.2890E-01
475.92	3.2069E-01
476.27	3.3029E-01
476.61	3.2152E-01
476.96	3.1333E-01
477.31	3.0360E-01
477.66	3.0933E-01
478.01	3.0746E-01
478.36	3.0575E-01
478.70	3.0146E-01
479.05	3.0604E-01
479.40	2.9206E-01
479.75	2.8892E-01
480.10	2.9073E-01
480.45	2.8381E-01
480.79	2.8272E-01
481.14	2.8680E-01
481.49	2.7973E-01
481.84	2.7462E-01
482.19	2.7278E-01
482.53	2.7217E-01
482.88	2.6992E-01
483.23	2.6524E-01
483.58	2.5987E-01
483.92	2.6635E-01
484.27	2.5784E-01
484.62	2.5631E-01
484.97	2.5090E-01
485.31	2.4952E-01
485.66	2.5494E-01
486.01	2.5474E-01
486.36	2.4251E-01
486.70	2.4932E-01
487.05	2.4778E-01
487.40	2.4806E-01
487.75	2.4069E-01
488.09	2.4118E-01
488.44	2.4317E-01
488.79	2.3927E-01
489.13	2.3672E-01
489.48	2.3973E-01
489.83	2.4017E-01
490.17	2.3403E-01
490.52	2.3378E-01
490.87	2.3479E-01
491.22	2.3800E-01
491.56	2.3470E-01
491.91	2.3805E-01
492.26	2.3509E-01
492.60	2.3501E-01
492.95	2.3710E-01
493.30	2.3667E-01
493.64	2.3382E-01
493.99	2.3504E-01
494.34	2.3222E-01
494.68	2.2979E-01
495.03	2.3526E-01
495.37	2.3342E-01
495.72	2.3568E-01
496.07	2.3040E-01
496.41	2.3189E-01
496.76	2.3050E-01
497.11	2.3293E-01
497.45	2.3185E-01
497.80	2.3214E-01
498.14	2.3202E-01
498.49	2.3248E-01
498.84	2.3311E-01
499.18	2.3252E-01
499.53	2.3229E-01
499.87	2.3033E-01
500.22	2.3312E-01
500.56	2.3253E-01
500.91	2.3237E-01
501.26	2.3182E-01
501.60	2.3152E-01
501.95	2.2970E-01
502.29	2.3269E-01
502.64	2.2836E-01
502.98	2.3190E-01
503.33	2.3006E-01
503.67	2.3070E-01
504.02	2.3021E-01
504.36	2.2962E-01
504.71	2.3039E-01
505.06	2.2832E-01
505.40	2.2822E-01
505.75	2.2959E-01
506.09	2.2981E-01
506.44	2.2957E-01
506.78	2.2743E-01
507.13	2.2864E-01
507.47	2.2680E-01
507.82	2.2677E-01
508.16	2.2897E-01
508.51	2.2693E-01
508.85	2.2426E-01
509.19	2.2699E-01
509.54	2.2660E-01
509.88	2.2672E-01
510.23	2.2350E-01
510.57	2.2444E-01
510.92	2.2385E-01
511.26	2.2402E-01
511.61	2.2399E-01
511.95	2.2422E-01
512.30	2.2277E-01
512.64	2.2455E-01
512.98	2.2057E-01
513.33	2.2232E-01
513.67	2.2292E-01
514.02	2.2205E-01
514.36	2.2010E-01
514.70	2.2135E-01
515.05	2.1900E-01
515.39	2.2060E-01
515.74	2.1858E-01
516.08	2.1723E-01
516.42	2.1917E-01
516.77	2.1968E-01
517.11	2.1995E-01
517.46	2.2102E-01
517.80	2.1787E-01
518.14	2.1923E-01
518.49	2.1731E-01
518.83	2.1804E-01
519.17	2.1817E-01
519.52	2.1850E-01
519.86	2.1739E-01
520.20	2.1637E-01
520.55	2.1726E-01
520.89	2.1578E-01
521.23	2.1821E-01
521.58	2.1766E-01
521.92	2.1918E-01
522.26	2.2032E-01
522.61	2.1689E-01
522.95	2.1835E-01
523.29	2.1538E-01
523.64	2.1554E-01
523.98	2.1647E-01
524.32	2.1731E-01
524.66	2.1924E-01
525.01	2.1907E-01
525.35	2.1985E-01
525.69	2.2067E-01
526.04	2.1978E-01
526.38	2.1658E-01
526.72	2.2089E-01
527.06	2.1962E-01
527.41	2.2152E-01
527.75	2.2340E-01
528.09	2.2173E-01
528.43	2.2505E-01
528.78	2.2253E-01
529.12	2.2475E-01
529.46	2.2636E-01
529.80	2.2571E-01
530.15	2.2616E-01
530.49	2.2620E-01
530.83	2.2729E-01
531.17	2.2755E-01
531.51	2.2668E-01
531.86	2.2880E-01
532.20	2.2983E-01
532.54	2.2904E-01
532.88	2.3103E-01
533.22	2.3283E-01
533.57	2.3382E-01
533.91	2.3309E-01
534.25	2.3519E-01
534.59	2.3397E-01
534.93	2.3602E-01
535.27	2.3510E-01
535.62	2.3944E-01
535.96	2.3839E-01
536.30	2.3892E-01
536.64	2.3930E-01
536.98	2.4146E-01
537.32	2.4055E-01
537.66	2.4062E-01
538.01	2.4303E-01
538.35	2.4505E-01
538.69	2.4218E-01
539.03	2.4808E-01
539.37	2.4540E-01
539.71	2.4742E-01
540.05	2.4782E-01
540.39	2.4867E-01
540.73	2.4773E-01
541.07	2.4837E-01
541.42	2.4901E-01
541.76	2.4937E-01
542.10	2.5047E-01
542.44	2.5147E-01
542.78	2.5179E-01
543.12	2.5105E-01
543.46	2.5642E-01
543.80	2.5315E-01
544.14	2.5314E-01
544.48	2.5223E-01
544.82	2.5496E-01
545.16	2.5441E-01
545.50	2.5361E-01
545.84	2.5629E-01
546.18	2.5460E-01
546.52	2.5751E-01
546.86	2.5534E-01
547.20	2.5904E-01
547.54	2.6204E-01
547.88	2.5748E-01
548.22	2.5793E-01
548.56	2.5941E-01
548.90	2.5757E-01
549.24	2.5982E-01
549.58	2.6048E-01
549.92	2.5876E-01
550.26	2.6307E-01
550.60	2.5933E-01
550.94	2.5804E-01
551.28	2.6167E-01
551.62	2.5991E-01
551.96	2.6219E-01
552.30	2.6355E-01
552.64	2.6246E-01
552.98	2.6239E-01
553.32	2.6306E-01
553.66	2.6176E-01
554.00	2.6229E-01
554.34	2.6283E-01
554.68	2.6412E-01
555.02	2.6446E-01
555.36	2.6548E-01
555.69	2.6422E-01
556.03	2.6391E-01
556.37	2.6536E-01
556.71	2.6302E-01
557.05	2.6280E-01
557.39	2.6326E-01
557.73	2.6362E-01
558.07	2.6554E-01
558.41	2.6424E-01
558.75	2.6487E-01
559.08	2.6498E-01
559.42	2.6262E-01
559.76	2.6665E-01
560.10	2.6618E-01
560.44	2.6609E-01
560.78	2.6362E-01
561.12	2.6524E-01
561.45	2.6494E-01
561.79	2.6597E-01
562.13	2.6592E-01
562.47	2.6627E-01
562.81	2.6643E-01
563.15	2.6649E-01
563.48	2.6686E-01
563.82	2.6359E-01
564.16	2.6595E-01
564.50	2.6606E-01
564.84	2.6676E-01
565.17	2.6690E-01
565.51	2.6617E-01
565.85	2.6832E-01
566.19	2.6495E-01
566.52	2.6870E-01
566.86	2.6563E-01
567.20	2.6839E-01
567.54	2.6724E-01
567.88	2.6772E-01
568.21	2.6781E-01
568.55	2.6929E-01
568.89	2.6928E-01
569.23	2.6900E-01
569.56	2.6833E-01
569.90	2.6955E-01
570.24	2.7141E-01
570.57	2.7141E-01
570.91	2.7192E-01
571.25	2.6813E-01
571.59	2.7117E-01
571.92	2.7092E-01
572.26	2.7207E-01
572.60	2.7432E-01
572.93	2.7304E-01
573.27	2.7551E-01
573.61	2.7620E-01
573.95	2.7181E-01
574.28	2.7644E-01
574.62	2.7656E-01
574.96	2.7663E-01
575.29	2.7605E-01
575.63	2.8040E-01
575.97	2.7967E-01
576.30	2.8615E-01
576.64	2.8243E-01
576.98	2.8198E-01
577.31	2.8352E-01
577.65	2.8636E-01
577.98	2.8431E-01
578.32	2.8692E-01
578.66	2.8841E-01
578.99	2.8877E-01
579.33	2.8990E-01
579.67	2.8799E-01
580.00	2.9164E-01
580.34	2.9089E-01
580.67	2.9250E-01
581.01	2.9490E-01
581.35	2.9607E-01
581.68	2.9738E-01
582.02	2.9613E-01
582.35	2.9840E-01
582.69	2.9844E-01
583.02	3.0293E-01
583.36	3.0014E-01
583.70	2.9965E-01
584.03	3.0164E-01
584.37	3.0001E-01
584.70	3.0610E-01
585.04	3.0629E-01
585.37	3.0435E-01
585.71	3.0914E-01
586.04	3.0836E-01
586.38	3.0597E-01
586.72	3.0994E-01
587.05	3.1175E-01
587.39	3.1266E-01
587.72	3.1071E-01
588.06	3.1384E-01
588.39	3.1340E-01
588.73	3.1667E-01
589.06	3.1432E-01
589.40	3.1900E-01
589.73	3.2051E-01
590.07	3.2150E-01
590.40	3.2159E-01
590.73	3.2550E-01
591.07	3.2201E-01
591.40	3.2885E-01
591.74	3.2162E-01
592.07	3.2605E-01
592.41	3.2743E-01
592.74	3.2838E-01
593.08	3.2643E-01
593.41	3.2881E-01
593.75	3.2650E-01
594.08	3.3101E-01
594.41	3.2991E-01
594.75	3.3125E-01
595.08	3.3092E-01
595.42	3.2684E-01
595.75	3.3233E-01
596.09	3.3230E-01
596.42	3.3077E-01
596.75	3.3452E-01
597.09	3.3635E-01
597.42	3.3305E-01
597.75	3.3716E-01
598.09	3.3793E-01
598.42	3.3530E-01
598.76	3.3707E-01
599.09	3.4174E-01
599.42	3.4160E-01
599.76	3.4010E-01
600.09	3.3885E-01
600.42	3.4410E-01
600.76	3.3718E-01
601.09	3.4145E-01
601.42	3.4483E-01
601.76	3.4099E-01
602.09	3.4042E-01
602.42	3.4246E-01
602.76	3.4141E-01
603.09	3.4031E-01
603.42	3.4651E-01
603.76	3.4259E-01
604.09	3.4263E-01
604.42	3.4533E-01
604.76	3.4262E-01
605.09	3.4785E-01
605.42	3.4447E-01
605.75	3.4587E-01
606.09	3.4436E-01
606.42	3.4562E-01
606.75	3.4714E-01
607.09	3.4775E-01
607.42	3.4763E-01
607.75	3.4843E-01
608.08	3.4781E-01
608.42	3.5047E-01
608.75	3.4674E-01
609.08	3.5101E-01
609.41	3.5012E-01
609.75	3.4831E-01
610.08	3.5040E-01
610.41	3.5249E-01
610.74	3.5121E-01
611.07	3.5159E-01
611.41	3.5092E-01
611.74	3.5207E-01
612.07	3.5393E-01
612.40	3.4922E-01
612.73	3.5282E-01
613.07	3.5503E-01
613.40	3.5090E-01
613.73	3.4989E-01
614.06	3.5296E-01
614.39	3.5379E-01
614.72	3.5507E-01
615.06	3.5469E-01
615.39	3.5912E-01
615.72	3.5347E-01
616.05	3.5709E-01
616.38	3.5807E-01
616.71	3.5863E-01
617.05	3.5620E-01
617.38	3.5842E-01
617.71	3.5615E-01
618.04	3.5814E-01
618.37	3.5603E-01
618.70	3.5696E-01
619.03	3.5842E-01
619.36	3.5271E-01
619.69	3.6055E-01
620.03	3.5622E-01
620.36	3.5722E-01
620.69	3.5536E-01
621.02	3.5838E-01
621.35	3.5736E-01
621.68	3.5440E-01
622.01	3.5363E-01
622.34	3.5541E-01
622.67	3.5464E-01
623.00	3.5585E-01
623.33	3.5614E-01
623.66	3.5392E-01
623.99	3.5490E-01
624.32	3.5378E-01
624.65	3.5484E-01
624.99	3.5471E-01
625.32	3.5619E-01
625.65	3.5514E-01
625.98	3.5043E-01
626.31	3.5470E-01
626.64	3.5527E-01
626.97	3.5571E-01
627.30	3.5303E-01
627.63	3.5498E-01
627.96	3.5182E-01
628.29	3.5146E-01
628.62	3.5521E-01
628.95	3.5501E-01
629.28	3.4934E-01
629.61	3.6014E-01
629.94	3.5549E-01
630.26	3.5598E-01
630.59	3.5829E-01
630.92	3.5589E-01
631.25	3.5735E-01
631.58	3.6126E-01
631.91	3.5632E-01
632.24	3.6384E-01
632.57	3.6016E-01
632.90	3.6110E-01
633.23	3.6168E-01
633.56	3.6330E-01
633.89	3.6423E-01
634.22	3.6546E-01
634.55	3.6635E-01
634.88	3.7055E-01
635.20	3.6974E-01
635.53	3.7206E-01
635.86	3.7240E-01
636.19	3.7674E-01
636.52	3.7792E-01
636.85	3.7496E-01
637.18	3.7922E-01
637.51	3.7618E-01
637.83	3.8021E-01
638.16	3.7663E-01
638.49	3.8769E-01
638.82	3.8623E-01
639.15	3.8929E-01
639.48	3.9184E-01
639.81	3.9406E-01
640.13	3.9043E-01
640.46	3.9610E-01
640.79	3.9623E-01
641.12	3.9992E-01
641.45	3.9951E-01
641.77	3.9680E-01
642.10	4.0569E-01
642.43	4.0657E-01
642.76	4.0860E-01
643.09	4.0603E-01
643.41	4.0921E-01
643.74	4.1016E-01
644.07	4.0962E-01
644.40	4.1319E-01
644.73	4.1735E-01
645.05	4.1926E-01
645.38	4.2184E-01
645.71	4.2311E-01
646.04	4.2342E-01
646.36	4.2236E-01
646.69	4.2904E-01
647.02	4.2909E-01
647.35	4.2650E-01
647.67	4.3209E-01
648.00	4.3057E-01
648.33	4.3627E-01
648.66	4.3363E-01
648.98	4.3993E-01
649.31	4.3870E-01
649.64	4.4017E-01
649.96	4.4486E-01
650.29	4.4740E-01
650.62	4.4722E-01
650.94	4.4665E-01
651.27	4.4621E-01
651.60	4.4765E-01
651.92	4.5532E-01
652.25	4.5601E-01
652.58	4.5567E-01
652.90	4.5751E-01
653.23	4.5780E-01
653.56	4.5919E-01
653.88	4.6099E-01
654.21	4.6150E-01
654.54	4.6307E-01
654.86	4.6930E-01
655.19	4.6347E-01
655.52	4.7060E-01
655.84	4.6960E-01
656.17	4.7231E-01
656.49	4.7753E-01
656.82	4.7157E-01
657.15	4.7729E-01
657.47	4.7738E-01
657.80	4.7762E-01
658.13	4.7944E-01
658.45	4.8233E-01
658.78	4.8078E-01
659.10	4.8682E-01
659.43	4.8631E-01
659.75	4.8548E-01
660.08	4.8334E-01
660.41	4.8957E-01
660.73	4.9019E-01
661.06	4.9426E-01
661.38	4.9223E-01
661.71	4.9365E-01
662.03	4.9420E-01
662.36	5.0065E-01
662.68	4.9942E-01
663.01	4.9297E-01
663.33	4.9785E-01
663.66	5.0158E-01
663.98	4.9846E-01
664.31	4.9875E-01
664.63	5.0909E-01
664.96	5.0586E-01
665.28	5.0969E-01
665.61	5.0790E-01
665.93	5.0945E-01
666.26	5.1209E-01
666.58	5.1241E-01
666.91	5.0907E-01
667.23	5.1482E-01
667.56	5.0843E-01
667.88	5.1705E-01
668.21	5.1635E-01
668.53	5.1436E-01
668.86	5.2432E-01
669.18	5.1646E-01
669.50	5.2792E-01
669.83	5.2640E-01
670.15	5.2747E-01
670.48	5.2679E-01
670.80	5.2490E-01
671.13	5.2241E-01
671.45	5.2844E-01
671.77	5.3152E-01
672.10	5.2778E-01
672.42	5.3535E-01
672.75	5.3239E-01
673.07	5.3674E-01
673.39	5.3181E-01
673.72	5.3530E-01
674.04	5.3924E-01
674.37	5.4349E-01
674.69	5.3976E-01
675.01	5.4414E-01
675.34	5.4551E-01
675.66	5.4637E-01
675.98	5.4108E-01
676.31	5.4985E-01
676.63	5.5154E-01
676.95	5.4866E-01
677.28	5.5215E-01
677.60	5.5295E-01
677.92	5.5111E-01
678.25	5.5696E-01
678.57	5.5747E-01
678.89	5.5611E-01
679.22	5.6494E-01
679.54	5.6221E-01
679.86	5.6231E-01
680.18	5.6391E-01
680.51	5.6640E-01
680.83	5.7139E-01
681.15	5.6536E-01
681.48	5.6967E-01
681.80	5.7359E-01
682.12	5.6970E-01
682.44	5.7954E-01
682.77	5.7946E-01
683.09	5.8285E-01
683.41	5.8002E-01
683.73	5.8588E-01
684.06	5.8529E-01
684.38	5.8696E-01
684.70	5.8531E-01
685.02	5.9127E-01
685.34	5.9722E-01
685.67	5.9232E-01
685.99	5.9998E-01
686.31	5.9487E-01
686.63	6.0549E-01
686.96	6.0177E-01
687.28	6.0924E-01
687.60	6.0078E-01
687.92	6.0711E-01
688.24	6.1357E-01
688.56	6.1459E-01
688.89	6.1645E-01
689.21	6.1377E-01
689.53	6.1729E-01
689.85	6.2560E-01
690.17	6.2116E-01
690.49	6.3186E-01
690.82	6.3120E-01
691.14	6.3100E-01
691.46	6.3475E-01
691.78	6.3848E-01
692.10	6.3142E-01
692.42	6.3885E-01
692.74	6.4364E-01
693.06	6.4492E-01
693.39	6.5626E-01
693.71	6.5697E-01
694.03	6.5719E-01
694.35	6.5949E-01
694.67	6.6059E-01
694.99	6.6736E-01
695.31	6.7001E-01
695.63	6.6917E-01
695.95	6.7475E-01
696.27	6.7274E-01
696.59	6.7829E-01
696.91	6.8743E-01
697.23	6.8726E-01
697.56	6.8528E-01
697.88	6.9266E-01
698.20	6.9155E-01
698.52	6.9847E-01
698.84	7.0429E-01
699.16	7.0867E-01
699.48	7.0168E-01
699.80	7.1135E-01
700.12	7.1757E-01
700.44	7.1880E-01
700.76	7.2060E-01
701.08	7.2499E-01
701.40	7.2833E-01
701.72	7.3580E-01
702.04	7.3511E-01
702.36	7.4224E-01
702.68	7.4479E-01
703.00	7.4959E-01
703.32	7.5401E-01
703.64	7.5480E-01
703.96	7.4723E-01
704.28	7.5891E-01
704.60	7.6793E-01
704.91	7.6967E-01
705.23	7.7065E-01
705.55	7.7937E-01
705.87	7.7396E-01
706.19	7.7650E-01
706.51	7.8249E-01
706.83	7.8639E-01
707.15	8.0668E-01
707.47	7.8938E-01
707.79	8.0448E-01
708.11	8.0615E-01
708.43	8.0947E-01
708.74	8.1735E-01
709.06	8.2815E-01
709.38	8.2291E-01
709.70	8.1803E-01
710.02	8.2893E-01
710.34	8.2681E-01
710.66	8.4767E-01
710.98	8.4278E-01
711.29	8.4208E-01
711.61	8.5744E-01
711.93	8.6255E-01
712.25	8.5409E-01
712.57	8.6613E-01
712.89	8.6954E-01
713.20	8.7106E-01
713.52	8.7972E-01
713.84	8.8751E-01
714.16	8.8022E-01
714.48	8.8296E-01
714.80	8.9768E-01
715.11	8.9534E-01
715.43	9.0760E-01
715.75	9.1376E-01
716.07	9.2292E-01
716.39	9.0614E-01
716.70	9.1774E-01
717.02	9.1287E-01
717.34	9.3945E-01
717.66	9.3000E-01
717.97	9.4136E-01
718.29	9.4721E-01
718.61	9.5870E-01
718.93	9.5860E-01
719.24	9.6142E-01
719.56	9.8278E-01
719.88	9.7327E-01
720.20	9.8527E-01
720.51	9.9908E-01
720.83	9.9477E-01
721.15	1.0147E00
721.46	1.0117E00
721.78	1.0175E00
722.10	1.0323E00
722.42	1.0428E00
722.73	1.0487E00
723.05	1.0353E00
723.37	1.0495E00
723.68	1.0598E00
724.00	1.0601E00
724.32	1.0796E00
724.63	1.0761E00
724.95	1.0705E00
725.27	1.0823E00
725.58	1.0895E00
725.90	1.0888E00
726.22	1.1063E00
726.53	1.0828E00
726.85	1.0978E00
727.16	1.1218E00
727.48	1.1021E00
727.80	1.1139E00
728.11	1.1184E00
728.43	1.1151E00
728.74	1.1104E00
729.06	1.1326E00
729.38	1.1283E00
729.69	1.1327E00
730.01	1.1406E00
730.32	1.1484E00
730.64	1.1481E00
730.96	1.1363E00
731.27	1.1666E00
731.59	1.1403E00
731.90	1.1539E00
732.22	1.1636E00
732.53	1.1618E00
732.85	1.1768E00
733.16	1.1716E00
733.48	1.1796E00
733.80	1.1724E00
734.11	1.1943E00
734.43	1.1931E00
734.74	1.1910E00
735.06	1.2058E00
735.37	1.2155E00
735.69	1.2004E00
736.00	1.2149E00
736.32	1.2174E00
736.63	1.2245E00
736.95	1.2221E00
737.26	1.2434E00
737.58	1.2450E00
737.89	1.2532E00
738.21	1.2399E00
738.52	1.2480E00
738.83	1.2523E00
739.15	1.2517E00
739.46	1.2688E00
739.78	1.2653E00
740.09	1.2807E00
740.41	1.2737E00
740.72	1.2691E00
741.04	1.2691E00
741.35	1.2723E00
741.66	1.2936E00
741.98	1.2860E00
742.29	1.2928E00
742.61	1.2858E00
742.92	1.2914E00
743.23	1.2912E00
743.55	1.2994E00
743.86	1.2884E00
744.18	1.2969E00
744.49	1.2990E00
744.80	1.2976E00
745.12	1.2989E00
745.43	1.3037E00
745.74	1.3030E00
746.06	1.2930E00
746.37	1.2911E00
746.68	1.3017E00
747.00	1.2997E00
747.31	1.2881E00
747.62	1.2798E00
747.94	1.3017E00
748.25	1.3022E00
748.56	1.3036E00
748.88	1.2840E00
749.19	1.2955E00
749.50	1.2993E00
749.82	1.2898E00
750.13	1.2976E00
750.44	1.2989E00
750.75	1.2834E00
751.07	1.3011E00
751.38	1.3099E00
751.69	1.2849E00
752.01	1.3042E00
752.32	1.3003E00
752.63	1.3022E00
752.94	1.3105E00
753.26	1.3166E00
753.57	1.3030E00
753.88	1.3111E00
754.19	1.3122E00
754.51	1.3149E00
754.82	1.3113E00
755.13	1.3273E00
755.44	1.3248E00
755.75	1.3281E00
756.07	1.3288E00
756.38	1.3434E00
756.69	1.3412E00
757.00	1.3487E00
757.31	1.3659E00
757.63	1.3733E00
757.94	1.3760E00
758.25	1.3899E00
758.56	1.3557E00
758.87	1.4033E00
759.18	1.4045E00
759.50	1.4031E00
759.81	1.3974E00
760.12	1.4068E00
760.43	1.4180E00
760.74	1.4134E00
761.05	1.4416E00
761.36	1.4464E00
761.67	1.4558E00
761.99	1.4659E00
762.30	1.4445E00
762.61	1.4796E00
762.92	1.4772E00
763.23	1.4767E00
763.54	1.4940E00
763.85	1.5172E00
764.16	1.5207E00
764.47	1.5405E00
764.78	1.5504E00
765.10	1.5524E00
765.41	1.5532E00
765.72	1.5626E00
766.03	1.5992E00
766.34	1.6112E00
766.65	1.6213E00
766.96	1.6524E00
767.27	1.6403E00
767.58	1.6422E00
767.89	1.6609E00
768.20	1.6859E00
768.51	1.6859E00
768.82	1.6906E00
769.13	1.7233E00
769.44	1.7448E00
769.75	1.7414E00
770.06	1.7465E00
770.37	1.7436E00
770.68	1.7842E00
770.99	1.7986E00
771.30	1.8099E00
771.61	1.8644E00
771.92	1.8248E00
772.23	1.8474E00
772.54	1.8898E00
772.85	1.8705E00
773.16	1.8893E00
773.47	1.9459E00
773.78	1.9321E00
774.09	1.9619E00
774.39	1.9641E00
774.70	1.9706E00
775.01	2.0105E00
775.32	2.0201E00
775.63	2.0430E00
775.94	2.0658E00
776.25	2.0517E00
776.56	2.0718E00
776.87	2.1247E00
777.18	2.1205E00
777.48	2.1416E00
777.79	2.1611E00
778.10	2.1799E00
778.41	2.1955E00
778.72	2.2207E00
779.03	2.2310E00
779.34	2.2798E00
779.65	2.2817E00
779.95	2.3243E00
780.26	2.3047E00
780.57	2.3428E00
780.88	2.3359E00
781.19	2.3803E00
781.50	2.3827E00
781.80	2.4038E00
782.11	2.4107E00
782.42	2.4678E00
782.73	2.4203E00
783.04	2.5143E00
783.34	2.5138E00
783.65	2.5373E00
783.96	2.5445E00
784.27	2.5593E00
784.57	2.5790E00
784.88	2.6065E00
785.19	2.6210E00
785.50	2.6516E00
785.81	2.6840E00
786.11	2.6467E00
786.42	2.6784E00
786.73	2.7072E00
787.04	2.7402E00
787.34	2.7903E00
787.65	2.8032E00
787.96	2.8664E00
788.26	2.8446E00
788.57	2.9028E00
788.88	2.8666E00
789.19	2.9553E00
789.49	2.9294E00
789.80	2.9827E00
790.11	2.9904E00
790.41	3.0198E00
790.72	3.0520E00
791.03	3.0664E00
791.33	3.0962E00
791.64	3.1637E00
791.95	3.1097E00
792.25	3.2105E00
792.56	3.1781E00
792.87	3.2292E00
793.17	3.2473E00
793.48	3.2627E00
793.79	3.2947E00
794.09	3.3592E00
794.40	3.3080E00
794.70	3.3224E00
795.01	3.3324E00
795.32	3.3789E00
795.62	3.4454E00
795.93	3.4521E00
796.23	3.4615E00
796.54	3.5072E00
796.85	3.4944E00
797.15	3.5394E00
797.46	3.5695E00
797.76	3.6594E00
798.07	3.6450E00
798.37	3.6517E00
798.68	3.7091E00
798.99	3.7086E00
799.29	3.7464E00
799.60	3.8089E00
799.90	3.8091E00
800.21	3.8634E00
800.51	3.8964E00
800.82	3.8901E00
801.12	3.9596E00
801.43	3.9506E00
801.73	4.0330E00
802.04	4.0222E00
802.34	4.0216E00
802.65	4.0658E00
802.95	4.2037E00
803.26	4.1712E00
803.56	4.0985E00
803.87	4.1665E00
804.17	4.1944E00
804.48	4.1890E00
804.78	4.2703E00
805.09	4.3417E00
805.39	4.3143E00
805.70	4.3412E00
806.00	4.4027E00
806.30	4.3995E00
806.61	4.4646E00
806.91	4.4929E00
807.22	4.5359E00
807.52	4.5617E00
807.83	4.5771E00
808.13	4.6313E00
808.43	4.5399E00
808.74	4.6725E00
809.04	4.7122E00
809.35	4.6811E00
809.65	4.7964E00
809.95	4.8224E00
810.26	4.8788E00
810.56	4.8937E00
810.86	4.9624E00
811.17	5.0020E00
811.47	4.9945E00
811.77	4.9984E00
812.08	4.9903E00
812.38	5.1414E00
812.69	5.0412E00
812.99	5.2096E00
813.29	5.2367E00
813.59	5.2926E00
813.90	5.3205E00
814.20	5.3371E00
814.50	5.3862E00
814.81	4.9976E00
815.11	4.8042E00
815.41	4.6302E00
815.72	4.5512E00
816.02	4.5362E00
816.32	4.3971E00
816.62	4.0179E00
816.93	4.0605E00
817.23	4.1318E00
817.53	4.1226E00
817.84	4.0848E00
818.14	4.0500E00
818.44	4.1188E00
818.74	4.3151E00
819.04	4.2825E00
819.35	4.2548E00
819.65	4.3533E00
819.95	4.3850E00
820.25	4.5540E00
820.56	4.8129E00
820.86	5.0209E00
821.16	5.2359E00
821.46	5.2207E00
821.76	5.2787E00
822.07	5.2089E00
822.37	4.9293E00
822.67	4.7783E00
822.97	4.3508E00
823.27	4.0222E00
823.57	3.9733E00
823.88	4.1004E00
824.18	4.3265E00
824.48	4.4842E00
824.78	4.6322E00
825.08	4.8873E00
825.38	5.0952E00
825.69	5.0360E00
825.99	5.1130E00
826.29	5.1983E00
826.59	5.1052E00
826.89	5.2923E00
827.19	5.3272E00
827.49	5.2634E00
827.79	4.9570E00
828.09	4.7607E00
828.39	4.7743E00
828.70	4.7913E00
829.00	4.7390E00
829.30	4.7081E00
829.60	4.7304E00
829.90	4.6860E00
830.20	4.5943E00
830.50	4.7059E00
830.80	4.7953E00
831.10	4.7039E00
831.40	4.8661E00
831.70	4.7822E00
832.00	4.7954E00
832.30	4.7453E00
832.60	4.7537E00
832.90	4.7769E00
833.20	4.8870E00
833.50	4.7454E00
833.80	4.7467E00
834.10	4.7659E00
834.40	4.8421E00
834.70	4.9822E00
835.00	4.9631E00
835.30	5.0286E00
835.60	5.0554E00
835.90	5.1017E00
836.20	5.2021E00
836.50	5.2534E00
836.80	5.3988E00
837.10	5.6481E00
837.40	5.4028E00
837.70	5.3949E00
838.00	5.2834E00
838.30	5.3647E00
838.60	5.4643E00
838.90	5.4707E00
839.19	5.6751E00
839.49	5.5438E00
839.79	5.6481E00
840.09	5.5441E00
840.39	5.6305E00
840.69	5.6814E00
840.99	5.8553E00
841.29	5.8117E00
841.59	5.6512E00
841.88	5.6344E00
842.18	5.7552E00
842.48	5.7625E00
842.78	5.7432E00
843.08	5.7714E00
843.38	5.6629E00
843.68	5.8573E00
843.97	5.9280E00
844.27	5.8085E00
844.57	5.8360E00
844.87	5.8574E00
845.17	5.7952E00
845.47	5.6808E00
845.76	5.8508E00
846.06	5.9819E00
846.36	6.3027E00
846.66	5.9936E00
846.96	5.9847E00
847.25	5.8322E00
847.55	5.9022E00
847.85	5.9759E00
848.15	5.8793E00
848.44	5.9336E00
848.74	5.7737E00
849.04	5.8548E00
849.34	5.9372E00
849.63	5.8898E00
849.93	5.7413E00
850.23	5.7657E00
850.53	5.5423E00
850.82	5.5743E00
851.12	5.4851E00
851.42	5.5409E00
851.71	5.5854E00
852.01	5.6190E00
852.31	5.7144E00
852.61	5.6361E00
852.90	5.6377E00
853.20	5.7614E00
853.50	6.0199E00
853.79	6.0303E00
854.09	5.5560E00
854.39	5.4589E00
854.68	5.4044E00
854.98	5.2758E00
855.28	5.2434E00
855.57	5.3953E00
855.87	5.3545E00
856.17	5.4123E00
856.46	5.3074E00
856.76	5.2813E00
857.05	5.6344E00
857.35	5.5498E00
857.65	5.7793E00
857.94	5.7953E00
858.24	5.8747E00
858.53	5.8429E00
858.83	6.1438E00
859.13	5.9482E00
859.42	5.7852E00
859.72	5.9750E00
860.01	6.0223E00
860.31	5.8281E00
860.60	5.9263E00
860.90	6.0348E00
861.20	5.9525E00
861.49	5.8089E00
861.79	6.0443E00
862.08	6.7949E00
862.38	6.2504E00
862.67	5.8938E00
862.97	5.9161E00
863.26	5.9007E00
863.56	6.1606E00
863.85	6.2528E00
864.15	5.8307E00
864.44	6.1727E00
864.74	5.9895E00
865.03	6.1243E00
865.33	6.0909E00
865.62	5.9698E00
865.92	5.7936E00
866.21	6.1481E00
866.51	5.9127E00
866.80	5.9633E00
867.10	6.0454E00
867.39	5.6007E00
867.69	5.9636E00
867.98	5.3668E00
868.27	5.4980E00
868.57	5.5301E00
868.86	5.9814E00
869.16	5.7436E00
869.45	5.7431E00
869.75	5.6294E00
870.04	5.8217E00
870.33	5.9781E00
870.63	5.7285E00
870.92	6.0872E00
871.22	6.8614E00
871.51	5.9211E00
871.80	6.0442E00
872.10	6.0442E00
>>>>>End Processed Spectral Data<<<<<
