SpectraSuite Data File
++++++++++++++++++++++++++++++++++++
Date: Fri May 15 10:58:02 PDT 2015
User: schluterlab
Dark Spectrum Present: Yes
Reference Spectrum Present: No
Number of Sampled Component Spectra: 1
Spectrometers: USB2E3373
Integration Time (usec): 2300000 (USB2E3373)
Spectra Averaged: 3 (USB2E3373)
Boxcar Smoothing: 0 (USB2E3373)
Correct for Electrical Dark: No (USB2E3373)
Strobe/Lamp Enabled: No (USB2E3373)
Correct for Detector Non-linearity: No (USB2E3373)
Correct for Stray Light: No (USB2E3373)
Number of Pixels in Processed Spectrum: 2048
>>>>>Begin Processed Spectral Data<<<<<
178.53	0.0000E00
178.91	0.0000E00
179.29	0.0000E00
179.67	0.0000E00
180.04	0.0000E00
180.42	0.0000E00
180.80	0.0000E00
181.18	0.0000E00
181.56	0.0000E00
181.94	0.0000E00
182.31	0.0000E00
182.69	0.0000E00
183.07	0.0000E00
183.45	0.0000E00
183.83	0.0000E00
184.20	0.0000E00
184.58	0.0000E00
184.96	0.0000E00
185.34	0.0000E00
185.72	0.0000E00
186.09	0.0000E00
186.47	0.0000E00
186.85	0.0000E00
187.23	0.0000E00
187.61	-0.0000E00
187.98	0.0000E00
188.36	0.0000E00
188.74	0.0000E00
189.12	0.0000E00
189.49	0.0000E00
189.87	0.0000E00
190.25	0.0000E00
190.63	0.0000E00
191.00	0.0000E00
191.38	0.0000E00
191.76	0.0000E00
192.14	0.0000E00
192.51	0.0000E00
192.89	0.0000E00
193.27	0.0000E00
193.65	0.0000E00
194.02	0.0000E00
194.40	0.0000E00
194.78	0.0000E00
195.15	0.0000E00
195.53	0.0000E00
195.91	0.0000E00
196.29	0.0000E00
196.66	0.0000E00
197.04	0.0000E00
197.42	0.0000E00
197.79	0.0000E00
198.17	0.0000E00
198.55	0.0000E00
198.92	0.0000E00
199.30	0.0000E00
199.68	0.0000E00
200.05	0.0000E00
200.43	0.0000E00
200.81	0.0000E00
201.18	0.0000E00
201.56	0.0000E00
201.94	0.0000E00
202.31	0.0000E00
202.69	0.0000E00
203.07	0.0000E00
203.44	0.0000E00
203.82	0.0000E00
204.19	0.0000E00
204.57	0.0000E00
204.95	0.0000E00
205.32	0.0000E00
205.70	0.0000E00
206.08	0.0000E00
206.45	0.0000E00
206.83	0.0000E00
207.20	0.0000E00
207.58	0.0000E00
207.96	0.0000E00
208.33	0.0000E00
208.71	0.0000E00
209.08	0.0000E00
209.46	0.0000E00
209.84	0.0000E00
210.21	0.0000E00
210.59	0.0000E00
210.96	0.0000E00
211.34	0.0000E00
211.71	0.0000E00
212.09	0.0000E00
212.46	0.0000E00
212.84	0.0000E00
213.22	0.0000E00
213.59	0.0000E00
213.97	0.0000E00
214.34	0.0000E00
214.72	0.0000E00
215.09	0.0000E00
215.47	0.0000E00
215.84	0.0000E00
216.22	0.0000E00
216.59	0.0000E00
216.97	0.0000E00
217.34	0.0000E00
217.72	0.0000E00
218.09	0.0000E00
218.47	0.0000E00
218.84	0.0000E00
219.22	0.0000E00
219.59	0.0000E00
219.97	0.0000E00
220.34	0.0000E00
220.72	0.0000E00
221.09	0.0000E00
221.47	0.0000E00
221.84	0.0000E00
222.22	0.0000E00
222.59	0.0000E00
222.97	0.0000E00
223.34	0.0000E00
223.72	0.0000E00
224.09	0.0000E00
224.46	0.0000E00
224.84	0.0000E00
225.21	0.0000E00
225.59	0.0000E00
225.96	0.0000E00
226.34	0.0000E00
226.71	0.0000E00
227.08	0.0000E00
227.46	0.0000E00
227.83	0.0000E00
228.21	0.0000E00
228.58	0.0000E00
228.95	0.0000E00
229.33	0.0000E00
229.70	0.0000E00
230.08	0.0000E00
230.45	0.0000E00
230.82	0.0000E00
231.20	0.0000E00
231.57	0.0000E00
231.95	0.0000E00
232.32	0.0000E00
232.69	0.0000E00
233.07	0.0000E00
233.44	-0.0000E00
233.81	0.0000E00
234.19	0.0000E00
234.56	0.0000E00
234.93	0.0000E00
235.31	0.0000E00
235.68	0.0000E00
236.05	0.0000E00
236.43	0.0000E00
236.80	-0.0000E00
237.17	0.0000E00
237.55	0.0000E00
237.92	0.0000E00
238.29	0.0000E00
238.67	0.0000E00
239.04	0.0000E00
239.41	0.0000E00
239.79	0.0000E00
240.16	0.0000E00
240.53	0.0000E00
240.91	0.0000E00
241.28	0.0000E00
241.65	0.0000E00
242.02	0.0000E00
242.40	0.0000E00
242.77	0.0000E00
243.14	0.0000E00
243.51	0.0000E00
243.89	0.0000E00
244.26	0.0000E00
244.63	0.0000E00
245.00	0.0000E00
245.38	0.0000E00
245.75	0.0000E00
246.12	0.0000E00
246.49	0.0000E00
246.87	0.0000E00
247.24	0.0000E00
247.61	0.0000E00
247.98	0.0000E00
248.36	0.0000E00
248.73	0.0000E00
249.10	0.0000E00
249.47	0.0000E00
249.84	0.0000E00
250.22	0.0000E00
250.59	0.0000E00
250.96	0.0000E00
251.33	0.0000E00
251.70	0.0000E00
252.08	0.0000E00
252.45	0.0000E00
252.82	0.0000E00
253.19	0.0000E00
253.56	0.0000E00
253.94	0.0000E00
254.31	0.0000E00
254.68	0.0000E00
255.05	0.0000E00
255.42	0.0000E00
255.79	0.0000E00
256.16	0.0000E00
256.54	0.0000E00
256.91	0.0000E00
257.28	0.0000E00
257.65	0.0000E00
258.02	0.0000E00
258.39	0.0000E00
258.76	0.0000E00
259.14	0.0000E00
259.51	0.0000E00
259.88	0.0000E00
260.25	0.0000E00
260.62	0.0000E00
260.99	0.0000E00
261.36	0.0000E00
261.73	0.0000E00
262.10	0.0000E00
262.47	0.0000E00
262.85	0.0000E00
263.22	0.0000E00
263.59	0.0000E00
263.96	0.0000E00
264.33	0.0000E00
264.70	0.0000E00
265.07	0.0000E00
265.44	0.0000E00
265.81	0.0000E00
266.18	0.0000E00
266.55	0.0000E00
266.92	0.0000E00
267.29	0.0000E00
267.66	0.0000E00
268.03	0.0000E00
268.40	0.0000E00
268.77	0.0000E00
269.14	0.0000E00
269.51	0.0000E00
269.88	0.0000E00
270.25	0.0000E00
270.62	0.0000E00
270.99	0.0000E00
271.36	0.0000E00
271.73	0.0000E00
272.10	0.0000E00
272.47	0.0000E00
272.84	0.0000E00
273.21	0.0000E00
273.58	0.0000E00
273.95	0.0000E00
274.32	0.0000E00
274.69	0.0000E00
275.06	0.0000E00
275.43	0.0000E00
275.80	0.0000E00
276.17	0.0000E00
276.54	0.0000E00
276.91	0.0000E00
277.28	0.0000E00
277.65	-0.0000E00
278.02	0.0000E00
278.39	0.0000E00
278.76	0.0000E00
279.13	0.0000E00
279.50	0.0000E00
279.87	0.0000E00
280.23	0.0000E00
280.60	0.0000E00
280.97	0.0000E00
281.34	0.0000E00
281.71	0.0000E00
282.08	0.0000E00
282.45	0.0000E00
282.82	0.0000E00
283.19	0.0000E00
283.56	0.0000E00
283.92	0.0000E00
284.29	0.0000E00
284.66	0.0000E00
285.03	0.0000E00
285.40	0.0000E00
285.77	0.0000E00
286.14	0.0000E00
286.51	0.0000E00
286.87	0.0000E00
287.24	0.0000E00
287.61	0.0000E00
287.98	0.0000E00
288.35	0.0000E00
288.72	0.0000E00
289.08	0.0000E00
289.45	0.0000E00
289.82	0.0000E00
290.19	0.0000E00
290.56	0.0000E00
290.93	0.0000E00
291.29	0.0000E00
291.66	0.0000E00
292.03	0.0000E00
292.40	0.0000E00
292.77	0.0000E00
293.13	0.0000E00
293.50	0.0000E00
293.87	0.0000E00
294.24	0.0000E00
294.60	0.0000E00
294.97	0.0000E00
295.34	0.0000E00
295.71	0.0000E00
296.08	0.0000E00
296.44	0.0000E00
296.81	0.0000E00
297.18	0.0000E00
297.55	0.0000E00
297.91	0.0000E00
298.28	0.0000E00
298.65	0.0000E00
299.02	0.0000E00
299.38	0.0000E00
299.75	0.0000E00
300.12	9.5637E-01
300.48	2.0793E00
300.85	2.2026E00
301.22	1.0581E00
301.59	1.7149E00
301.95	2.9431E00
302.32	1.0719E00
302.69	8.8797E-01
303.05	1.1760E00
303.42	1.9735E00
303.79	1.0463E00
304.15	9.4562E-01
304.52	8.6188E-01
304.89	1.0272E00
305.25	1.6136E00
305.62	1.1734E00
305.99	9.7858E-01
306.35	2.0156E00
306.72	9.7032E-01
307.09	1.6639E00
307.45	2.1320E00
307.82	1.1442E00
308.19	7.4155E00
308.55	1.1840E00
308.92	1.0944E00
309.29	1.3406E00
309.65	1.8443E00
310.02	1.3402E00
310.38	1.3401E00
310.75	9.5338E-01
311.12	1.4802E00
311.48	1.4841E00
311.85	9.3065E-01
312.22	1.1958E00
312.58	1.5005E00
312.95	1.4343E00
313.31	1.3764E00
313.68	1.1282E00
314.05	2.0412E00
314.41	9.9371E-01
314.78	2.5861E00
315.14	1.3586E00
315.51	1.4982E00
315.87	1.5089E00
316.24	1.8798E00
316.61	1.1094E00
316.97	2.4945E00
317.34	1.4217E00
317.70	1.6484E00
318.07	1.5828E00
318.43	9.5784E-01
318.80	1.1671E00
319.16	2.2738E00
319.53	9.0606E-01
319.89	1.4469E00
320.26	9.4627E-01
320.62	2.0770E00
320.99	1.7815E00
321.35	1.7968E00
321.72	1.0060E00
322.08	1.1414E00
322.45	1.3148E00
322.81	2.4738E00
323.18	1.1691E00
323.54	9.9237E-01
323.91	1.5172E00
324.27	1.1959E00
324.64	3.8495E00
325.00	4.3071E00
325.37	2.0518E00
325.73	2.4535E00
326.10	1.9726E00
326.46	1.4693E00
326.83	1.4240E00
327.19	1.7403E00
327.56	1.2181E00
327.92	2.5217E00
328.29	1.2265E00
328.65	9.9034E-01
329.01	1.2334E00
329.38	1.2745E00
329.74	1.5698E00
330.11	1.5116E00
330.47	3.1411E00
330.84	1.6342E00
331.20	8.6893E-01
331.56	4.0796E00
331.93	1.9411E00
332.29	1.7698E00
332.66	2.0286E00
333.02	1.7626E00
333.38	1.0923E00
333.75	2.3717E00
334.11	1.0587E00
334.48	1.6730E00
334.84	9.5434E-01
335.20	1.4273E00
335.57	1.6614E00
335.93	1.3723E00
336.29	1.4184E00
336.66	1.4167E00
337.02	1.2022E00
337.38	1.4696E00
337.75	1.1333E00
338.11	1.3676E00
338.47	1.0452E00
338.84	1.4210E00
339.20	1.5337E00
339.56	1.6667E00
339.93	1.5435E00
340.29	1.2208E00
340.65	1.0388E00
341.02	1.5690E00
341.38	1.0532E00
341.74	1.3334E00
342.11	4.6300E00
342.47	1.4997E00
342.83	1.3658E00
343.20	1.7104E00
343.56	1.4371E00
343.92	1.4050E00
344.28	1.0463E00
344.65	1.1665E00
345.01	9.7380E-01
345.37	1.1588E00
345.73	1.4267E00
346.10	1.3165E00
346.46	8.6154E-01
346.82	1.5138E00
347.19	1.6926E00
347.55	1.5419E00
347.91	2.0087E00
348.27	1.0798E00
348.63	1.5801E00
349.00	1.4963E00
349.36	1.3075E00
349.72	1.6697E00
350.08	1.2595E00
350.45	1.1271E00
350.81	1.3431E00
351.17	2.2281E00
351.53	1.8380E00
351.89	1.4363E00
352.26	9.2741E-01
352.62	1.0017E00
352.98	1.0901E00
353.34	1.2808E00
353.70	1.4241E00
354.07	1.1511E00
354.43	1.0620E00
354.79	1.4397E00
355.15	1.2161E00
355.51	1.5343E00
355.87	9.2990E-01
356.24	9.3321E-01
356.60	1.0067E00
356.96	1.0933E00
357.32	1.0559E00
357.68	1.2259E00
358.04	9.9185E-01
358.40	1.4321E00
358.77	1.1718E00
359.13	8.4467E-01
359.49	1.2133E00
359.85	1.0259E00
360.21	1.2872E00
360.57	9.5698E-01
360.93	1.2538E00
361.29	1.2141E00
361.66	9.1102E-01
362.02	9.1932E-01
362.38	1.0766E00
362.74	9.1237E-01
363.10	8.5884E-01
363.46	9.4640E-01
363.82	9.7336E-01
364.18	1.0643E00
364.54	9.6733E-01
364.90	8.7504E-01
365.26	1.4634E00
365.62	8.6134E-01
365.98	1.1292E00
366.35	1.1081E00
366.71	9.2928E-01
367.07	1.0975E00
367.43	1.0033E00
367.79	9.4910E-01
368.15	1.1026E00
368.51	1.1682E00
368.87	1.1633E00
369.23	9.6786E-01
369.59	1.0316E00
369.95	1.0854E00
370.31	9.3984E-01
370.67	8.8683E-01
371.03	9.8311E-01
371.39	1.0580E00
371.75	1.2088E00
372.11	1.0925E00
372.47	8.7374E-01
372.83	1.3016E00
373.19	1.1693E00
373.55	8.5346E-01
373.91	9.8816E-01
374.27	9.9713E-01
374.63	9.9569E-01
374.99	1.0047E00
375.35	8.8465E-01
375.71	8.8425E-01
376.07	8.8330E-01
376.42	1.0295E00
376.78	1.0390E00
377.14	8.1357E-01
377.50	9.9156E-01
377.86	9.2418E-01
378.22	7.9411E-01
378.58	8.5846E-01
378.94	8.4415E-01
379.30	9.7546E-01
379.66	8.8122E-01
380.02	8.2418E-01
380.38	9.4809E-01
380.74	7.8878E-01
381.09	8.6182E-01
381.45	7.5782E-01
381.81	8.4384E-01
382.17	9.1770E-01
382.53	8.0855E-01
382.89	9.2817E-01
383.25	6.9493E-01
383.61	8.0266E-01
383.97	7.7648E-01
384.32	8.8207E-01
384.68	8.3770E-01
385.04	8.7107E-01
385.40	8.1264E-01
385.76	8.6857E-01
386.12	8.2768E-01
386.48	7.8617E-01
386.83	7.7480E-01
387.19	8.0248E-01
387.55	8.6085E-01
387.91	7.7100E-01
388.27	8.1974E-01
388.62	8.1187E-01
388.98	8.2430E-01
389.34	7.9167E-01
389.70	8.3405E-01
390.06	8.1547E-01
390.42	8.0825E-01
390.77	7.9189E-01
391.13	7.6791E-01
391.49	8.2530E-01
391.85	7.5090E-01
392.20	8.0099E-01
392.56	7.9467E-01
392.92	7.7602E-01
393.28	7.6584E-01
393.64	8.4404E-01
393.99	7.4283E-01
394.35	7.9812E-01
394.71	8.6598E-01
395.07	8.2511E-01
395.42	7.5739E-01
395.78	7.9105E-01
396.14	7.3333E-01
396.50	7.3623E-01
396.85	7.3915E-01
397.21	7.3149E-01
397.57	8.1342E-01
397.92	7.8086E-01
398.28	7.4693E-01
398.64	8.4260E-01
399.00	7.0748E-01
399.35	6.7029E-01
399.71	7.1700E-01
400.07	7.1947E-01
400.42	7.2945E-01
400.78	7.2629E-01
401.14	7.1161E-01
401.49	7.3628E-01
401.85	6.7410E-01
402.21	6.6451E-01
402.57	6.8345E-01
402.92	6.9593E-01
403.28	6.6688E-01
403.63	6.8848E-01
403.99	7.4738E-01
404.35	6.7995E-01
404.70	6.5963E-01
405.06	6.4740E-01
405.42	6.8739E-01
405.77	6.7285E-01
406.13	6.2403E-01
406.49	6.6299E-01
406.84	6.3663E-01
407.20	6.3244E-01
407.55	6.9521E-01
407.91	7.0338E-01
408.27	6.4880E-01
408.62	6.2889E-01
408.98	6.8184E-01
409.34	6.7663E-01
409.69	6.7440E-01
410.05	6.5818E-01
410.40	6.3738E-01
410.76	6.2605E-01
411.11	6.1770E-01
411.47	6.8820E-01
411.83	6.2786E-01
412.18	6.3875E-01
412.54	6.4658E-01
412.89	6.6284E-01
413.25	6.3016E-01
413.60	6.1738E-01
413.96	6.5901E-01
414.31	6.3824E-01
414.67	6.4363E-01
415.03	6.6757E-01
415.38	6.6897E-01
415.74	6.6040E-01
416.09	6.7103E-01
416.45	6.6619E-01
416.80	6.4439E-01
417.16	6.4470E-01
417.51	6.4315E-01
417.87	6.3617E-01
418.22	6.0190E-01
418.58	6.1575E-01
418.93	6.2504E-01
419.29	6.4983E-01
419.64	6.3236E-01
420.00	6.1296E-01
420.35	6.0445E-01
420.71	6.0300E-01
421.06	6.0800E-01
421.42	6.1826E-01
421.77	6.2140E-01
422.12	6.0341E-01
422.48	5.6775E-01
422.83	6.3406E-01
423.19	5.8693E-01
423.54	6.0511E-01
423.90	6.0899E-01
424.25	5.9783E-01
424.61	6.1985E-01
424.96	5.8173E-01
425.31	5.5753E-01
425.67	5.6810E-01
426.02	5.7396E-01
426.38	5.8346E-01
426.73	5.5941E-01
427.09	5.8109E-01
427.44	5.7607E-01
427.79	5.4105E-01
428.15	5.9495E-01
428.50	5.6045E-01
428.85	5.8993E-01
429.21	5.4383E-01
429.56	5.1509E-01
429.92	5.3630E-01
430.27	5.3802E-01
430.62	5.4948E-01
430.98	5.6934E-01
431.33	5.5599E-01
431.68	5.4853E-01
432.04	5.4829E-01
432.39	5.2909E-01
432.74	5.5638E-01
433.10	5.2049E-01
433.45	5.6266E-01
433.80	5.4021E-01
434.16	5.5271E-01
434.51	5.3754E-01
434.86	5.4359E-01
435.22	5.2510E-01
435.57	5.7397E-01
435.92	5.5538E-01
436.28	5.4728E-01
436.63	5.2346E-01
436.98	5.3212E-01
437.34	5.5649E-01
437.69	5.3649E-01
438.04	5.1447E-01
438.39	5.4005E-01
438.75	5.2069E-01
439.10	5.1403E-01
439.45	5.4106E-01
439.81	5.2819E-01
440.16	5.0878E-01
440.51	5.1589E-01
440.86	5.0869E-01
441.22	5.1540E-01
441.57	5.2213E-01
441.92	4.9628E-01
442.27	5.2877E-01
442.63	5.1879E-01
442.98	5.3396E-01
443.33	5.3460E-01
443.68	5.1767E-01
444.03	4.8209E-01
444.39	4.8706E-01
444.74	5.1280E-01
445.09	5.1560E-01
445.44	5.3803E-01
445.79	4.7574E-01
446.15	5.0393E-01
446.50	5.0637E-01
446.85	4.7601E-01
447.20	4.8257E-01
447.55	5.0634E-01
447.91	5.0550E-01
448.26	4.9460E-01
448.61	4.9512E-01
448.96	4.9014E-01
449.31	4.8825E-01
449.66	5.0871E-01
450.02	4.9221E-01
450.37	4.9371E-01
450.72	4.8076E-01
451.07	5.1616E-01
451.42	5.0891E-01
451.77	4.9457E-01
452.12	4.8087E-01
452.47	5.2333E-01
452.83	4.6839E-01
453.18	5.0497E-01
453.53	4.8402E-01
453.88	4.6620E-01
454.23	4.7437E-01
454.58	4.8299E-01
454.93	4.8557E-01
455.28	4.8677E-01
455.63	4.8258E-01
455.98	4.6055E-01
456.34	4.8325E-01
456.69	4.7682E-01
457.04	4.6489E-01
457.39	4.5148E-01
457.74	4.4958E-01
458.09	4.6310E-01
458.44	4.4673E-01
458.79	4.3482E-01
459.14	4.4680E-01
459.49	4.6798E-01
459.84	4.4122E-01
460.19	4.6996E-01
460.54	4.6550E-01
460.89	4.3118E-01
461.24	4.7005E-01
461.59	4.5752E-01
461.94	4.6289E-01
462.29	4.2802E-01
462.64	4.5826E-01
462.99	4.5805E-01
463.34	4.7525E-01
463.69	4.3989E-01
464.04	4.3114E-01
464.39	4.3980E-01
464.74	4.4469E-01
465.09	4.5376E-01
465.44	4.4130E-01
465.79	4.4060E-01
466.14	4.4170E-01
466.49	4.3811E-01
466.84	4.4221E-01
467.19	4.4698E-01
467.54	4.4661E-01
467.89	4.2411E-01
468.24	4.1204E-01
468.59	4.2562E-01
468.94	4.1594E-01
469.29	4.1736E-01
469.64	4.3348E-01
469.99	4.1460E-01
470.34	3.9858E-01
470.68	4.3337E-01
471.03	4.0390E-01
471.38	4.0783E-01
471.73	3.9792E-01
472.08	3.8850E-01
472.43	3.8011E-01
472.78	3.9441E-01
473.13	3.9489E-01
473.48	3.8493E-01
473.83	3.7853E-01
474.17	3.8551E-01
474.52	3.8140E-01
474.87	3.6403E-01
475.22	3.6897E-01
475.57	3.5058E-01
475.92	3.3827E-01
476.27	3.5911E-01
476.61	3.4396E-01
476.96	3.3992E-01
477.31	3.2313E-01
477.66	3.3287E-01
478.01	3.2818E-01
478.36	3.2401E-01
478.70	3.2121E-01
479.05	3.2612E-01
479.40	3.0944E-01
479.75	3.1157E-01
480.10	3.0885E-01
480.45	3.0481E-01
480.79	3.0415E-01
481.14	3.1137E-01
481.49	3.0284E-01
481.84	2.9426E-01
482.19	2.9017E-01
482.53	2.9037E-01
482.88	2.8902E-01
483.23	2.8478E-01
483.58	2.8008E-01
483.92	2.8633E-01
484.27	2.7407E-01
484.62	2.7474E-01
484.97	2.6969E-01
485.31	2.6567E-01
485.66	2.7199E-01
486.01	2.7040E-01
486.36	2.6338E-01
486.70	2.6728E-01
487.05	2.6587E-01
487.40	2.6055E-01
487.75	2.5294E-01
488.09	2.5697E-01
488.44	2.6412E-01
488.79	2.5367E-01
489.13	2.5560E-01
489.48	2.5598E-01
489.83	2.5774E-01
490.17	2.4980E-01
490.52	2.5008E-01
490.87	2.5165E-01
491.22	2.5412E-01
491.56	2.4954E-01
491.91	2.5342E-01
492.26	2.5066E-01
492.60	2.4975E-01
492.95	2.5155E-01
493.30	2.5360E-01
493.64	2.4837E-01
493.99	2.5073E-01
494.34	2.4874E-01
494.68	2.4425E-01
495.03	2.5165E-01
495.37	2.4761E-01
495.72	2.4998E-01
496.07	2.4569E-01
496.41	2.4914E-01
496.76	2.4737E-01
497.11	2.4904E-01
497.45	2.4747E-01
497.80	2.4923E-01
498.14	2.4938E-01
498.49	2.4968E-01
498.84	2.4884E-01
499.18	2.4743E-01
499.53	2.5043E-01
499.87	2.4858E-01
500.22	2.5082E-01
500.56	2.4928E-01
500.91	2.4779E-01
501.26	2.4952E-01
501.60	2.4905E-01
501.95	2.4560E-01
502.29	2.4741E-01
502.64	2.4766E-01
502.98	2.4933E-01
503.33	2.4967E-01
503.67	2.4809E-01
504.02	2.4719E-01
504.36	2.4525E-01
504.71	2.4731E-01
505.06	2.4713E-01
505.40	2.4666E-01
505.75	2.4447E-01
506.09	2.4527E-01
506.44	2.4388E-01
506.78	2.4537E-01
507.13	2.4521E-01
507.47	2.4284E-01
507.82	2.4197E-01
508.16	2.4248E-01
508.51	2.4161E-01
508.85	2.4093E-01
509.19	2.4064E-01
509.54	2.4376E-01
509.88	2.4207E-01
510.23	2.3959E-01
510.57	2.3889E-01
510.92	2.4227E-01
511.26	2.4002E-01
511.61	2.4004E-01
511.95	2.4047E-01
512.30	2.3879E-01
512.64	2.3963E-01
512.98	2.3903E-01
513.33	2.3855E-01
513.67	2.3836E-01
514.02	2.3695E-01
514.36	2.3639E-01
514.70	2.3728E-01
515.05	2.3639E-01
515.39	2.3693E-01
515.74	2.3434E-01
516.08	2.3697E-01
516.42	2.3454E-01
516.77	2.3517E-01
517.11	2.3368E-01
517.46	2.3606E-01
517.80	2.3361E-01
518.14	2.3442E-01
518.49	2.3438E-01
518.83	2.3179E-01
519.17	2.3559E-01
519.52	2.3309E-01
519.86	2.3275E-01
520.20	2.3054E-01
520.55	2.3241E-01
520.89	2.3311E-01
521.23	2.3292E-01
521.58	2.3240E-01
521.92	2.3639E-01
522.26	2.3481E-01
522.61	2.3161E-01
522.95	2.3288E-01
523.29	2.3270E-01
523.64	2.3181E-01
523.98	2.3191E-01
524.32	2.3402E-01
524.66	2.3358E-01
525.01	2.3522E-01
525.35	2.3540E-01
525.69	2.3569E-01
526.04	2.3647E-01
526.38	2.3283E-01
526.72	2.3569E-01
527.06	2.3548E-01
527.41	2.3923E-01
527.75	2.3960E-01
528.09	2.3660E-01
528.43	2.3843E-01
528.78	2.3608E-01
529.12	2.4233E-01
529.46	2.4042E-01
529.80	2.4004E-01
530.15	2.4098E-01
530.49	2.4227E-01
530.83	2.4310E-01
531.17	2.4330E-01
531.51	2.4407E-01
531.86	2.4497E-01
532.20	2.4703E-01
532.54	2.4724E-01
532.88	2.4740E-01
533.22	2.4838E-01
533.57	2.4916E-01
533.91	2.5153E-01
534.25	2.5133E-01
534.59	2.5008E-01
534.93	2.5157E-01
535.27	2.5262E-01
535.62	2.5493E-01
535.96	2.5659E-01
536.30	2.5679E-01
536.64	2.5749E-01
536.98	2.5821E-01
537.32	2.5832E-01
537.66	2.5789E-01
538.01	2.6151E-01
538.35	2.6296E-01
538.69	2.6074E-01
539.03	2.6637E-01
539.37	2.6298E-01
539.71	2.6470E-01
540.05	2.6513E-01
540.39	2.6556E-01
540.73	2.6793E-01
541.07	2.6604E-01
541.42	2.6611E-01
541.76	2.6671E-01
542.10	2.6695E-01
542.44	2.6890E-01
542.78	2.6930E-01
543.12	2.6925E-01
543.46	2.7470E-01
543.80	2.7174E-01
544.14	2.7280E-01
544.48	2.6981E-01
544.82	2.7290E-01
545.16	2.7301E-01
545.50	2.7185E-01
545.84	2.7634E-01
546.18	2.7361E-01
546.52	2.7652E-01
546.86	2.7273E-01
547.20	2.7542E-01
547.54	2.8096E-01
547.88	2.7594E-01
548.22	2.7689E-01
548.56	2.7742E-01
548.90	2.7553E-01
549.24	2.7944E-01
549.58	2.7895E-01
549.92	2.7874E-01
550.26	2.8186E-01
550.60	2.8003E-01
550.94	2.7599E-01
551.28	2.8268E-01
551.62	2.8015E-01
551.96	2.8284E-01
552.30	2.8144E-01
552.64	2.8347E-01
552.98	2.8115E-01
553.32	2.8138E-01
553.66	2.7931E-01
554.00	2.8048E-01
554.34	2.8302E-01
554.68	2.8408E-01
555.02	2.8303E-01
555.36	2.8263E-01
555.69	2.8557E-01
556.03	2.8460E-01
556.37	2.8453E-01
556.71	2.8315E-01
557.05	2.8184E-01
557.39	2.8354E-01
557.73	2.8313E-01
558.07	2.8491E-01
558.41	2.8319E-01
558.75	2.8441E-01
559.08	2.8520E-01
559.42	2.8065E-01
559.76	2.8479E-01
560.10	2.8411E-01
560.44	2.8486E-01
560.78	2.8227E-01
561.12	2.8387E-01
561.45	2.8469E-01
561.79	2.8536E-01
562.13	2.8396E-01
562.47	2.8402E-01
562.81	2.8824E-01
563.15	2.8735E-01
563.48	2.8546E-01
563.82	2.8360E-01
564.16	2.8601E-01
564.50	2.8703E-01
564.84	2.8682E-01
565.17	2.8627E-01
565.51	2.8310E-01
565.85	2.8691E-01
566.19	2.8531E-01
566.52	2.8732E-01
566.86	2.8624E-01
567.20	2.8737E-01
567.54	2.8947E-01
567.88	2.8656E-01
568.21	2.8870E-01
568.55	2.8793E-01
568.89	2.8800E-01
569.23	2.9018E-01
569.56	2.8743E-01
569.90	2.8800E-01
570.24	2.9049E-01
570.57	2.8931E-01
570.91	2.9162E-01
571.25	2.8993E-01
571.59	2.9029E-01
571.92	2.9030E-01
572.26	2.9215E-01
572.60	2.9462E-01
572.93	2.9256E-01
573.27	2.9631E-01
573.61	2.9609E-01
573.95	2.9238E-01
574.28	2.9634E-01
574.62	2.9615E-01
574.96	2.9702E-01
575.29	2.9502E-01
575.63	2.9900E-01
575.97	2.9842E-01
576.30	3.0591E-01
576.64	3.0062E-01
576.98	3.0192E-01
577.31	3.0396E-01
577.65	3.0460E-01
577.98	3.0435E-01
578.32	3.0797E-01
578.66	3.0679E-01
578.99	3.1120E-01
579.33	3.1062E-01
579.67	3.1039E-01
580.00	3.1131E-01
580.34	3.1452E-01
580.67	3.1391E-01
581.01	3.1410E-01
581.35	3.1722E-01
581.68	3.1816E-01
582.02	3.1723E-01
582.35	3.1798E-01
582.69	3.2006E-01
583.02	3.2543E-01
583.36	3.2272E-01
583.70	3.2197E-01
584.03	3.2458E-01
584.37	3.2492E-01
584.70	3.2895E-01
585.04	3.2977E-01
585.37	3.2696E-01
585.71	3.3133E-01
586.04	3.3061E-01
586.38	3.2866E-01
586.72	3.3348E-01
587.05	3.3284E-01
587.39	3.3441E-01
587.72	3.3382E-01
588.06	3.3638E-01
588.39	3.3507E-01
588.73	3.4094E-01
589.06	3.3962E-01
589.40	3.4080E-01
589.73	3.4294E-01
590.07	3.4504E-01
590.40	3.4636E-01
590.73	3.5081E-01
591.07	3.4721E-01
591.40	3.4844E-01
591.74	3.4544E-01
592.07	3.5084E-01
592.41	3.5106E-01
592.74	3.4986E-01
593.08	3.5132E-01
593.41	3.5286E-01
593.75	3.4961E-01
594.08	3.5715E-01
594.41	3.5285E-01
594.75	3.5646E-01
595.08	3.5643E-01
595.42	3.5232E-01
595.75	3.5512E-01
596.09	3.5508E-01
596.42	3.5576E-01
596.75	3.5882E-01
597.09	3.6207E-01
597.42	3.5673E-01
597.75	3.6053E-01
598.09	3.6042E-01
598.42	3.5850E-01
598.76	3.6191E-01
599.09	3.6204E-01
599.42	3.6461E-01
599.76	3.6416E-01
600.09	3.6436E-01
600.42	3.6700E-01
600.76	3.6336E-01
601.09	3.6555E-01
601.42	3.7237E-01
601.76	3.6605E-01
602.09	3.6624E-01
602.42	3.6780E-01
602.76	3.6850E-01
603.09	3.6558E-01
603.42	3.6832E-01
603.76	3.6737E-01
604.09	3.6802E-01
604.42	3.6844E-01
604.76	3.6850E-01
605.09	3.7203E-01
605.42	3.6932E-01
605.75	3.7205E-01
606.09	3.7099E-01
606.42	3.6967E-01
606.75	3.7307E-01
607.09	3.7191E-01
607.42	3.7183E-01
607.75	3.7364E-01
608.08	3.7397E-01
608.42	3.7447E-01
608.75	3.7278E-01
609.08	3.7753E-01
609.41	3.7621E-01
609.75	3.7524E-01
610.08	3.7542E-01
610.41	3.7628E-01
610.74	3.7564E-01
611.07	3.7834E-01
611.41	3.7401E-01
611.74	3.7843E-01
612.07	3.8219E-01
612.40	3.7602E-01
612.73	3.7628E-01
613.07	3.8160E-01
613.40	3.7729E-01
613.73	3.7708E-01
614.06	3.7960E-01
614.39	3.8051E-01
614.72	3.8286E-01
615.06	3.8046E-01
615.39	3.8586E-01
615.72	3.8056E-01
616.05	3.8552E-01
616.38	3.8233E-01
616.71	3.8484E-01
617.05	3.8086E-01
617.38	3.8613E-01
617.71	3.7970E-01
618.04	3.8693E-01
618.37	3.8219E-01
618.70	3.8098E-01
619.03	3.8602E-01
619.36	3.7769E-01
619.69	3.8666E-01
620.03	3.8044E-01
620.36	3.8465E-01
620.69	3.8308E-01
621.02	3.8449E-01
621.35	3.8130E-01
621.68	3.7973E-01
622.01	3.7936E-01
622.34	3.8255E-01
622.67	3.8221E-01
623.00	3.8177E-01
623.33	3.8042E-01
623.66	3.8244E-01
623.99	3.8219E-01
624.32	3.7845E-01
624.65	3.8079E-01
624.99	3.8118E-01
625.32	3.8324E-01
625.65	3.7920E-01
625.98	3.7776E-01
626.31	3.8160E-01
626.64	3.8284E-01
626.97	3.8095E-01
627.30	3.7837E-01
627.63	3.8010E-01
627.96	3.8155E-01
628.29	3.7662E-01
628.62	3.8213E-01
628.95	3.8116E-01
629.28	3.7434E-01
629.61	3.8594E-01
629.94	3.7995E-01
630.26	3.8217E-01
630.59	3.8495E-01
630.92	3.8216E-01
631.25	3.8463E-01
631.58	3.8796E-01
631.91	3.8271E-01
632.24	3.9083E-01
632.57	3.8663E-01
632.90	3.8867E-01
633.23	3.8921E-01
633.56	3.9001E-01
633.89	3.9023E-01
634.22	3.9036E-01
634.55	3.9303E-01
634.88	3.9822E-01
635.20	3.9391E-01
635.53	3.9806E-01
635.86	3.9860E-01
636.19	4.0256E-01
636.52	4.0350E-01
636.85	4.0544E-01
637.18	4.0836E-01
637.51	4.0771E-01
637.83	4.0831E-01
638.16	4.0603E-01
638.49	4.1397E-01
638.82	4.1110E-01
639.15	4.1709E-01
639.48	4.1920E-01
639.81	4.2338E-01
640.13	4.1857E-01
640.46	4.2617E-01
640.79	4.2292E-01
641.12	4.3020E-01
641.45	4.2595E-01
641.77	4.2626E-01
642.10	4.3436E-01
642.43	4.3618E-01
642.76	4.3831E-01
643.09	4.3435E-01
643.41	4.3939E-01
643.74	4.4162E-01
644.07	4.3984E-01
644.40	4.4320E-01
644.73	4.4733E-01
645.05	4.5048E-01
645.38	4.5064E-01
645.71	4.5738E-01
646.04	4.5549E-01
646.36	4.5450E-01
646.69	4.6254E-01
647.02	4.6175E-01
647.35	4.6116E-01
647.67	4.6450E-01
648.00	4.6357E-01
648.33	4.7112E-01
648.66	4.6695E-01
648.98	4.7145E-01
649.31	4.7071E-01
649.64	4.7214E-01
649.96	4.7534E-01
650.29	4.8171E-01
650.62	4.8022E-01
650.94	4.8233E-01
651.27	4.8203E-01
651.60	4.8440E-01
651.92	4.8845E-01
652.25	4.9145E-01
652.58	4.8895E-01
652.90	4.9187E-01
653.23	4.9216E-01
653.56	4.9603E-01
653.88	4.9891E-01
654.21	4.9688E-01
654.54	5.0055E-01
654.86	5.0611E-01
655.19	4.9763E-01
655.52	5.0685E-01
655.84	5.0334E-01
656.17	5.0963E-01
656.49	5.1058E-01
656.82	5.0840E-01
657.15	5.1318E-01
657.47	5.1205E-01
657.80	5.1547E-01
658.13	5.1389E-01
658.45	5.1763E-01
658.78	5.2085E-01
659.10	5.2101E-01
659.43	5.2583E-01
659.75	5.2182E-01
660.08	5.2228E-01
660.41	5.2776E-01
660.73	5.2693E-01
661.06	5.2969E-01
661.38	5.2930E-01
661.71	5.3360E-01
662.03	5.2936E-01
662.36	5.3552E-01
662.68	5.3722E-01
663.01	5.2996E-01
663.33	5.3960E-01
663.66	5.4182E-01
663.98	5.4326E-01
664.31	5.3663E-01
664.63	5.4775E-01
664.96	5.3887E-01
665.28	5.4490E-01
665.61	5.4412E-01
665.93	5.4951E-01
666.26	5.4851E-01
666.58	5.5127E-01
666.91	5.4942E-01
667.23	5.5452E-01
667.56	5.5306E-01
667.88	5.5178E-01
668.21	5.5751E-01
668.53	5.5582E-01
668.86	5.5875E-01
669.18	5.5597E-01
669.50	5.6614E-01
669.83	5.6649E-01
670.15	5.6797E-01
670.48	5.6861E-01
670.80	5.6428E-01
671.13	5.6450E-01
671.45	5.7001E-01
671.77	5.6877E-01
672.10	5.6770E-01
672.42	5.7672E-01
672.75	5.6993E-01
673.07	5.7761E-01
673.39	5.7776E-01
673.72	5.7769E-01
674.04	5.8235E-01
674.37	5.8180E-01
674.69	5.8069E-01
675.01	5.8505E-01
675.34	5.8554E-01
675.66	5.8821E-01
675.98	5.8082E-01
676.31	5.9036E-01
676.63	5.9131E-01
676.95	5.9012E-01
677.28	5.9486E-01
677.60	5.9322E-01
677.92	5.9729E-01
678.25	6.0142E-01
678.57	6.0164E-01
678.89	6.0098E-01
679.22	6.0239E-01
679.54	6.0201E-01
679.86	6.0637E-01
680.18	6.0583E-01
680.51	6.0437E-01
680.83	6.2011E-01
681.15	6.1289E-01
681.48	6.1415E-01
681.80	6.1568E-01
682.12	6.1335E-01
682.44	6.2168E-01
682.77	6.2110E-01
683.09	6.2553E-01
683.41	6.2496E-01
683.73	6.3072E-01
684.06	6.3120E-01
684.38	6.2927E-01
684.70	6.3195E-01
685.02	6.3127E-01
685.34	6.3813E-01
685.67	6.3409E-01
685.99	6.4759E-01
686.31	6.4142E-01
686.63	6.4781E-01
686.96	6.5108E-01
687.28	6.5303E-01
687.60	6.5105E-01
687.92	6.5246E-01
688.24	6.6434E-01
688.56	6.6281E-01
688.89	6.6091E-01
689.21	6.6520E-01
689.53	6.6527E-01
689.85	6.7690E-01
690.17	6.7110E-01
690.49	6.8045E-01
690.82	6.8001E-01
691.14	6.8405E-01
691.46	6.8185E-01
691.78	6.8937E-01
692.10	6.8582E-01
692.42	6.9048E-01
692.74	6.9511E-01
693.06	6.9801E-01
693.39	7.0402E-01
693.71	7.1214E-01
694.03	7.0648E-01
694.35	7.0642E-01
694.67	7.1810E-01
694.99	7.1833E-01
695.31	7.2405E-01
695.63	7.2427E-01
695.95	7.2538E-01
696.27	7.2663E-01
696.59	7.2990E-01
696.91	7.3791E-01
697.23	7.4312E-01
697.56	7.4333E-01
697.88	7.4835E-01
698.20	7.4615E-01
698.52	7.4963E-01
698.84	7.6023E-01
699.16	7.6522E-01
699.48	7.6235E-01
699.80	7.6533E-01
700.12	7.7854E-01
700.44	7.7524E-01
700.76	7.7742E-01
701.08	7.8403E-01
701.40	7.8722E-01
701.72	7.8893E-01
702.04	7.9486E-01
702.36	7.9409E-01
702.68	8.0058E-01
703.00	8.1146E-01
703.32	8.0506E-01
703.64	8.1475E-01
703.96	8.0514E-01
704.28	8.1742E-01
704.60	8.2915E-01
704.91	8.2574E-01
705.23	8.3310E-01
705.55	8.3900E-01
705.87	8.4447E-01
706.19	8.4347E-01
706.51	8.4107E-01
706.83	8.3922E-01
707.15	8.7124E-01
707.47	8.6018E-01
707.79	8.6593E-01
708.11	8.6975E-01
708.43	8.7195E-01
708.74	8.7837E-01
709.06	8.8771E-01
709.38	8.8749E-01
709.70	8.8860E-01
710.02	8.9445E-01
710.34	8.8803E-01
710.66	9.0391E-01
710.98	9.0830E-01
711.29	9.1353E-01
711.61	9.3005E-01
711.93	9.2457E-01
712.25	9.2477E-01
712.57	9.3636E-01
712.89	9.4219E-01
713.20	9.4474E-01
713.52	9.5329E-01
713.84	9.5396E-01
714.16	9.4851E-01
714.48	9.5795E-01
714.80	9.7214E-01
715.11	9.6789E-01
715.43	9.7958E-01
715.75	9.7908E-01
716.07	9.9547E-01
716.39	9.7730E-01
716.70	9.9080E-01
717.02	9.8671E-01
717.34	1.0151E00
717.66	1.0063E00
717.97	1.0202E00
718.29	1.0303E00
718.61	1.0309E00
718.93	1.0327E00
719.24	1.0375E00
719.56	1.0576E00
719.88	1.0468E00
720.20	1.0674E00
720.51	1.0817E00
720.83	1.0685E00
721.15	1.0884E00
721.46	1.0948E00
721.78	1.1012E00
722.10	1.1153E00
722.42	1.1181E00
722.73	1.1185E00
723.05	1.1194E00
723.37	1.1336E00
723.68	1.1453E00
724.00	1.1455E00
724.32	1.1665E00
724.63	1.1544E00
724.95	1.1692E00
725.27	1.1703E00
725.58	1.1691E00
725.90	1.1644E00
726.22	1.1911E00
726.53	1.1796E00
726.85	1.1913E00
727.16	1.1957E00
727.48	1.1912E00
727.80	1.2028E00
728.11	1.2070E00
728.43	1.2121E00
728.74	1.2102E00
729.06	1.2162E00
729.38	1.2205E00
729.69	1.2178E00
730.01	1.2360E00
730.32	1.2338E00
730.64	1.2364E00
730.96	1.2256E00
731.27	1.2562E00
731.59	1.2417E00
731.90	1.2498E00
732.22	1.2565E00
732.53	1.2665E00
732.85	1.2660E00
733.16	1.2639E00
733.48	1.2605E00
733.80	1.2667E00
734.11	1.2787E00
734.43	1.2941E00
734.74	1.2977E00
735.06	1.3010E00
735.37	1.3107E00
735.69	1.3142E00
736.00	1.3039E00
736.32	1.3196E00
736.63	1.3137E00
736.95	1.3297E00
737.26	1.3406E00
737.58	1.3344E00
737.89	1.3631E00
738.21	1.3492E00
738.52	1.3485E00
738.83	1.3651E00
739.15	1.3521E00
739.46	1.3698E00
739.78	1.3689E00
740.09	1.3810E00
740.41	1.3684E00
740.72	1.3767E00
741.04	1.3749E00
741.35	1.3755E00
741.66	1.4010E00
741.98	1.3895E00
742.29	1.3852E00
742.61	1.3958E00
742.92	1.4014E00
743.23	1.3994E00
743.55	1.4026E00
743.86	1.4017E00
744.18	1.4089E00
744.49	1.4097E00
744.80	1.3993E00
745.12	1.3983E00
745.43	1.4072E00
745.74	1.4031E00
746.06	1.4047E00
746.37	1.3940E00
746.68	1.4068E00
747.00	1.3941E00
747.31	1.4094E00
747.62	1.3913E00
747.94	1.4252E00
748.25	1.4087E00
748.56	1.4066E00
748.88	1.3943E00
749.19	1.4129E00
749.50	1.4001E00
749.82	1.4069E00
750.13	1.4170E00
750.44	1.4043E00
750.75	1.4043E00
751.07	1.4103E00
751.38	1.4007E00
751.69	1.3995E00
752.01	1.4150E00
752.32	1.4238E00
752.63	1.4154E00
752.94	1.4121E00
753.26	1.4181E00
753.57	1.4267E00
753.88	1.4388E00
754.19	1.4210E00
754.51	1.4265E00
754.82	1.4432E00
755.13	1.4420E00
755.44	1.4517E00
755.75	1.4404E00
756.07	1.4485E00
756.38	1.4560E00
756.69	1.4607E00
757.00	1.4592E00
757.31	1.4884E00
757.63	1.4827E00
757.94	1.4905E00
758.25	1.5015E00
758.56	1.4844E00
758.87	1.5023E00
759.18	1.5070E00
759.50	1.5106E00
759.81	1.5148E00
760.12	1.5342E00
760.43	1.5436E00
760.74	1.5549E00
761.05	1.5521E00
761.36	1.5644E00
761.67	1.5693E00
761.99	1.5762E00
762.30	1.5748E00
762.61	1.5938E00
762.92	1.6123E00
763.23	1.6103E00
763.54	1.6344E00
763.85	1.6327E00
764.16	1.6566E00
764.47	1.6720E00
764.78	1.6896E00
765.10	1.6907E00
765.41	1.6942E00
765.72	1.7083E00
766.03	1.7487E00
766.34	1.7559E00
766.65	1.7431E00
766.96	1.7911E00
767.27	1.7805E00
767.58	1.7782E00
767.89	1.8064E00
768.20	1.8244E00
768.51	1.8224E00
768.82	1.8344E00
769.13	1.8488E00
769.44	1.8870E00
769.75	1.9003E00
770.06	1.9199E00
770.37	1.8975E00
770.68	1.9397E00
770.99	1.9608E00
771.30	1.9840E00
771.61	2.0206E00
771.92	2.0131E00
772.23	2.0132E00
772.54	2.0534E00
772.85	2.0416E00
773.16	2.0588E00
773.47	2.1017E00
773.78	2.0819E00
774.09	2.1323E00
774.39	2.1277E00
774.70	2.1632E00
775.01	2.1805E00
775.32	2.2042E00
775.63	2.2187E00
775.94	2.2435E00
776.25	2.2245E00
776.56	2.2605E00
776.87	2.3322E00
777.18	2.3001E00
777.48	2.3441E00
777.79	2.3641E00
778.10	2.3808E00
778.41	2.3956E00
778.72	2.4354E00
779.03	2.4377E00
779.34	2.4672E00
779.65	2.4709E00
779.95	2.4987E00
780.26	2.5166E00
780.57	2.5264E00
780.88	2.5587E00
781.19	2.5723E00
781.50	2.5861E00
781.80	2.6216E00
782.11	2.6582E00
782.42	2.6692E00
782.73	2.6389E00
783.04	2.7328E00
783.34	2.7199E00
783.65	2.7757E00
783.96	2.7839E00
784.27	2.7925E00
784.57	2.7787E00
784.88	2.8328E00
785.19	2.8486E00
785.50	2.8759E00
785.81	2.9199E00
786.11	2.9013E00
786.42	2.9415E00
786.73	3.0035E00
787.04	3.0175E00
787.34	3.0372E00
787.65	3.0033E00
787.96	3.1099E00
788.26	3.0847E00
788.57	3.1650E00
788.88	3.1020E00
789.19	3.2184E00
789.49	3.1986E00
789.80	3.2770E00
790.11	3.2788E00
790.41	3.2569E00
790.72	3.3477E00
791.03	3.3818E00
791.33	3.3639E00
791.64	3.4388E00
791.95	3.4234E00
792.25	3.4860E00
792.56	3.4872E00
792.87	3.4808E00
793.17	3.5041E00
793.48	3.5320E00
793.79	3.6189E00
794.09	3.6338E00
794.40	3.6121E00
794.70	3.5934E00
795.01	3.7062E00
795.32	3.7005E00
795.62	3.7375E00
795.93	3.7546E00
796.23	3.7868E00
796.54	3.8126E00
796.85	3.8597E00
797.15	3.8943E00
797.46	3.8487E00
797.76	3.9459E00
798.07	3.9828E00
798.37	4.0113E00
798.68	4.0433E00
798.99	4.0705E00
799.29	4.0758E00
799.60	4.1577E00
799.90	4.1579E00
800.21	4.2543E00
800.51	4.2406E00
800.82	4.2436E00
801.12	4.3104E00
801.43	4.3418E00
801.73	4.3286E00
802.04	4.4281E00
802.34	4.4158E00
802.65	4.4669E00
802.95	4.5371E00
803.26	4.5229E00
803.56	4.5005E00
803.87	4.5908E00
804.17	4.6597E00
804.48	4.6202E00
804.78	4.6821E00
805.09	4.7649E00
805.39	4.6846E00
805.70	4.7466E00
806.00	4.8242E00
806.30	4.8268E00
806.61	4.8512E00
806.91	4.8597E00
807.22	4.9700E00
807.52	4.9692E00
807.83	4.9875E00
808.13	5.0720E00
808.43	4.9920E00
808.74	5.0539E00
809.04	5.1125E00
809.35	5.1637E00
809.65	5.2342E00
809.95	5.2478E00
810.26	5.3707E00
810.56	5.2853E00
810.86	5.4954E00
811.17	5.4125E00
811.47	5.5611E00
811.77	5.4844E00
812.08	5.4710E00
812.38	5.5960E00
812.69	5.5726E00
812.99	5.5954E00
813.29	5.6630E00
813.59	5.7235E00
813.90	5.8581E00
814.20	5.7904E00
814.50	5.9566E00
814.81	5.7824E00
815.11	6.0280E00
815.41	6.0419E00
815.72	6.0643E00
816.02	6.1095E00
816.32	6.2322E00
816.62	6.0013E00
816.93	6.1958E00
817.23	6.3416E00
817.53	6.1511E00
817.84	6.3485E00
818.14	6.4092E00
818.44	6.3402E00
818.74	6.3745E00
819.04	6.7046E00
819.35	6.5997E00
819.65	6.4677E00
819.95	6.6695E00
820.25	6.7753E00
820.56	6.6487E00
820.86	6.7689E00
821.16	6.7745E00
821.46	6.9917E00
821.76	6.7258E00
822.07	6.9121E00
822.37	7.0672E00
822.67	7.1855E00
822.97	7.3181E00
823.27	7.1690E00
823.57	7.1349E00
823.88	7.3344E00
824.18	7.1959E00
824.48	7.4196E00
824.78	7.6352E00
825.08	7.4490E00
825.38	7.5949E00
825.69	7.6025E00
825.99	7.6383E00
826.29	7.4853E00
826.59	7.7203E00
826.89	7.8997E00
827.19	7.6992E00
827.49	7.9910E00
827.79	7.9119E00
828.09	8.1137E00
828.39	8.1321E00
828.70	8.1084E00
829.00	7.9580E00
829.30	8.1290E00
829.60	8.2971E00
829.90	8.2081E00
830.20	8.3070E00
830.50	8.5728E00
830.80	8.5394E00
831.10	8.4537E00
831.40	8.6503E00
831.70	8.7268E00
832.00	8.7920E00
832.30	8.8505E00
832.60	8.7213E00
832.90	8.9232E00
833.20	8.8387E00
833.50	9.0089E00
833.80	9.0748E00
834.10	9.2021E00
834.40	9.1353E00
834.70	9.2457E00
835.00	9.3709E00
835.30	9.3115E00
835.60	9.4517E00
835.90	9.5389E00
836.20	9.6857E00
836.50	9.7372E00
836.80	9.5832E00
837.10	9.7245E00
837.40	9.7530E00
837.70	9.8352E00
838.00	9.9289E00
838.30	1.0188E01
838.60	1.0053E01
838.90	1.0296E01
839.19	1.0399E01
839.49	1.0588E01
839.79	1.0104E01
840.09	1.0595E01
840.39	1.0385E01
840.69	1.0549E01
840.99	1.0871E01
841.29	1.0756E01
841.59	1.0884E01
841.88	1.1058E01
842.18	1.0940E01
842.48	1.1137E01
842.78	1.1208E01
843.08	1.1375E01
843.38	1.1319E01
843.68	1.1820E01
843.97	1.1663E01
844.27	1.1708E01
844.57	1.1585E01
844.87	1.1669E01
845.17	1.2107E01
845.47	1.1727E01
845.76	1.2190E01
846.06	1.2120E01
846.36	1.2187E01
846.66	1.2181E01
846.96	1.2161E01
847.25	1.2712E01
847.55	1.2369E01
847.85	1.2617E01
848.15	1.2742E01
848.44	1.2724E01
848.74	1.2836E01
849.04	1.3292E01
849.34	1.3069E01
849.63	1.3191E01
849.93	1.3377E01
850.23	1.3452E01
850.53	1.3623E01
850.82	1.3652E01
851.12	1.4095E01
851.42	1.3765E01
851.71	1.3903E01
852.01	1.4109E01
852.31	1.4038E01
852.61	1.4590E01
852.90	1.4224E01
853.20	1.4841E01
853.50	1.4654E01
853.79	1.4729E01
854.09	1.4751E01
854.39	1.5148E01
854.68	1.5342E01
854.98	1.5693E01
855.28	1.5506E01
855.57	1.5491E01
855.87	1.5703E01
856.17	1.5423E01
856.46	1.5943E01
856.76	1.5809E01
857.05	1.6297E01
857.35	1.6586E01
857.65	1.6556E01
857.94	1.6456E01
858.24	1.6389E01
858.53	1.6753E01
858.83	1.7594E01
859.13	1.7247E01
859.42	1.7204E01
859.72	1.7281E01
860.01	1.7745E01
860.31	1.7495E01
860.60	1.8145E01
860.90	1.8162E01
861.20	1.7856E01
861.49	1.8147E01
861.79	1.8413E01
862.08	1.8562E01
862.38	1.8581E01
862.67	1.8949E01
862.97	1.8992E01
863.26	1.9714E01
863.56	1.9622E01
863.85	2.0149E01
864.15	2.0578E01
864.44	2.0279E01
864.74	2.0052E01
865.03	2.0845E01
865.33	2.1018E01
865.62	2.1037E01
865.92	2.0777E01
866.21	2.1145E01
866.51	2.1429E01
866.80	2.2039E01
867.10	2.1464E01
867.39	2.2409E01
867.69	2.2376E01
867.98	2.2747E01
868.27	2.3025E01
868.57	2.3591E01
868.86	2.3188E01
869.16	2.2906E01
869.45	2.4053E01
869.75	2.3556E01
870.04	2.4052E01
870.33	2.4478E01
870.63	2.4810E01
870.92	2.5024E01
871.22	2.5723E01
871.51	2.5822E01
871.80	2.5442E01
872.10	2.5442E01
>>>>>End Processed Spectral Data<<<<<
