SpectraSuite Data File
++++++++++++++++++++++++++++++++++++
Date: Fri May 15 10:58:51 PDT 2015
User: schluterlab
Dark Spectrum Present: Yes
Reference Spectrum Present: No
Number of Sampled Component Spectra: 1
Spectrometers: USB2E3373
Integration Time (usec): 2300000 (USB2E3373)
Spectra Averaged: 3 (USB2E3373)
Boxcar Smoothing: 0 (USB2E3373)
Correct for Electrical Dark: No (USB2E3373)
Strobe/Lamp Enabled: No (USB2E3373)
Correct for Detector Non-linearity: No (USB2E3373)
Correct for Stray Light: No (USB2E3373)
Number of Pixels in Processed Spectrum: 2048
>>>>>Begin Processed Spectral Data<<<<<
178.53	0.0000E00
178.91	0.0000E00
179.29	0.0000E00
179.67	0.0000E00
180.04	0.0000E00
180.42	0.0000E00
180.80	0.0000E00
181.18	0.0000E00
181.56	0.0000E00
181.94	0.0000E00
182.31	0.0000E00
182.69	0.0000E00
183.07	0.0000E00
183.45	0.0000E00
183.83	0.0000E00
184.20	0.0000E00
184.58	0.0000E00
184.96	0.0000E00
185.34	0.0000E00
185.72	0.0000E00
186.09	0.0000E00
186.47	0.0000E00
186.85	0.0000E00
187.23	0.0000E00
187.61	-0.0000E00
187.98	0.0000E00
188.36	0.0000E00
188.74	0.0000E00
189.12	0.0000E00
189.49	0.0000E00
189.87	0.0000E00
190.25	0.0000E00
190.63	0.0000E00
191.00	0.0000E00
191.38	0.0000E00
191.76	0.0000E00
192.14	0.0000E00
192.51	0.0000E00
192.89	0.0000E00
193.27	0.0000E00
193.65	0.0000E00
194.02	0.0000E00
194.40	0.0000E00
194.78	0.0000E00
195.15	0.0000E00
195.53	0.0000E00
195.91	0.0000E00
196.29	0.0000E00
196.66	0.0000E00
197.04	0.0000E00
197.42	0.0000E00
197.79	0.0000E00
198.17	0.0000E00
198.55	0.0000E00
198.92	0.0000E00
199.30	0.0000E00
199.68	0.0000E00
200.05	0.0000E00
200.43	0.0000E00
200.81	0.0000E00
201.18	0.0000E00
201.56	0.0000E00
201.94	0.0000E00
202.31	0.0000E00
202.69	0.0000E00
203.07	0.0000E00
203.44	0.0000E00
203.82	0.0000E00
204.19	0.0000E00
204.57	0.0000E00
204.95	0.0000E00
205.32	0.0000E00
205.70	0.0000E00
206.08	0.0000E00
206.45	0.0000E00
206.83	0.0000E00
207.20	0.0000E00
207.58	0.0000E00
207.96	0.0000E00
208.33	0.0000E00
208.71	0.0000E00
209.08	0.0000E00
209.46	0.0000E00
209.84	0.0000E00
210.21	0.0000E00
210.59	0.0000E00
210.96	0.0000E00
211.34	0.0000E00
211.71	0.0000E00
212.09	0.0000E00
212.46	0.0000E00
212.84	0.0000E00
213.22	0.0000E00
213.59	0.0000E00
213.97	0.0000E00
214.34	0.0000E00
214.72	0.0000E00
215.09	0.0000E00
215.47	0.0000E00
215.84	0.0000E00
216.22	0.0000E00
216.59	0.0000E00
216.97	0.0000E00
217.34	0.0000E00
217.72	0.0000E00
218.09	0.0000E00
218.47	0.0000E00
218.84	0.0000E00
219.22	0.0000E00
219.59	0.0000E00
219.97	0.0000E00
220.34	0.0000E00
220.72	0.0000E00
221.09	0.0000E00
221.47	0.0000E00
221.84	0.0000E00
222.22	0.0000E00
222.59	0.0000E00
222.97	0.0000E00
223.34	0.0000E00
223.72	0.0000E00
224.09	0.0000E00
224.46	0.0000E00
224.84	0.0000E00
225.21	0.0000E00
225.59	0.0000E00
225.96	0.0000E00
226.34	0.0000E00
226.71	0.0000E00
227.08	0.0000E00
227.46	0.0000E00
227.83	0.0000E00
228.21	0.0000E00
228.58	0.0000E00
228.95	0.0000E00
229.33	0.0000E00
229.70	0.0000E00
230.08	0.0000E00
230.45	0.0000E00
230.82	0.0000E00
231.20	0.0000E00
231.57	0.0000E00
231.95	0.0000E00
232.32	0.0000E00
232.69	0.0000E00
233.07	0.0000E00
233.44	-0.0000E00
233.81	0.0000E00
234.19	0.0000E00
234.56	0.0000E00
234.93	0.0000E00
235.31	0.0000E00
235.68	0.0000E00
236.05	0.0000E00
236.43	0.0000E00
236.80	-0.0000E00
237.17	0.0000E00
237.55	0.0000E00
237.92	0.0000E00
238.29	0.0000E00
238.67	0.0000E00
239.04	0.0000E00
239.41	0.0000E00
239.79	0.0000E00
240.16	0.0000E00
240.53	0.0000E00
240.91	0.0000E00
241.28	0.0000E00
241.65	0.0000E00
242.02	0.0000E00
242.40	0.0000E00
242.77	0.0000E00
243.14	0.0000E00
243.51	0.0000E00
243.89	0.0000E00
244.26	0.0000E00
244.63	0.0000E00
245.00	0.0000E00
245.38	0.0000E00
245.75	0.0000E00
246.12	0.0000E00
246.49	0.0000E00
246.87	0.0000E00
247.24	0.0000E00
247.61	0.0000E00
247.98	0.0000E00
248.36	0.0000E00
248.73	0.0000E00
249.10	0.0000E00
249.47	0.0000E00
249.84	0.0000E00
250.22	0.0000E00
250.59	0.0000E00
250.96	0.0000E00
251.33	0.0000E00
251.70	0.0000E00
252.08	0.0000E00
252.45	0.0000E00
252.82	0.0000E00
253.19	0.0000E00
253.56	0.0000E00
253.94	0.0000E00
254.31	0.0000E00
254.68	0.0000E00
255.05	0.0000E00
255.42	0.0000E00
255.79	0.0000E00
256.16	0.0000E00
256.54	0.0000E00
256.91	0.0000E00
257.28	0.0000E00
257.65	0.0000E00
258.02	0.0000E00
258.39	0.0000E00
258.76	0.0000E00
259.14	0.0000E00
259.51	0.0000E00
259.88	0.0000E00
260.25	0.0000E00
260.62	0.0000E00
260.99	0.0000E00
261.36	0.0000E00
261.73	0.0000E00
262.10	0.0000E00
262.47	0.0000E00
262.85	0.0000E00
263.22	0.0000E00
263.59	0.0000E00
263.96	0.0000E00
264.33	0.0000E00
264.70	0.0000E00
265.07	0.0000E00
265.44	0.0000E00
265.81	0.0000E00
266.18	0.0000E00
266.55	0.0000E00
266.92	0.0000E00
267.29	0.0000E00
267.66	0.0000E00
268.03	0.0000E00
268.40	0.0000E00
268.77	0.0000E00
269.14	0.0000E00
269.51	0.0000E00
269.88	0.0000E00
270.25	0.0000E00
270.62	0.0000E00
270.99	0.0000E00
271.36	0.0000E00
271.73	0.0000E00
272.10	0.0000E00
272.47	0.0000E00
272.84	0.0000E00
273.21	0.0000E00
273.58	0.0000E00
273.95	0.0000E00
274.32	0.0000E00
274.69	0.0000E00
275.06	0.0000E00
275.43	0.0000E00
275.80	0.0000E00
276.17	0.0000E00
276.54	0.0000E00
276.91	0.0000E00
277.28	0.0000E00
277.65	-0.0000E00
278.02	0.0000E00
278.39	0.0000E00
278.76	0.0000E00
279.13	0.0000E00
279.50	0.0000E00
279.87	0.0000E00
280.23	0.0000E00
280.60	0.0000E00
280.97	0.0000E00
281.34	0.0000E00
281.71	0.0000E00
282.08	0.0000E00
282.45	0.0000E00
282.82	0.0000E00
283.19	0.0000E00
283.56	0.0000E00
283.92	0.0000E00
284.29	0.0000E00
284.66	0.0000E00
285.03	0.0000E00
285.40	0.0000E00
285.77	0.0000E00
286.14	0.0000E00
286.51	0.0000E00
286.87	0.0000E00
287.24	0.0000E00
287.61	0.0000E00
287.98	0.0000E00
288.35	0.0000E00
288.72	0.0000E00
289.08	0.0000E00
289.45	0.0000E00
289.82	0.0000E00
290.19	0.0000E00
290.56	0.0000E00
290.93	0.0000E00
291.29	0.0000E00
291.66	0.0000E00
292.03	0.0000E00
292.40	0.0000E00
292.77	0.0000E00
293.13	0.0000E00
293.50	0.0000E00
293.87	0.0000E00
294.24	0.0000E00
294.60	0.0000E00
294.97	0.0000E00
295.34	0.0000E00
295.71	0.0000E00
296.08	0.0000E00
296.44	0.0000E00
296.81	0.0000E00
297.18	0.0000E00
297.55	0.0000E00
297.91	0.0000E00
298.28	0.0000E00
298.65	0.0000E00
299.02	0.0000E00
299.38	0.0000E00
299.75	0.0000E00
300.12	9.5363E-01
300.48	2.0761E00
300.85	2.2003E00
301.22	1.0578E00
301.59	1.7148E00
301.95	2.9438E00
302.32	1.0719E00
302.69	8.8836E-01
303.05	1.1762E00
303.42	1.9738E00
303.79	1.0458E00
304.15	9.4628E-01
304.52	8.6173E-01
304.89	1.0275E00
305.25	1.6142E00
305.62	1.1745E00
305.99	9.7995E-01
306.35	2.0149E00
306.72	9.7143E-01
307.09	1.6646E00
307.45	2.1330E00
307.82	1.1453E00
308.19	7.4174E00
308.55	1.1841E00
308.92	1.0948E00
309.29	1.3418E00
309.65	1.8457E00
310.02	1.3406E00
310.38	1.3409E00
310.75	9.5330E-01
311.12	1.4807E00
311.48	1.4844E00
311.85	9.3049E-01
312.22	1.1966E00
312.58	1.5002E00
312.95	1.4350E00
313.31	1.3772E00
313.68	1.1281E00
314.05	2.0426E00
314.41	9.9406E-01
314.78	2.5843E00
315.14	1.3590E00
315.51	1.4990E00
315.87	1.5110E00
316.24	1.8810E00
316.61	1.1092E00
316.97	2.4971E00
317.34	1.4219E00
317.70	1.6492E00
318.07	1.5835E00
318.43	9.5910E-01
318.80	1.1674E00
319.16	2.2742E00
319.53	9.0606E-01
319.89	1.4471E00
320.26	9.4652E-01
320.62	2.0773E00
320.99	1.7821E00
321.35	1.7969E00
321.72	1.0055E00
322.08	1.1408E00
322.45	1.3159E00
322.81	2.4749E00
323.18	1.1689E00
323.54	9.9211E-01
323.91	1.5191E00
324.27	1.1962E00
324.64	3.8509E00
325.00	4.3067E00
325.37	2.0526E00
325.73	2.4520E00
326.10	1.9727E00
326.46	1.4697E00
326.83	1.4244E00
327.19	1.7412E00
327.56	1.2177E00
327.92	2.5212E00
328.29	1.2263E00
328.65	9.9017E-01
329.01	1.2332E00
329.38	1.2741E00
329.74	1.5700E00
330.11	1.5123E00
330.47	3.1444E00
330.84	1.6340E00
331.20	8.6855E-01
331.56	4.0806E00
331.93	1.9406E00
332.29	1.7699E00
332.66	2.0285E00
333.02	1.7614E00
333.38	1.0923E00
333.75	2.3711E00
334.11	1.0586E00
334.48	1.6740E00
334.84	9.5418E-01
335.20	1.4277E00
335.57	1.6608E00
335.93	1.3718E00
336.29	1.4189E00
336.66	1.4175E00
337.02	1.2025E00
337.38	1.4690E00
337.75	1.1341E00
338.11	1.3669E00
338.47	1.0455E00
338.84	1.4205E00
339.20	1.5337E00
339.56	1.6685E00
339.93	1.5440E00
340.29	1.2227E00
340.65	1.0403E00
341.02	1.5711E00
341.38	1.0533E00
341.74	1.3347E00
342.11	4.6361E00
342.47	1.5014E00
342.83	1.3672E00
343.20	1.7121E00
343.56	1.4393E00
343.92	1.4063E00
344.28	1.0470E00
344.65	1.1686E00
345.01	9.7507E-01
345.37	1.1596E00
345.73	1.4277E00
346.10	1.3185E00
346.46	8.6275E-01
346.82	1.5166E00
347.19	1.6949E00
347.55	1.5447E00
347.91	2.0122E00
348.27	1.0813E00
348.63	1.5827E00
349.00	1.4983E00
349.36	1.3097E00
349.72	1.6725E00
350.08	1.2618E00
350.45	1.1298E00
350.81	1.3443E00
351.17	2.2327E00
351.53	1.8394E00
351.89	1.4392E00
352.26	9.2976E-01
352.62	1.0037E00
352.98	1.0921E00
353.34	1.2833E00
353.70	1.4277E00
354.07	1.1533E00
354.43	1.0644E00
354.79	1.4424E00
355.15	1.2179E00
355.51	1.5367E00
355.87	9.3128E-01
356.24	9.3427E-01
356.60	1.0085E00
356.96	1.0948E00
357.32	1.0576E00
357.68	1.2288E00
358.04	9.9306E-01
358.40	1.4348E00
358.77	1.1738E00
359.13	8.4563E-01
359.49	1.2156E00
359.85	1.0277E00
360.21	1.2889E00
360.57	9.5882E-01
360.93	1.2547E00
361.29	1.2151E00
361.66	9.1166E-01
362.02	9.2069E-01
362.38	1.0781E00
362.74	9.1404E-01
363.10	8.5952E-01
363.46	9.4731E-01
363.82	9.7455E-01
364.18	1.0659E00
364.54	9.6783E-01
364.90	8.7542E-01
365.26	1.4644E00
365.62	8.6254E-01
365.98	1.1310E00
366.35	1.1086E00
366.71	9.2953E-01
367.07	1.0993E00
367.43	1.0038E00
367.79	9.4927E-01
368.15	1.1039E00
368.51	1.1693E00
368.87	1.1642E00
369.23	9.6845E-01
369.59	1.0326E00
369.95	1.0858E00
370.31	9.4058E-01
370.67	8.8668E-01
371.03	9.8431E-01
371.39	1.0587E00
371.75	1.2093E00
372.11	1.0926E00
372.47	8.7450E-01
372.83	1.3024E00
373.19	1.1708E00
373.55	8.5428E-01
373.91	9.8911E-01
374.27	9.9809E-01
374.63	9.9595E-01
374.99	1.0057E00
375.35	8.8503E-01
375.71	8.8471E-01
376.07	8.8400E-01
376.42	1.0302E00
376.78	1.0392E00
377.14	8.1350E-01
377.50	9.9277E-01
377.86	9.2490E-01
378.22	7.9481E-01
378.58	8.5891E-01
378.94	8.4437E-01
379.30	9.7589E-01
379.66	8.8191E-01
380.02	8.2439E-01
380.38	9.4801E-01
380.74	7.8940E-01
381.09	8.6228E-01
381.45	7.5802E-01
381.81	8.4443E-01
382.17	9.1778E-01
382.53	8.0919E-01
382.89	9.2760E-01
383.25	6.9608E-01
383.61	8.0308E-01
383.97	7.7675E-01
384.32	8.8276E-01
384.68	8.3800E-01
385.04	8.7138E-01
385.40	8.1307E-01
385.76	8.6872E-01
386.12	8.2789E-01
386.48	7.8720E-01
386.83	7.7534E-01
387.19	8.0318E-01
387.55	8.6198E-01
387.91	7.7134E-01
388.27	8.2017E-01
388.62	8.1229E-01
388.98	8.2444E-01
389.34	7.9140E-01
389.70	8.3471E-01
390.06	8.1696E-01
390.42	8.0867E-01
390.77	7.9237E-01
391.13	7.6805E-01
391.49	8.2609E-01
391.85	7.5129E-01
392.20	8.0162E-01
392.56	7.9516E-01
392.92	7.7629E-01
393.28	7.6618E-01
393.64	8.4463E-01
393.99	7.4342E-01
394.35	7.9861E-01
394.71	8.6643E-01
395.07	8.2597E-01
395.42	7.5792E-01
395.78	7.9140E-01
396.14	7.3384E-01
396.50	7.3655E-01
396.85	7.3934E-01
397.21	7.3161E-01
397.57	8.1328E-01
397.92	7.8099E-01
398.28	7.4725E-01
398.64	8.4356E-01
399.00	7.0791E-01
399.35	6.7029E-01
399.71	7.1732E-01
400.07	7.1991E-01
400.42	7.2977E-01
400.78	7.2648E-01
401.14	7.1136E-01
401.49	7.3692E-01
401.85	6.7427E-01
402.21	6.6503E-01
402.57	6.8363E-01
402.92	6.9660E-01
403.28	6.6746E-01
403.63	6.8908E-01
403.99	7.4751E-01
404.35	6.8048E-01
404.70	6.5963E-01
405.06	6.4791E-01
405.42	6.8793E-01
405.77	6.7279E-01
406.13	6.2414E-01
406.49	6.6328E-01
406.84	6.3713E-01
407.20	6.3272E-01
407.55	6.9575E-01
407.91	7.0381E-01
408.27	6.4897E-01
408.62	6.2889E-01
408.98	6.8207E-01
409.34	6.7663E-01
409.69	6.7504E-01
410.05	6.5835E-01
410.40	6.3772E-01
410.76	6.2665E-01
411.11	6.1781E-01
411.47	6.8856E-01
411.83	6.2808E-01
412.18	6.3948E-01
412.54	6.4704E-01
412.89	6.6348E-01
413.25	6.3082E-01
413.60	6.1776E-01
413.96	6.5918E-01
414.31	6.3841E-01
414.67	6.4374E-01
415.03	6.6780E-01
415.38	6.6984E-01
415.74	6.6034E-01
416.09	6.7180E-01
416.45	6.6643E-01
416.80	6.4472E-01
417.16	6.4482E-01
417.51	6.4337E-01
417.87	6.3645E-01
418.22	6.0190E-01
418.58	6.1634E-01
418.93	6.2569E-01
419.29	6.5028E-01
419.64	6.3258E-01
420.00	6.1334E-01
420.35	6.0493E-01
420.71	6.0305E-01
421.06	6.0843E-01
421.42	6.1864E-01
421.77	6.2221E-01
422.12	6.0362E-01
422.48	5.6790E-01
422.83	6.3434E-01
423.19	5.8723E-01
423.54	6.0553E-01
423.90	6.0884E-01
424.25	5.9741E-01
424.61	6.1969E-01
424.96	5.8234E-01
425.31	5.5797E-01
425.67	5.6840E-01
426.02	5.7406E-01
426.38	5.8407E-01
426.73	5.5961E-01
427.09	5.8114E-01
427.44	5.7632E-01
427.79	5.4124E-01
428.15	5.9511E-01
428.50	5.6099E-01
428.85	5.9004E-01
429.21	5.4373E-01
429.56	5.1545E-01
429.92	5.3658E-01
430.27	5.3853E-01
430.62	5.4943E-01
430.98	5.6904E-01
431.33	5.5623E-01
431.68	5.4838E-01
432.04	5.4853E-01
432.39	5.2941E-01
432.74	5.5658E-01
433.10	5.2072E-01
433.45	5.6310E-01
433.80	5.3993E-01
434.16	5.5271E-01
434.51	5.3703E-01
434.86	5.4421E-01
435.22	5.2542E-01
435.57	5.7452E-01
435.92	5.5557E-01
436.28	5.4751E-01
436.63	5.2419E-01
436.98	5.3203E-01
437.34	5.5663E-01
437.69	5.3720E-01
438.04	5.1505E-01
438.39	5.4048E-01
438.75	5.2110E-01
439.10	5.1434E-01
439.45	5.4139E-01
439.81	5.2819E-01
440.16	5.0932E-01
440.51	5.1593E-01
440.86	5.0904E-01
441.22	5.1563E-01
441.57	5.2226E-01
441.92	4.9676E-01
442.27	5.2882E-01
442.63	5.1920E-01
442.98	5.3396E-01
443.33	5.3465E-01
443.68	5.1767E-01
444.03	4.8205E-01
444.39	4.8723E-01
444.74	5.1320E-01
445.09	5.1583E-01
445.44	5.3845E-01
445.79	4.7612E-01
446.15	5.0451E-01
446.50	5.0681E-01
446.85	4.7618E-01
447.20	4.8278E-01
447.55	5.0661E-01
447.91	5.0563E-01
448.26	4.9490E-01
448.61	4.9551E-01
448.96	4.9079E-01
449.31	4.8855E-01
449.66	5.0907E-01
450.02	4.9255E-01
450.37	4.9414E-01
450.72	4.8093E-01
451.07	5.1665E-01
451.42	5.0887E-01
451.77	4.9457E-01
452.12	4.8130E-01
452.47	5.2338E-01
452.83	4.6880E-01
453.18	5.0515E-01
453.53	4.8410E-01
453.88	4.6681E-01
454.23	4.7483E-01
454.58	4.8345E-01
454.93	4.8595E-01
455.28	4.8706E-01
455.63	4.8296E-01
455.98	4.6079E-01
456.34	4.8355E-01
456.69	4.7749E-01
457.04	4.6513E-01
457.39	4.5180E-01
457.74	4.4986E-01
458.09	4.6351E-01
458.44	4.4681E-01
458.79	4.3508E-01
459.14	4.4738E-01
459.49	4.6847E-01
459.84	4.4164E-01
460.19	4.7033E-01
460.54	4.6579E-01
460.89	4.3137E-01
461.24	4.7046E-01
461.59	4.5772E-01
461.94	4.6326E-01
462.29	4.2820E-01
462.64	4.5826E-01
462.99	4.5801E-01
463.34	4.7559E-01
463.69	4.4008E-01
464.04	4.3111E-01
464.39	4.3984E-01
464.74	4.4492E-01
465.09	4.5399E-01
465.44	4.4172E-01
465.79	4.4099E-01
466.14	4.4178E-01
466.49	4.3823E-01
466.84	4.4264E-01
467.19	4.4714E-01
467.54	4.4715E-01
467.89	4.2448E-01
468.24	4.1211E-01
468.59	4.2603E-01
468.94	4.1575E-01
469.29	4.1776E-01
469.64	4.3360E-01
469.99	4.1446E-01
470.34	3.9918E-01
470.68	4.3352E-01
471.03	4.0418E-01
471.38	4.0801E-01
471.73	3.9833E-01
472.08	3.8823E-01
472.43	3.8028E-01
472.78	3.9486E-01
473.13	3.9534E-01
473.48	3.8503E-01
473.83	3.7856E-01
474.17	3.8588E-01
474.52	3.8153E-01
474.87	3.6406E-01
475.22	3.6961E-01
475.57	3.5058E-01
475.92	3.3866E-01
476.27	3.5940E-01
476.61	3.4399E-01
476.96	3.4001E-01
477.31	3.2330E-01
477.66	3.3301E-01
478.01	3.2836E-01
478.36	3.2398E-01
478.70	3.2143E-01
479.05	3.2641E-01
479.40	3.0985E-01
479.75	3.1184E-01
480.10	3.0899E-01
480.45	3.0513E-01
480.79	3.0407E-01
481.14	3.1151E-01
481.49	3.0278E-01
481.84	2.9452E-01
482.19	2.8996E-01
482.53	2.9040E-01
482.88	2.8915E-01
483.23	2.8486E-01
483.58	2.8025E-01
483.92	2.8658E-01
484.27	2.7405E-01
484.62	2.7510E-01
484.97	2.6976E-01
485.31	2.6553E-01
485.66	2.7232E-01
486.01	2.7050E-01
486.36	2.6356E-01
486.70	2.6758E-01
487.05	2.6596E-01
487.40	2.6055E-01
487.75	2.5305E-01
488.09	2.5728E-01
488.44	2.6412E-01
488.79	2.5387E-01
489.13	2.5578E-01
489.48	2.5607E-01
489.83	2.5798E-01
490.17	2.4996E-01
490.52	2.5028E-01
490.87	2.5174E-01
491.22	2.5412E-01
491.56	2.4981E-01
491.91	2.5357E-01
492.26	2.5083E-01
492.60	2.4995E-01
492.95	2.5162E-01
493.30	2.5380E-01
493.64	2.4847E-01
493.99	2.5099E-01
494.34	2.4893E-01
494.68	2.4432E-01
495.03	2.5165E-01
495.37	2.4786E-01
495.72	2.5015E-01
496.07	2.4595E-01
496.41	2.4918E-01
496.76	2.4739E-01
497.11	2.4924E-01
497.45	2.4775E-01
497.80	2.4947E-01
498.14	2.4960E-01
498.49	2.4983E-01
498.84	2.4893E-01
499.18	2.4758E-01
499.53	2.5056E-01
499.87	2.4887E-01
500.22	2.5102E-01
500.56	2.4950E-01
500.91	2.4808E-01
501.26	2.4952E-01
501.60	2.4929E-01
501.95	2.4597E-01
502.29	2.4748E-01
502.64	2.4777E-01
502.98	2.4938E-01
503.33	2.4995E-01
503.67	2.4809E-01
504.02	2.4728E-01
504.36	2.4553E-01
504.71	2.4748E-01
505.06	2.4720E-01
505.40	2.4703E-01
505.75	2.4468E-01
506.09	2.4546E-01
506.44	2.4384E-01
506.78	2.4546E-01
507.13	2.4541E-01
507.47	2.4303E-01
507.82	2.4208E-01
508.16	2.4238E-01
508.51	2.4178E-01
508.85	2.4116E-01
509.19	2.4064E-01
509.54	2.4412E-01
509.88	2.4202E-01
510.23	2.3996E-01
510.57	2.3901E-01
510.92	2.4246E-01
511.26	2.4025E-01
511.61	2.4014E-01
511.95	2.4047E-01
512.30	2.3871E-01
512.64	2.3972E-01
512.98	2.3907E-01
513.33	2.3849E-01
513.67	2.3874E-01
514.02	2.3722E-01
514.36	2.3670E-01
514.70	2.3755E-01
515.05	2.3651E-01
515.39	2.3724E-01
515.74	2.3457E-01
516.08	2.3711E-01
516.42	2.3483E-01
516.77	2.3517E-01
517.11	2.3387E-01
517.46	2.3620E-01
517.80	2.3370E-01
518.14	2.3470E-01
518.49	2.3456E-01
518.83	2.3197E-01
519.17	2.3582E-01
519.52	2.3335E-01
519.86	2.3277E-01
520.20	2.3068E-01
520.55	2.3251E-01
520.89	2.3328E-01
521.23	2.3313E-01
521.58	2.3255E-01
521.92	2.3656E-01
522.26	2.3492E-01
522.61	2.3199E-01
522.95	2.3314E-01
523.29	2.3294E-01
523.64	2.3179E-01
523.98	2.3211E-01
524.32	2.3420E-01
524.66	2.3386E-01
525.01	2.3537E-01
525.35	2.3558E-01
525.69	2.3596E-01
526.04	2.3654E-01
526.38	2.3291E-01
526.72	2.3600E-01
527.06	2.3567E-01
527.41	2.3923E-01
527.75	2.3970E-01
528.09	2.3685E-01
528.43	2.3845E-01
528.78	2.3614E-01
529.12	2.4260E-01
529.46	2.4058E-01
529.80	2.4029E-01
530.15	2.4115E-01
530.49	2.4258E-01
530.83	2.4346E-01
531.17	2.4364E-01
531.51	2.4439E-01
531.86	2.4518E-01
532.20	2.4742E-01
532.54	2.4739E-01
532.88	2.4735E-01
533.22	2.4868E-01
533.57	2.4907E-01
533.91	2.5142E-01
534.25	2.5155E-01
534.59	2.5025E-01
534.93	2.5168E-01
535.27	2.5279E-01
535.62	2.5497E-01
535.96	2.5694E-01
536.30	2.5672E-01
536.64	2.5751E-01
536.98	2.5832E-01
537.32	2.5847E-01
537.66	2.5807E-01
538.01	2.6132E-01
538.35	2.6326E-01
538.69	2.6097E-01
539.03	2.6660E-01
539.37	2.6296E-01
539.71	2.6486E-01
540.05	2.6527E-01
540.39	2.6582E-01
540.73	2.6809E-01
541.07	2.6611E-01
541.42	2.6618E-01
541.76	2.6696E-01
542.10	2.6712E-01
542.44	2.6899E-01
542.78	2.6937E-01
543.12	2.6939E-01
543.46	2.7494E-01
543.80	2.7177E-01
544.14	2.7323E-01
544.48	2.7002E-01
544.82	2.7318E-01
545.16	2.7313E-01
545.50	2.7204E-01
545.84	2.7670E-01
546.18	2.7364E-01
546.52	2.7642E-01
546.86	2.7278E-01
547.20	2.7564E-01
547.54	2.8086E-01
547.88	2.7606E-01
548.22	2.7696E-01
548.56	2.7764E-01
548.90	2.7579E-01
549.24	2.7930E-01
549.58	2.7900E-01
549.92	2.7900E-01
550.26	2.8240E-01
550.60	2.8015E-01
550.94	2.7620E-01
551.28	2.8310E-01
551.62	2.8045E-01
551.96	2.8269E-01
552.30	2.8163E-01
552.64	2.8347E-01
552.98	2.8127E-01
553.32	2.8138E-01
553.66	2.7965E-01
554.00	2.8058E-01
554.34	2.8327E-01
554.68	2.8436E-01
555.02	2.8308E-01
555.36	2.8307E-01
555.69	2.8582E-01
556.03	2.8462E-01
556.37	2.8470E-01
556.71	2.8325E-01
557.05	2.8221E-01
557.39	2.8372E-01
557.73	2.8317E-01
558.07	2.8511E-01
558.41	2.8374E-01
558.75	2.8473E-01
559.08	2.8535E-01
559.42	2.8073E-01
559.76	2.8509E-01
560.10	2.8421E-01
560.44	2.8491E-01
560.78	2.8224E-01
561.12	2.8402E-01
561.45	2.8476E-01
561.79	2.8543E-01
562.13	2.8403E-01
562.47	2.8424E-01
562.81	2.8827E-01
563.15	2.8763E-01
563.48	2.8561E-01
563.82	2.8362E-01
564.16	2.8621E-01
564.50	2.8708E-01
564.84	2.8687E-01
565.17	2.8655E-01
565.51	2.8327E-01
565.85	2.8701E-01
566.19	2.8576E-01
566.52	2.8759E-01
566.86	2.8639E-01
567.20	2.8762E-01
567.54	2.8944E-01
567.88	2.8691E-01
568.21	2.8877E-01
568.55	2.8805E-01
568.89	2.8833E-01
569.23	2.9023E-01
569.56	2.8748E-01
569.90	2.8835E-01
570.24	2.9054E-01
570.57	2.8952E-01
570.91	2.9190E-01
571.25	2.9008E-01
571.59	2.9049E-01
571.92	2.9069E-01
572.26	2.9213E-01
572.60	2.9483E-01
572.93	2.9284E-01
573.27	2.9657E-01
573.61	2.9645E-01
573.95	2.9241E-01
574.28	2.9658E-01
574.62	2.9623E-01
574.96	2.9707E-01
575.29	2.9528E-01
575.63	2.9921E-01
575.97	2.9852E-01
576.30	3.0610E-01
576.64	3.0078E-01
576.98	3.0203E-01
577.31	3.0420E-01
577.65	3.0468E-01
577.98	3.0443E-01
578.32	3.0843E-01
578.66	3.0706E-01
578.99	3.1153E-01
579.33	3.1073E-01
579.67	3.1072E-01
580.00	3.1134E-01
580.34	3.1468E-01
580.67	3.1405E-01
581.01	3.1449E-01
581.35	3.1739E-01
581.68	3.1825E-01
582.02	3.1754E-01
582.35	3.1826E-01
582.69	3.2017E-01
583.02	3.2557E-01
583.36	3.2301E-01
583.70	3.2225E-01
584.03	3.2447E-01
584.37	3.2501E-01
584.70	3.2906E-01
585.04	3.2994E-01
585.37	3.2722E-01
585.71	3.3153E-01
586.04	3.3067E-01
586.38	3.2881E-01
586.72	3.3357E-01
587.05	3.3342E-01
587.39	3.3453E-01
587.72	3.3385E-01
588.06	3.3653E-01
588.39	3.3545E-01
588.73	3.4094E-01
589.06	3.3968E-01
589.40	3.4122E-01
589.73	3.4294E-01
590.07	3.4537E-01
590.40	3.4666E-01
590.73	3.5090E-01
591.07	3.4721E-01
591.40	3.4871E-01
591.74	3.4562E-01
592.07	3.5115E-01
592.41	3.5137E-01
592.74	3.5007E-01
593.08	3.5181E-01
593.41	3.5326E-01
593.75	3.4995E-01
594.08	3.5734E-01
594.41	3.5285E-01
594.75	3.5677E-01
595.08	3.5640E-01
595.42	3.5297E-01
595.75	3.5565E-01
596.09	3.5539E-01
596.42	3.5622E-01
596.75	3.5898E-01
597.09	3.6232E-01
597.42	3.5686E-01
597.75	3.6043E-01
598.09	3.6080E-01
598.42	3.5878E-01
598.76	3.6229E-01
599.09	3.6245E-01
599.42	3.6483E-01
599.76	3.6454E-01
600.09	3.6468E-01
600.42	3.6703E-01
600.76	3.6361E-01
601.09	3.6571E-01
601.42	3.7302E-01
601.76	3.6624E-01
602.09	3.6669E-01
602.42	3.6789E-01
602.76	3.6863E-01
603.09	3.6596E-01
603.42	3.6842E-01
603.76	3.6759E-01
604.09	3.6831E-01
604.42	3.6854E-01
604.76	3.6895E-01
605.09	3.7216E-01
605.42	3.6952E-01
605.75	3.7222E-01
606.09	3.7161E-01
606.42	3.7003E-01
606.75	3.7310E-01
607.09	3.7211E-01
607.42	3.7199E-01
607.75	3.7390E-01
608.08	3.7410E-01
608.42	3.7509E-01
608.75	3.7291E-01
609.08	3.7773E-01
609.41	3.7621E-01
609.75	3.7537E-01
610.08	3.7549E-01
610.41	3.7655E-01
610.74	3.7593E-01
611.07	3.7841E-01
611.41	3.7424E-01
611.74	3.7896E-01
612.07	3.8239E-01
612.40	3.7615E-01
612.73	3.7664E-01
613.07	3.8203E-01
613.40	3.7752E-01
613.73	3.7738E-01
614.06	3.7983E-01
614.39	3.8064E-01
614.72	3.8350E-01
615.06	3.8086E-01
615.39	3.8616E-01
615.72	3.8073E-01
616.05	3.8616E-01
616.38	3.8250E-01
616.71	3.8518E-01
617.05	3.8106E-01
617.38	3.8606E-01
617.71	3.7976E-01
618.04	3.8710E-01
618.37	3.8255E-01
618.70	3.8095E-01
619.03	3.8612E-01
619.36	3.7789E-01
619.69	3.8703E-01
620.03	3.8071E-01
620.36	3.8475E-01
620.69	3.8335E-01
621.02	3.8479E-01
621.35	3.8153E-01
621.68	3.8007E-01
622.01	3.7952E-01
622.34	3.8299E-01
622.67	3.8244E-01
623.00	3.8197E-01
623.33	3.8086E-01
623.66	3.8241E-01
623.99	3.8259E-01
624.32	3.7882E-01
624.65	3.8105E-01
624.99	3.8155E-01
625.32	3.8357E-01
625.65	3.7950E-01
625.98	3.7809E-01
626.31	3.8180E-01
626.64	3.8314E-01
626.97	3.8128E-01
627.30	3.7880E-01
627.63	3.8040E-01
627.96	3.8172E-01
628.29	3.7692E-01
628.62	3.8226E-01
628.95	3.8123E-01
629.28	3.7460E-01
629.61	3.8597E-01
629.94	3.8048E-01
630.26	3.8224E-01
630.59	3.8532E-01
630.92	3.8276E-01
631.25	3.8510E-01
631.58	3.8833E-01
631.91	3.8284E-01
632.24	3.9118E-01
632.57	3.8694E-01
632.90	3.8922E-01
633.23	3.8935E-01
633.56	3.9028E-01
633.89	3.9040E-01
634.22	3.9063E-01
634.55	3.9341E-01
634.88	3.9836E-01
635.20	3.9422E-01
635.53	3.9827E-01
635.86	3.9846E-01
636.19	4.0266E-01
636.52	4.0385E-01
636.85	4.0547E-01
637.18	4.0851E-01
637.51	4.0800E-01
637.83	4.0870E-01
638.16	4.0638E-01
638.49	4.1440E-01
638.82	4.1164E-01
639.15	4.1698E-01
639.48	4.1986E-01
639.81	4.2357E-01
640.13	4.1854E-01
640.46	4.2617E-01
640.79	4.2300E-01
641.12	4.3057E-01
641.45	4.2588E-01
641.77	4.2697E-01
642.10	4.3466E-01
642.43	4.3645E-01
642.76	4.3888E-01
643.09	4.3423E-01
643.41	4.3970E-01
643.74	4.4174E-01
644.07	4.4046E-01
644.40	4.4331E-01
644.73	4.4768E-01
645.05	4.5091E-01
645.38	4.5092E-01
645.71	4.5738E-01
646.04	4.5589E-01
646.36	4.5418E-01
646.69	4.6283E-01
647.02	4.6207E-01
647.35	4.6120E-01
647.67	4.6487E-01
648.00	4.6393E-01
648.33	4.7145E-01
648.66	4.6765E-01
648.98	4.7153E-01
649.31	4.7075E-01
649.64	4.7260E-01
649.96	4.7538E-01
650.29	4.8221E-01
650.62	4.8038E-01
650.94	4.8280E-01
651.27	4.8216E-01
651.60	4.8470E-01
651.92	4.8853E-01
652.25	4.9196E-01
652.58	4.8899E-01
652.90	4.9187E-01
653.23	4.9293E-01
653.56	4.9668E-01
653.88	4.9921E-01
654.21	4.9714E-01
654.54	5.0082E-01
654.86	5.0571E-01
655.19	4.9841E-01
655.52	5.0685E-01
655.84	5.0329E-01
656.17	5.0999E-01
656.49	5.1075E-01
656.82	5.0884E-01
657.15	5.1323E-01
657.47	5.1250E-01
657.80	5.1592E-01
658.13	5.1425E-01
658.45	5.1782E-01
658.78	5.2126E-01
659.10	5.2110E-01
659.43	5.2648E-01
659.75	5.2227E-01
660.08	5.2292E-01
660.41	5.2808E-01
660.73	5.2720E-01
661.06	5.3015E-01
661.38	5.2943E-01
661.71	5.3383E-01
662.03	5.2983E-01
662.36	5.3594E-01
662.68	5.3713E-01
663.01	5.3019E-01
663.33	5.3955E-01
663.66	5.4234E-01
663.98	5.4364E-01
664.31	5.3710E-01
664.63	5.4832E-01
664.96	5.3925E-01
665.28	5.4538E-01
665.61	5.4436E-01
665.93	5.5009E-01
666.26	5.4894E-01
666.58	5.5185E-01
666.91	5.4981E-01
667.23	5.5515E-01
667.56	5.5291E-01
667.88	5.5245E-01
668.21	5.5810E-01
668.53	5.5655E-01
668.86	5.5885E-01
669.18	5.5631E-01
669.50	5.6643E-01
669.83	5.6683E-01
670.15	5.6877E-01
670.48	5.6955E-01
670.80	5.6477E-01
671.13	5.6499E-01
671.45	5.7041E-01
671.77	5.6922E-01
672.10	5.6815E-01
672.42	5.7697E-01
672.75	5.7053E-01
673.07	5.7837E-01
673.39	5.7771E-01
673.72	5.7804E-01
674.04	5.8245E-01
674.37	5.8246E-01
674.69	5.8135E-01
675.01	5.8525E-01
675.34	5.8615E-01
675.66	5.8852E-01
675.98	5.8092E-01
676.31	5.9098E-01
676.63	5.9198E-01
676.95	5.9032E-01
677.28	5.9507E-01
677.60	5.9338E-01
677.92	5.9813E-01
678.25	6.0142E-01
678.57	6.0216E-01
678.89	6.0119E-01
679.22	6.0265E-01
679.54	6.0254E-01
679.86	6.0674E-01
680.18	6.0594E-01
680.51	6.0500E-01
680.83	6.2049E-01
681.15	6.1321E-01
681.48	6.1468E-01
681.80	6.1563E-01
682.12	6.1356E-01
682.44	6.2206E-01
682.77	6.2126E-01
683.09	6.2597E-01
683.41	6.2551E-01
683.73	6.3127E-01
684.06	6.3131E-01
684.38	6.3010E-01
684.70	6.3184E-01
685.02	6.3160E-01
685.34	6.3874E-01
685.67	6.3415E-01
685.99	6.4776E-01
686.31	6.4182E-01
686.63	6.4838E-01
686.96	6.5085E-01
687.28	6.5371E-01
687.60	6.5167E-01
687.92	6.5292E-01
688.24	6.6457E-01
688.56	6.6333E-01
688.89	6.6114E-01
689.21	6.6531E-01
689.53	6.6556E-01
689.85	6.7726E-01
690.17	6.7127E-01
690.49	6.8080E-01
690.82	6.8048E-01
691.14	6.8471E-01
691.46	6.8185E-01
691.78	6.8949E-01
692.10	6.8648E-01
692.42	6.9108E-01
692.74	6.9596E-01
693.06	6.9837E-01
693.39	7.0427E-01
693.71	7.1289E-01
694.03	7.0667E-01
694.35	7.0679E-01
694.67	7.1872E-01
694.99	7.1889E-01
695.31	7.2474E-01
695.63	7.2516E-01
695.95	7.2602E-01
696.27	7.2752E-01
696.59	7.3028E-01
696.91	7.3874E-01
697.23	7.4325E-01
697.56	7.4398E-01
697.88	7.4829E-01
698.20	7.4674E-01
698.52	7.5022E-01
698.84	7.6096E-01
699.16	7.6629E-01
699.48	7.6268E-01
699.80	7.6600E-01
700.12	7.7888E-01
700.44	7.7585E-01
700.76	7.7851E-01
701.08	7.8389E-01
701.40	7.8790E-01
701.72	7.8921E-01
702.04	7.9562E-01
702.36	7.9485E-01
702.68	8.0149E-01
703.00	8.1139E-01
703.32	8.0597E-01
703.64	8.1546E-01
703.96	8.0577E-01
704.28	8.1763E-01
704.60	8.2937E-01
704.91	8.2647E-01
705.23	8.3368E-01
705.55	8.3974E-01
705.87	8.4506E-01
706.19	8.4384E-01
706.51	8.4173E-01
706.83	8.3996E-01
707.15	8.7201E-01
707.47	8.6094E-01
707.79	8.6609E-01
708.11	8.7013E-01
708.43	8.7248E-01
708.74	8.7883E-01
709.06	8.8848E-01
709.38	8.8718E-01
709.70	8.8891E-01
710.02	8.9538E-01
710.34	8.8888E-01
710.66	9.0447E-01
710.98	9.0886E-01
711.29	9.1456E-01
711.61	9.3086E-01
711.93	9.2586E-01
712.25	9.2525E-01
712.57	9.3735E-01
712.89	9.4310E-01
713.20	9.4491E-01
713.52	9.5404E-01
713.84	9.5513E-01
714.16	9.4934E-01
714.48	9.5870E-01
714.80	9.7256E-01
715.11	9.6848E-01
715.43	9.8104E-01
715.75	9.8011E-01
716.07	9.9564E-01
716.39	9.7807E-01
716.70	9.9202E-01
717.02	9.8775E-01
717.34	1.0147E00
717.66	1.0066E00
717.97	1.0211E00
718.29	1.0308E00
718.61	1.0314E00
718.93	1.0327E00
719.24	1.0385E00
719.56	1.0573E00
719.88	1.0468E00
720.20	1.0681E00
720.51	1.0822E00
720.83	1.0696E00
721.15	1.0883E00
721.46	1.0948E00
721.78	1.1022E00
722.10	1.1155E00
722.42	1.1192E00
722.73	1.1189E00
723.05	1.1203E00
723.37	1.1349E00
723.68	1.1466E00
724.00	1.1460E00
724.32	1.1667E00
724.63	1.1555E00
724.95	1.1702E00
725.27	1.1715E00
725.58	1.1699E00
725.90	1.1654E00
726.22	1.1923E00
726.53	1.1805E00
726.85	1.1919E00
727.16	1.1975E00
727.48	1.1918E00
727.80	1.2041E00
728.11	1.2084E00
728.43	1.2126E00
728.74	1.2105E00
729.06	1.2174E00
729.38	1.2213E00
729.69	1.2194E00
730.01	1.2368E00
730.32	1.2344E00
730.64	1.2367E00
730.96	1.2255E00
731.27	1.2573E00
731.59	1.2420E00
731.90	1.2506E00
732.22	1.2578E00
732.53	1.2672E00
732.85	1.2676E00
733.16	1.2652E00
733.48	1.2604E00
733.80	1.2680E00
734.11	1.2788E00
734.43	1.2952E00
734.74	1.2983E00
735.06	1.3013E00
735.37	1.3117E00
735.69	1.3153E00
736.00	1.3047E00
736.32	1.3200E00
736.63	1.3144E00
736.95	1.3300E00
737.26	1.3418E00
737.58	1.3358E00
737.89	1.3640E00
738.21	1.3490E00
738.52	1.3495E00
738.83	1.3663E00
739.15	1.3526E00
739.46	1.3718E00
739.78	1.3704E00
740.09	1.3826E00
740.41	1.3700E00
740.72	1.3779E00
741.04	1.3750E00
741.35	1.3755E00
741.66	1.4014E00
741.98	1.3904E00
742.29	1.3861E00
742.61	1.3967E00
742.92	1.4013E00
743.23	1.4010E00
743.55	1.4037E00
743.86	1.4023E00
744.18	1.4104E00
744.49	1.4096E00
744.80	1.4010E00
745.12	1.3995E00
745.43	1.4077E00
745.74	1.4047E00
746.06	1.4057E00
746.37	1.3941E00
746.68	1.4079E00
747.00	1.3952E00
747.31	1.4099E00
747.62	1.3931E00
747.94	1.4264E00
748.25	1.4090E00
748.56	1.4072E00
748.88	1.3946E00
749.19	1.4148E00
749.50	1.4013E00
749.82	1.4076E00
750.13	1.4172E00
750.44	1.4061E00
750.75	1.4048E00
751.07	1.4114E00
751.38	1.4021E00
751.69	1.4020E00
752.01	1.4157E00
752.32	1.4249E00
752.63	1.4164E00
752.94	1.4129E00
753.26	1.4190E00
753.57	1.4272E00
753.88	1.4402E00
754.19	1.4216E00
754.51	1.4274E00
754.82	1.4438E00
755.13	1.4429E00
755.44	1.4524E00
755.75	1.4417E00
756.07	1.4487E00
756.38	1.4558E00
756.69	1.4619E00
757.00	1.4614E00
757.31	1.4895E00
757.63	1.4830E00
757.94	1.4928E00
758.25	1.5023E00
758.56	1.4853E00
758.87	1.5022E00
759.18	1.5078E00
759.50	1.5122E00
759.81	1.5161E00
760.12	1.5352E00
760.43	1.5448E00
760.74	1.5564E00
761.05	1.5538E00
761.36	1.5659E00
761.67	1.5714E00
761.99	1.5770E00
762.30	1.5755E00
762.61	1.5944E00
762.92	1.6129E00
763.23	1.6120E00
763.54	1.6350E00
763.85	1.6349E00
764.16	1.6561E00
764.47	1.6730E00
764.78	1.6917E00
765.10	1.6927E00
765.41	1.6948E00
765.72	1.7090E00
766.03	1.7493E00
766.34	1.7560E00
766.65	1.7437E00
766.96	1.7919E00
767.27	1.7829E00
767.58	1.7789E00
767.89	1.8068E00
768.20	1.8234E00
768.51	1.8227E00
768.82	1.8363E00
769.13	1.8497E00
769.44	1.8892E00
769.75	1.9011E00
770.06	1.9197E00
770.37	1.8987E00
770.68	1.9418E00
770.99	1.9606E00
771.30	1.9867E00
771.61	2.0229E00
771.92	2.0138E00
772.23	2.0154E00
772.54	2.0559E00
772.85	2.0438E00
773.16	2.0602E00
773.47	2.1019E00
773.78	2.0828E00
774.09	2.1331E00
774.39	2.1292E00
774.70	2.1653E00
775.01	2.1805E00
775.32	2.2035E00
775.63	2.2202E00
775.94	2.2435E00
776.25	2.2267E00
776.56	2.2625E00
776.87	2.3363E00
777.18	2.3011E00
777.48	2.3466E00
777.79	2.3637E00
778.10	2.3828E00
778.41	2.3965E00
778.72	2.4382E00
779.03	2.4385E00
779.34	2.4683E00
779.65	2.4718E00
779.95	2.4989E00
780.26	2.5190E00
780.57	2.5302E00
780.88	2.5603E00
781.19	2.5739E00
781.50	2.5897E00
781.80	2.6257E00
782.11	2.6584E00
782.42	2.6690E00
782.73	2.6417E00
783.04	2.7355E00
783.34	2.7216E00
783.65	2.7779E00
783.96	2.7834E00
784.27	2.7935E00
784.57	2.7809E00
784.88	2.8315E00
785.19	2.8521E00
785.50	2.8775E00
785.81	2.9230E00
786.11	2.9061E00
786.42	2.9438E00
786.73	3.0035E00
787.04	3.0204E00
787.34	3.0412E00
787.65	3.0064E00
787.96	3.1131E00
788.26	3.0874E00
788.57	3.1681E00
788.88	3.1009E00
789.19	3.2212E00
789.49	3.2011E00
789.80	3.2813E00
790.11	3.2803E00
790.41	3.2601E00
790.72	3.3498E00
791.03	3.3848E00
791.33	3.3660E00
791.64	3.4394E00
791.95	3.4291E00
792.25	3.4854E00
792.56	3.4897E00
792.87	3.4814E00
793.17	3.5047E00
793.48	3.5335E00
793.79	3.6204E00
794.09	3.6369E00
794.40	3.6153E00
794.70	3.5950E00
795.01	3.7101E00
795.32	3.7031E00
795.62	3.7408E00
795.93	3.7569E00
796.23	3.7901E00
796.54	3.8156E00
796.85	3.8624E00
797.15	3.8994E00
797.46	3.8524E00
797.76	3.9476E00
798.07	3.9849E00
798.37	4.0159E00
798.68	4.0433E00
798.99	4.0741E00
799.29	4.0775E00
799.60	4.1609E00
799.90	4.1583E00
800.21	4.2551E00
800.51	4.2443E00
800.82	4.2477E00
801.12	4.3119E00
801.43	4.3444E00
801.73	4.3331E00
802.04	4.4300E00
802.34	4.4220E00
802.65	4.4747E00
802.95	4.5419E00
803.26	4.5253E00
803.56	4.5013E00
803.87	4.5937E00
804.17	4.6625E00
804.48	4.6218E00
804.78	4.6808E00
805.09	4.7737E00
805.39	4.6883E00
805.70	4.7491E00
806.00	4.8297E00
806.30	4.8289E00
806.61	4.8572E00
806.91	4.8690E00
807.22	4.9717E00
807.52	4.9775E00
807.83	4.9862E00
808.13	5.0764E00
808.43	5.0003E00
808.74	5.0587E00
809.04	5.1138E00
809.35	5.1700E00
809.65	5.2410E00
809.95	5.2569E00
810.26	5.3754E00
810.56	5.2922E00
810.86	5.5040E00
811.17	5.4167E00
811.47	5.5616E00
811.77	5.4916E00
812.08	5.4749E00
812.38	5.5994E00
812.69	5.5804E00
812.99	5.6032E00
813.29	5.6729E00
813.59	5.7300E00
813.90	5.8658E00
814.20	5.8005E00
814.50	5.9660E00
814.81	5.7850E00
815.11	6.0328E00
815.41	6.0477E00
815.72	6.0712E00
816.02	6.1207E00
816.32	6.2387E00
816.62	6.0107E00
816.93	6.2066E00
817.23	6.3510E00
817.53	6.1597E00
817.84	6.3580E00
818.14	6.4164E00
818.44	6.3468E00
818.74	6.3856E00
819.04	6.7087E00
819.35	6.6055E00
819.65	6.4778E00
819.95	6.6725E00
820.25	6.7812E00
820.56	6.6592E00
820.86	6.7784E00
821.16	6.7869E00
821.46	7.0015E00
821.76	6.7376E00
822.07	6.9217E00
822.37	7.0771E00
822.67	7.1956E00
822.97	7.3329E00
823.27	7.1828E00
823.57	7.1411E00
823.88	7.3440E00
824.18	7.2129E00
824.48	7.4273E00
824.78	7.6479E00
825.08	7.4568E00
825.38	7.6048E00
825.69	7.6145E00
825.99	7.6489E00
826.29	7.4971E00
826.59	7.7264E00
826.89	7.9107E00
827.19	7.7087E00
827.49	8.0043E00
827.79	7.9154E00
828.09	8.1201E00
828.39	8.1413E00
828.70	8.1105E00
829.00	7.9691E00
829.30	8.1382E00
829.60	8.3079E00
829.90	8.2152E00
830.20	8.3164E00
830.50	8.5788E00
830.80	8.5499E00
831.10	8.4685E00
831.40	8.6609E00
831.70	8.7382E00
832.00	8.7974E00
832.30	8.8614E00
832.60	8.7328E00
832.90	8.9318E00
833.20	8.8472E00
833.50	9.0270E00
833.80	9.0891E00
834.10	9.2118E00
834.40	9.1369E00
834.70	9.2586E00
835.00	9.3865E00
835.30	9.3318E00
835.60	9.4666E00
835.90	9.5539E00
836.20	9.6958E00
836.50	9.7482E00
836.80	9.5907E00
837.10	9.7398E00
837.40	9.7607E00
837.70	9.8498E00
838.00	9.9480E00
838.30	1.0198E01
838.60	1.0064E01
838.90	1.0313E01
839.19	1.0418E01
839.49	1.0603E01
839.79	1.0117E01
840.09	1.0608E01
840.39	1.0397E01
840.69	1.0566E01
840.99	1.0884E01
841.29	1.0768E01
841.59	1.0897E01
841.88	1.1067E01
842.18	1.0952E01
842.48	1.1150E01
842.78	1.1220E01
843.08	1.1379E01
843.38	1.1332E01
843.68	1.1828E01
843.97	1.1684E01
844.27	1.1725E01
844.57	1.1592E01
844.87	1.1686E01
845.17	1.2114E01
845.47	1.1747E01
845.76	1.2205E01
846.06	1.2132E01
846.36	1.2205E01
846.66	1.2194E01
846.96	1.2176E01
847.25	1.2738E01
847.55	1.2382E01
847.85	1.2629E01
848.15	1.2766E01
848.44	1.2759E01
848.74	1.2840E01
849.04	1.3306E01
849.34	1.3083E01
849.63	1.3202E01
849.93	1.3380E01
850.23	1.3467E01
850.53	1.3636E01
850.82	1.3666E01
851.12	1.4114E01
851.42	1.3769E01
851.71	1.3917E01
852.01	1.4134E01
852.31	1.4043E01
852.61	1.4620E01
852.90	1.4241E01
853.20	1.4858E01
853.50	1.4667E01
853.79	1.4747E01
854.09	1.4761E01
854.39	1.5156E01
854.68	1.5367E01
854.98	1.5715E01
855.28	1.5526E01
855.57	1.5521E01
855.87	1.5737E01
856.17	1.5442E01
856.46	1.5960E01
856.76	1.5813E01
857.05	1.6302E01
857.35	1.6599E01
857.65	1.6589E01
857.94	1.6475E01
858.24	1.6409E01
858.53	1.6768E01
858.83	1.7609E01
859.13	1.7257E01
859.42	1.7222E01
859.72	1.7301E01
860.01	1.7770E01
860.31	1.7515E01
860.60	1.8176E01
860.90	1.8185E01
861.20	1.7867E01
861.49	1.8182E01
861.79	1.8434E01
862.08	1.8578E01
862.38	1.8602E01
862.67	1.8974E01
862.97	1.9007E01
863.26	1.9745E01
863.56	1.9628E01
863.85	2.0159E01
864.15	2.0607E01
864.44	2.0304E01
864.74	2.0066E01
865.03	2.0862E01
865.33	2.1038E01
865.62	2.1052E01
865.92	2.0810E01
866.21	2.1182E01
866.51	2.1451E01
866.80	2.2074E01
867.10	2.1483E01
867.39	2.2423E01
867.69	2.2387E01
867.98	2.2775E01
868.27	2.3058E01
868.57	2.3616E01
868.86	2.3210E01
869.16	2.2934E01
869.45	2.4087E01
869.75	2.3593E01
870.04	2.4092E01
870.33	2.4515E01
870.63	2.4834E01
870.92	2.5056E01
871.22	2.5743E01
871.51	2.5865E01
871.80	2.5487E01
872.10	2.5487E01
>>>>>End Processed Spectral Data<<<<<
