SpectraSuite Data File
++++++++++++++++++++++++++++++++++++
Date: Fri May 15 11:16:05 PDT 2015
User: schluterlab
Dark Spectrum Present: Yes
Reference Spectrum Present: No
Number of Sampled Component Spectra: 1
Spectrometers: USB2E3373
Integration Time (usec): 2300000 (USB2E3373)
Spectra Averaged: 3 (USB2E3373)
Boxcar Smoothing: 0 (USB2E3373)
Correct for Electrical Dark: No (USB2E3373)
Strobe/Lamp Enabled: No (USB2E3373)
Correct for Detector Non-linearity: No (USB2E3373)
Correct for Stray Light: No (USB2E3373)
Number of Pixels in Processed Spectrum: 2048
>>>>>Begin Processed Spectral Data<<<<<
178.53	0.0000E00
178.91	0.0000E00
179.29	0.0000E00
179.67	0.0000E00
180.04	0.0000E00
180.42	0.0000E00
180.80	0.0000E00
181.18	0.0000E00
181.56	0.0000E00
181.94	0.0000E00
182.31	0.0000E00
182.69	0.0000E00
183.07	0.0000E00
183.45	0.0000E00
183.83	0.0000E00
184.20	0.0000E00
184.58	0.0000E00
184.96	0.0000E00
185.34	0.0000E00
185.72	0.0000E00
186.09	0.0000E00
186.47	0.0000E00
186.85	0.0000E00
187.23	0.0000E00
187.61	-0.0000E00
187.98	0.0000E00
188.36	0.0000E00
188.74	0.0000E00
189.12	0.0000E00
189.49	0.0000E00
189.87	0.0000E00
190.25	0.0000E00
190.63	0.0000E00
191.00	0.0000E00
191.38	0.0000E00
191.76	0.0000E00
192.14	0.0000E00
192.51	0.0000E00
192.89	0.0000E00
193.27	0.0000E00
193.65	0.0000E00
194.02	0.0000E00
194.40	0.0000E00
194.78	0.0000E00
195.15	0.0000E00
195.53	0.0000E00
195.91	0.0000E00
196.29	0.0000E00
196.66	0.0000E00
197.04	0.0000E00
197.42	0.0000E00
197.79	0.0000E00
198.17	0.0000E00
198.55	0.0000E00
198.92	0.0000E00
199.30	0.0000E00
199.68	0.0000E00
200.05	0.0000E00
200.43	0.0000E00
200.81	0.0000E00
201.18	0.0000E00
201.56	0.0000E00
201.94	0.0000E00
202.31	0.0000E00
202.69	0.0000E00
203.07	0.0000E00
203.44	0.0000E00
203.82	0.0000E00
204.19	0.0000E00
204.57	0.0000E00
204.95	0.0000E00
205.32	0.0000E00
205.70	0.0000E00
206.08	0.0000E00
206.45	0.0000E00
206.83	0.0000E00
207.20	0.0000E00
207.58	0.0000E00
207.96	0.0000E00
208.33	0.0000E00
208.71	0.0000E00
209.08	0.0000E00
209.46	0.0000E00
209.84	0.0000E00
210.21	0.0000E00
210.59	0.0000E00
210.96	0.0000E00
211.34	0.0000E00
211.71	0.0000E00
212.09	0.0000E00
212.46	0.0000E00
212.84	0.0000E00
213.22	0.0000E00
213.59	0.0000E00
213.97	0.0000E00
214.34	0.0000E00
214.72	0.0000E00
215.09	0.0000E00
215.47	0.0000E00
215.84	0.0000E00
216.22	0.0000E00
216.59	0.0000E00
216.97	0.0000E00
217.34	0.0000E00
217.72	0.0000E00
218.09	0.0000E00
218.47	0.0000E00
218.84	0.0000E00
219.22	0.0000E00
219.59	0.0000E00
219.97	0.0000E00
220.34	0.0000E00
220.72	0.0000E00
221.09	0.0000E00
221.47	0.0000E00
221.84	0.0000E00
222.22	0.0000E00
222.59	0.0000E00
222.97	0.0000E00
223.34	0.0000E00
223.72	0.0000E00
224.09	0.0000E00
224.46	0.0000E00
224.84	0.0000E00
225.21	0.0000E00
225.59	0.0000E00
225.96	0.0000E00
226.34	0.0000E00
226.71	0.0000E00
227.08	0.0000E00
227.46	0.0000E00
227.83	0.0000E00
228.21	0.0000E00
228.58	0.0000E00
228.95	0.0000E00
229.33	0.0000E00
229.70	0.0000E00
230.08	0.0000E00
230.45	0.0000E00
230.82	0.0000E00
231.20	0.0000E00
231.57	0.0000E00
231.95	0.0000E00
232.32	0.0000E00
232.69	0.0000E00
233.07	0.0000E00
233.44	-0.0000E00
233.81	0.0000E00
234.19	0.0000E00
234.56	0.0000E00
234.93	0.0000E00
235.31	0.0000E00
235.68	0.0000E00
236.05	0.0000E00
236.43	0.0000E00
236.80	-0.0000E00
237.17	0.0000E00
237.55	0.0000E00
237.92	0.0000E00
238.29	0.0000E00
238.67	0.0000E00
239.04	0.0000E00
239.41	0.0000E00
239.79	0.0000E00
240.16	0.0000E00
240.53	0.0000E00
240.91	0.0000E00
241.28	0.0000E00
241.65	0.0000E00
242.02	0.0000E00
242.40	0.0000E00
242.77	0.0000E00
243.14	0.0000E00
243.51	0.0000E00
243.89	0.0000E00
244.26	0.0000E00
244.63	0.0000E00
245.00	0.0000E00
245.38	0.0000E00
245.75	0.0000E00
246.12	0.0000E00
246.49	0.0000E00
246.87	0.0000E00
247.24	0.0000E00
247.61	0.0000E00
247.98	0.0000E00
248.36	0.0000E00
248.73	0.0000E00
249.10	0.0000E00
249.47	0.0000E00
249.84	0.0000E00
250.22	0.0000E00
250.59	0.0000E00
250.96	0.0000E00
251.33	0.0000E00
251.70	0.0000E00
252.08	0.0000E00
252.45	0.0000E00
252.82	0.0000E00
253.19	0.0000E00
253.56	0.0000E00
253.94	0.0000E00
254.31	0.0000E00
254.68	0.0000E00
255.05	0.0000E00
255.42	0.0000E00
255.79	0.0000E00
256.16	0.0000E00
256.54	0.0000E00
256.91	0.0000E00
257.28	0.0000E00
257.65	0.0000E00
258.02	0.0000E00
258.39	0.0000E00
258.76	0.0000E00
259.14	0.0000E00
259.51	0.0000E00
259.88	0.0000E00
260.25	0.0000E00
260.62	0.0000E00
260.99	0.0000E00
261.36	0.0000E00
261.73	0.0000E00
262.10	0.0000E00
262.47	0.0000E00
262.85	0.0000E00
263.22	0.0000E00
263.59	0.0000E00
263.96	0.0000E00
264.33	0.0000E00
264.70	0.0000E00
265.07	0.0000E00
265.44	0.0000E00
265.81	0.0000E00
266.18	0.0000E00
266.55	0.0000E00
266.92	0.0000E00
267.29	0.0000E00
267.66	0.0000E00
268.03	0.0000E00
268.40	0.0000E00
268.77	0.0000E00
269.14	0.0000E00
269.51	0.0000E00
269.88	0.0000E00
270.25	0.0000E00
270.62	0.0000E00
270.99	0.0000E00
271.36	0.0000E00
271.73	0.0000E00
272.10	0.0000E00
272.47	0.0000E00
272.84	0.0000E00
273.21	0.0000E00
273.58	0.0000E00
273.95	0.0000E00
274.32	0.0000E00
274.69	0.0000E00
275.06	0.0000E00
275.43	0.0000E00
275.80	0.0000E00
276.17	0.0000E00
276.54	0.0000E00
276.91	0.0000E00
277.28	0.0000E00
277.65	-0.0000E00
278.02	0.0000E00
278.39	0.0000E00
278.76	0.0000E00
279.13	0.0000E00
279.50	0.0000E00
279.87	0.0000E00
280.23	0.0000E00
280.60	0.0000E00
280.97	0.0000E00
281.34	0.0000E00
281.71	0.0000E00
282.08	0.0000E00
282.45	0.0000E00
282.82	0.0000E00
283.19	0.0000E00
283.56	0.0000E00
283.92	0.0000E00
284.29	0.0000E00
284.66	0.0000E00
285.03	0.0000E00
285.40	0.0000E00
285.77	0.0000E00
286.14	0.0000E00
286.51	0.0000E00
286.87	0.0000E00
287.24	0.0000E00
287.61	0.0000E00
287.98	0.0000E00
288.35	0.0000E00
288.72	0.0000E00
289.08	0.0000E00
289.45	0.0000E00
289.82	0.0000E00
290.19	0.0000E00
290.56	0.0000E00
290.93	0.0000E00
291.29	0.0000E00
291.66	0.0000E00
292.03	0.0000E00
292.40	0.0000E00
292.77	0.0000E00
293.13	0.0000E00
293.50	0.0000E00
293.87	0.0000E00
294.24	0.0000E00
294.60	0.0000E00
294.97	0.0000E00
295.34	0.0000E00
295.71	0.0000E00
296.08	0.0000E00
296.44	0.0000E00
296.81	0.0000E00
297.18	0.0000E00
297.55	0.0000E00
297.91	0.0000E00
298.28	0.0000E00
298.65	0.0000E00
299.02	0.0000E00
299.38	0.0000E00
299.75	0.0000E00
300.12	9.5737E-02
300.48	2.2180E-01
300.85	2.2195E-01
301.22	1.1441E-01
301.59	1.9153E-01
301.95	3.3675E-01
302.32	1.1418E-01
302.69	9.8905E-02
303.05	1.3506E-01
303.42	2.3668E-01
303.79	1.3341E-01
304.15	1.2708E-01
304.52	1.0806E-01
304.89	1.3467E-01
305.25	2.2740E-01
305.62	1.6212E-01
305.99	1.4290E-01
306.35	2.8760E-01
306.72	1.4177E-01
307.09	3.0595E-01
307.45	3.6977E-01
307.82	1.9636E-01
308.19	1.3085E00
308.55	2.0433E-01
308.92	2.0186E-01
309.29	2.3702E-01
309.65	4.8590E-01
310.02	2.5129E-01
310.38	2.5392E-01
310.75	1.9842E-01
311.12	3.2870E-01
311.48	3.4702E-01
311.85	2.2998E-01
312.22	3.0723E-01
312.58	3.6372E-01
312.95	3.6001E-01
313.31	3.6100E-01
313.68	2.9969E-01
314.05	5.6310E-01
314.41	2.7537E-01
314.78	7.4108E-01
315.14	4.8360E-01
315.51	4.3373E-01
315.87	4.3852E-01
316.24	5.4141E-01
316.61	3.3062E-01
316.97	7.9097E-01
317.34	5.0662E-01
317.70	5.9797E-01
318.07	5.8149E-01
318.43	3.4760E-01
318.80	4.2118E-01
319.16	8.4616E-01
319.53	3.4062E-01
319.89	5.5461E-01
320.26	3.7477E-01
320.62	8.4414E-01
320.99	7.2741E-01
321.35	7.3751E-01
321.72	4.1651E-01
322.08	4.6168E-01
322.45	6.0439E-01
322.81	1.0196E00
323.18	5.0268E-01
323.54	4.2321E-01
323.91	6.4083E-01
324.27	5.4311E-01
324.64	1.8923E00
325.00	2.2633E00
325.37	1.0865E00
325.73	1.3621E00
326.10	1.2052E00
326.46	9.2168E-01
326.83	9.5955E-01
327.19	1.1658E00
327.56	8.2955E-01
327.92	1.7183E00
328.29	8.1419E-01
328.65	6.3546E-01
329.01	8.1899E-01
329.38	8.8147E-01
329.74	1.1196E00
330.11	1.1218E00
330.47	2.3253E00
330.84	1.1546E00
331.20	6.1876E-01
331.56	2.8487E00
331.93	1.3984E00
332.29	1.3081E00
332.66	1.4880E00
333.02	1.2832E00
333.38	7.9640E-01
333.75	1.7371E00
334.11	8.5314E-01
334.48	1.2474E00
334.84	7.0906E-01
335.20	1.0918E00
335.57	1.2736E00
335.93	1.0477E00
336.29	1.0493E00
336.66	1.0226E00
337.02	8.8967E-01
337.38	1.0245E00
337.75	8.3909E-01
338.11	1.0402E00
338.47	8.2266E-01
338.84	1.1408E00
339.20	1.2521E00
339.56	1.3863E00
339.93	1.3837E00
340.29	1.0838E00
340.65	9.2777E-01
341.02	1.4175E00
341.38	9.3143E-01
341.74	1.1899E00
342.11	4.2072E00
342.47	1.3825E00
342.83	1.3517E00
343.20	1.6251E00
343.56	1.3625E00
343.92	1.3668E00
344.28	9.3173E-01
344.65	1.0022E00
345.01	8.4456E-01
345.37	1.0546E00
345.73	1.3651E00
346.10	1.2611E00
346.46	8.3520E-01
346.82	1.4805E00
347.19	1.6727E00
347.55	1.5303E00
347.91	2.0099E00
348.27	1.0738E00
348.63	1.5680E00
349.00	1.5096E00
349.36	1.3112E00
349.72	1.6824E00
350.08	1.2781E00
350.45	1.1479E00
350.81	1.3638E00
351.17	2.2576E00
351.53	1.8587E00
351.89	1.4524E00
352.26	9.3713E-01
352.62	1.0112E00
352.98	1.1001E00
353.34	1.2935E00
353.70	1.4375E00
354.07	1.1608E00
354.43	1.0720E00
354.79	1.4520E00
355.15	1.2267E00
355.51	1.5487E00
355.87	9.3819E-01
356.24	9.4088E-01
356.60	1.0158E00
356.96	1.1020E00
357.32	1.0652E00
357.68	1.2370E00
358.04	1.0015E00
358.40	1.4467E00
358.77	1.1826E00
359.13	8.5161E-01
359.49	1.2236E00
359.85	1.0344E00
360.21	1.2981E00
360.57	9.6567E-01
360.93	1.2644E00
361.29	1.2249E00
361.66	9.1866E-01
362.02	9.2760E-01
362.38	1.0862E00
362.74	9.2066E-01
363.10	8.6635E-01
363.46	9.5484E-01
363.82	9.8220E-01
364.18	1.0742E00
364.54	9.7610E-01
364.90	8.8237E-01
365.26	1.4758E00
365.62	8.6939E-01
365.98	1.1389E00
366.35	1.1175E00
366.71	9.3747E-01
367.07	1.1076E00
367.43	1.0119E00
367.79	9.5756E-01
368.15	1.1130E00
368.51	1.1787E00
368.87	1.1731E00
369.23	9.7598E-01
369.59	1.0404E00
369.95	1.0950E00
370.31	9.4855E-01
370.67	8.9458E-01
371.03	9.9230E-01
371.39	1.0671E00
371.75	1.2197E00
372.11	1.1018E00
372.47	8.8228E-01
372.83	1.3129E00
373.19	1.1817E00
373.55	8.6070E-01
373.91	9.9671E-01
374.27	1.0059E00
374.63	1.0050E00
374.99	1.0137E00
375.35	8.9222E-01
375.71	8.9135E-01
376.07	8.9140E-01
376.42	1.0385E00
376.78	1.0479E00
377.14	8.2075E-01
377.50	1.0008E00
377.86	9.3217E-01
378.22	8.0140E-01
378.58	8.6625E-01
378.94	8.5122E-01
379.30	9.8416E-01
379.66	8.8861E-01
380.02	8.3145E-01
380.38	9.5678E-01
380.74	7.9608E-01
381.09	8.6988E-01
381.45	7.6444E-01
381.81	8.5202E-01
382.17	9.2572E-01
382.53	8.1590E-01
382.89	9.3546E-01
383.25	7.0142E-01
383.61	8.0981E-01
383.97	7.8306E-01
384.32	8.8907E-01
384.68	8.4532E-01
385.04	8.7907E-01
385.40	8.1974E-01
385.76	8.7600E-01
386.12	8.3520E-01
386.48	7.9401E-01
386.83	7.8211E-01
387.19	8.1004E-01
387.55	8.6852E-01
387.91	7.7768E-01
388.27	8.2683E-01
388.62	8.1910E-01
388.98	8.3172E-01
389.34	7.9845E-01
389.70	8.4156E-01
390.06	8.2331E-01
390.42	8.1538E-01
390.77	7.9922E-01
391.13	7.7455E-01
391.49	8.3265E-01
391.85	7.5746E-01
392.20	8.0799E-01
392.56	8.0120E-01
392.92	7.8286E-01
393.28	7.7226E-01
393.64	8.5134E-01
393.99	7.4978E-01
394.35	8.0523E-01
394.71	8.7423E-01
395.07	8.3268E-01
395.42	7.6407E-01
395.78	7.9845E-01
396.14	7.4038E-01
396.50	7.4317E-01
396.85	7.4567E-01
397.21	7.3768E-01
397.57	8.2046E-01
397.92	7.8740E-01
398.28	7.5352E-01
398.64	8.5115E-01
399.00	7.1421E-01
399.35	6.7626E-01
399.71	7.2376E-01
400.07	7.2652E-01
400.42	7.3601E-01
400.78	7.3301E-01
401.14	7.1801E-01
401.49	7.4309E-01
401.85	6.7975E-01
402.21	6.7078E-01
402.57	6.8924E-01
402.92	7.0251E-01
403.28	6.7311E-01
403.63	6.9497E-01
403.99	7.5449E-01
404.35	6.8594E-01
404.70	6.6590E-01
405.06	6.5322E-01
405.42	6.9382E-01
405.77	6.7842E-01
406.13	6.2975E-01
406.49	6.6930E-01
406.84	6.4241E-01
407.20	6.3830E-01
407.55	7.0170E-01
407.91	7.1032E-01
408.27	6.5487E-01
408.62	6.3482E-01
408.98	6.8856E-01
409.34	6.8260E-01
409.69	6.8040E-01
410.05	6.6451E-01
410.40	6.4306E-01
410.76	6.3207E-01
411.11	6.2341E-01
411.47	6.9463E-01
411.83	6.3390E-01
412.18	6.4500E-01
412.54	6.5240E-01
412.89	6.6944E-01
413.25	6.3638E-01
413.60	6.2326E-01
413.96	6.6552E-01
414.31	6.4421E-01
414.67	6.4998E-01
415.03	6.7363E-01
415.38	6.7551E-01
415.74	6.6639E-01
416.09	6.7766E-01
416.45	6.7300E-01
416.80	6.5052E-01
417.16	6.5028E-01
417.51	6.4927E-01
417.87	6.4240E-01
418.22	6.0773E-01
418.58	6.2166E-01
418.93	6.3137E-01
419.29	6.5613E-01
419.64	6.3849E-01
420.00	6.1917E-01
420.35	6.1026E-01
420.71	6.0879E-01
421.06	6.1405E-01
421.42	6.2436E-01
421.77	6.2791E-01
422.12	6.0915E-01
422.48	5.7300E-01
422.83	6.4021E-01
423.19	5.9241E-01
423.54	6.1081E-01
423.90	6.1452E-01
424.25	6.0352E-01
424.61	6.2537E-01
424.96	5.8732E-01
425.31	5.6308E-01
425.67	5.7391E-01
426.02	5.7952E-01
426.38	5.8932E-01
426.73	5.6444E-01
427.09	5.8683E-01
427.44	5.8181E-01
427.79	5.4611E-01
428.15	6.0077E-01
428.50	5.6613E-01
428.85	5.9560E-01
429.21	5.4877E-01
429.56	5.2022E-01
429.92	5.4154E-01
430.27	5.4314E-01
430.62	5.5472E-01
430.98	5.7461E-01
431.33	5.6123E-01
431.68	5.5418E-01
432.04	5.5327E-01
432.39	5.3440E-01
432.74	5.6187E-01
433.10	5.2539E-01
433.45	5.6806E-01
433.80	5.4554E-01
434.16	5.5802E-01
434.51	5.4280E-01
434.86	5.4891E-01
435.22	5.3014E-01
435.57	5.7983E-01
435.92	5.6090E-01
436.28	5.5248E-01
436.63	5.2880E-01
436.98	5.3747E-01
437.34	5.6207E-01
437.69	5.4226E-01
438.04	5.1986E-01
438.39	5.4529E-01
438.75	5.2606E-01
439.10	5.1910E-01
439.45	5.4683E-01
439.81	5.3331E-01
440.16	5.1408E-01
440.51	5.2134E-01
440.86	5.1366E-01
441.22	5.2040E-01
441.57	5.2728E-01
441.92	5.0118E-01
442.27	5.3408E-01
442.63	5.2382E-01
442.98	5.3950E-01
443.33	5.3988E-01
443.68	5.2287E-01
444.03	4.8664E-01
444.39	4.9178E-01
444.74	5.1777E-01
445.09	5.2047E-01
445.44	5.4296E-01
445.79	4.8031E-01
446.15	5.0913E-01
446.50	5.1119E-01
446.85	4.8037E-01
447.20	4.8712E-01
447.55	5.1117E-01
447.91	5.1004E-01
448.26	4.9918E-01
448.61	5.0013E-01
448.96	4.9498E-01
449.31	4.9273E-01
449.66	5.1342E-01
450.02	4.9698E-01
450.37	4.9854E-01
450.72	4.8525E-01
451.07	5.2138E-01
451.42	5.1358E-01
451.77	4.9936E-01
452.12	4.8588E-01
452.47	5.2808E-01
452.83	4.7314E-01
453.18	5.0969E-01
453.53	4.8816E-01
453.88	4.7056E-01
454.23	4.7897E-01
454.58	4.8742E-01
454.93	4.8994E-01
455.28	4.9105E-01
455.63	4.8721E-01
455.98	4.6469E-01
456.34	4.8785E-01
456.69	4.8153E-01
457.04	4.6931E-01
457.39	4.5582E-01
457.74	4.5382E-01
458.09	4.6735E-01
458.44	4.5078E-01
458.79	4.3888E-01
459.14	4.5109E-01
459.49	4.7203E-01
459.84	4.4515E-01
460.19	4.7427E-01
460.54	4.6985E-01
460.89	4.3525E-01
461.24	4.7452E-01
461.59	4.6176E-01
461.94	4.6685E-01
462.29	4.3179E-01
462.64	4.6238E-01
462.99	4.6197E-01
463.34	4.7966E-01
463.69	4.4419E-01
464.04	4.3476E-01
464.39	4.4391E-01
464.74	4.4892E-01
465.09	4.5784E-01
465.44	4.4534E-01
465.79	4.4476E-01
466.14	4.4575E-01
466.49	4.4228E-01
466.84	4.4623E-01
467.19	4.5116E-01
467.54	4.5129E-01
467.89	4.2792E-01
468.24	4.1571E-01
468.59	4.2975E-01
468.94	4.1953E-01
469.29	4.2115E-01
469.64	4.3795E-01
469.99	4.1833E-01
470.34	4.0266E-01
470.68	4.3742E-01
471.03	4.0775E-01
471.38	4.1157E-01
471.73	4.0174E-01
472.08	3.9159E-01
472.43	3.8366E-01
472.78	3.9868E-01
473.13	3.9876E-01
473.48	3.8849E-01
473.83	3.8220E-01
474.17	3.8928E-01
474.52	3.8493E-01
474.87	3.6718E-01
475.22	3.7255E-01
475.57	3.5355E-01
475.92	3.4153E-01
476.27	3.6301E-01
476.61	3.4718E-01
476.96	3.4303E-01
477.31	3.2606E-01
477.66	3.3574E-01
478.01	3.3122E-01
478.36	3.2690E-01
478.70	3.2413E-01
479.05	3.2923E-01
479.40	3.1239E-01
479.75	3.1464E-01
480.10	3.1155E-01
480.45	3.0793E-01
480.79	3.0691E-01
481.14	3.1434E-01
481.49	3.0564E-01
481.84	2.9696E-01
482.19	2.9275E-01
482.53	2.9283E-01
482.88	2.9157E-01
483.23	2.8744E-01
483.58	2.8287E-01
483.92	2.8900E-01
484.27	2.7651E-01
484.62	2.7726E-01
484.97	2.7230E-01
485.31	2.6790E-01
485.66	2.7461E-01
486.01	2.7281E-01
486.36	2.6589E-01
486.70	2.7001E-01
487.05	2.6858E-01
487.40	2.6291E-01
487.75	2.5539E-01
488.09	2.5955E-01
488.44	2.6650E-01
488.79	2.5627E-01
489.13	2.5817E-01
489.48	2.5839E-01
489.83	2.6030E-01
490.17	2.5218E-01
490.52	2.5251E-01
490.87	2.5398E-01
491.22	2.5639E-01
491.56	2.5201E-01
491.91	2.5574E-01
492.26	2.5300E-01
492.60	2.5222E-01
492.95	2.5373E-01
493.30	2.5606E-01
493.64	2.5073E-01
493.99	2.5316E-01
494.34	2.5117E-01
494.68	2.4656E-01
495.03	2.5413E-01
495.37	2.4994E-01
495.72	2.5232E-01
496.07	2.4809E-01
496.41	2.5149E-01
496.76	2.4970E-01
497.11	2.5129E-01
497.45	2.4972E-01
497.80	2.5145E-01
498.14	2.5191E-01
498.49	2.5177E-01
498.84	2.5106E-01
499.18	2.4952E-01
499.53	2.5262E-01
499.87	2.5095E-01
500.22	2.5323E-01
500.56	2.5159E-01
500.91	2.5009E-01
501.26	2.5178E-01
501.60	2.5155E-01
501.95	2.4800E-01
502.29	2.4968E-01
502.64	2.5013E-01
502.98	2.5160E-01
503.33	2.5194E-01
503.67	2.5046E-01
504.02	2.4942E-01
504.36	2.4756E-01
504.71	2.4956E-01
505.06	2.4957E-01
505.40	2.4914E-01
505.75	2.4671E-01
506.09	2.4764E-01
506.44	2.4604E-01
506.78	2.4766E-01
507.13	2.4751E-01
507.47	2.4507E-01
507.82	2.4428E-01
508.16	2.4447E-01
508.51	2.4382E-01
508.85	2.4314E-01
509.19	2.4283E-01
509.54	2.4602E-01
509.88	2.4435E-01
510.23	2.4195E-01
510.57	2.4118E-01
510.92	2.4471E-01
511.26	2.4218E-01
511.61	2.4224E-01
511.95	2.4267E-01
512.30	2.4092E-01
512.64	2.4185E-01
512.98	2.4128E-01
513.33	2.4062E-01
513.67	2.4078E-01
514.02	2.3931E-01
514.36	2.3869E-01
514.70	2.3969E-01
515.05	2.3856E-01
515.39	2.3921E-01
515.74	2.3653E-01
516.08	2.3910E-01
516.42	2.3694E-01
516.77	2.3731E-01
517.11	2.3597E-01
517.46	2.3822E-01
517.80	2.3559E-01
518.14	2.3665E-01
518.49	2.3665E-01
518.83	2.3399E-01
519.17	2.3786E-01
519.52	2.3545E-01
519.86	2.3487E-01
520.20	2.3275E-01
520.55	2.3463E-01
520.89	2.3527E-01
521.23	2.3500E-01
521.58	2.3468E-01
521.92	2.3864E-01
522.26	2.3703E-01
522.61	2.3381E-01
522.95	2.3514E-01
523.29	2.3491E-01
523.64	2.3398E-01
523.98	2.3422E-01
524.32	2.3629E-01
524.66	2.3578E-01
525.01	2.3749E-01
525.35	2.3756E-01
525.69	2.3783E-01
526.04	2.3860E-01
526.38	2.3496E-01
526.72	2.3802E-01
527.06	2.3770E-01
527.41	2.4136E-01
527.75	2.4190E-01
528.09	2.3879E-01
528.43	2.4062E-01
528.78	2.3825E-01
529.12	2.4464E-01
529.46	2.4260E-01
529.80	2.4252E-01
530.15	2.4317E-01
530.49	2.4470E-01
530.83	2.4554E-01
531.17	2.4577E-01
531.51	2.4633E-01
531.86	2.4732E-01
532.20	2.4949E-01
532.54	2.4948E-01
532.88	2.4954E-01
533.22	2.5085E-01
533.57	2.5140E-01
533.91	2.5386E-01
534.25	2.5370E-01
534.59	2.5246E-01
534.93	2.5383E-01
535.27	2.5495E-01
535.62	2.5731E-01
535.96	2.5898E-01
536.30	2.5919E-01
536.64	2.5974E-01
536.98	2.6066E-01
537.32	2.6073E-01
537.66	2.6043E-01
538.01	2.6377E-01
538.35	2.6548E-01
538.69	2.6322E-01
539.03	2.6902E-01
539.37	2.6537E-01
539.71	2.6729E-01
540.05	2.6754E-01
540.39	2.6804E-01
540.73	2.7065E-01
541.07	2.6857E-01
541.42	2.6857E-01
541.76	2.6901E-01
542.10	2.6926E-01
542.44	2.7162E-01
542.78	2.7172E-01
543.12	2.7181E-01
543.46	2.7743E-01
543.80	2.7426E-01
544.14	2.7545E-01
544.48	2.7242E-01
544.82	2.7571E-01
545.16	2.7551E-01
545.50	2.7449E-01
545.84	2.7914E-01
546.18	2.7610E-01
546.52	2.7910E-01
546.86	2.7533E-01
547.20	2.7811E-01
547.54	2.8334E-01
547.88	2.7852E-01
548.22	2.7960E-01
548.56	2.8001E-01
548.90	2.7806E-01
549.24	2.8196E-01
549.58	2.8132E-01
549.92	2.8154E-01
550.26	2.8479E-01
550.60	2.8260E-01
550.94	2.7849E-01
551.28	2.8555E-01
551.62	2.8285E-01
551.96	2.8541E-01
552.30	2.8399E-01
552.64	2.8597E-01
552.98	2.8365E-01
553.32	2.8398E-01
553.66	2.8190E-01
554.00	2.8310E-01
554.34	2.8569E-01
554.68	2.8677E-01
555.02	2.8582E-01
555.36	2.8537E-01
555.69	2.8819E-01
556.03	2.8703E-01
556.37	2.8731E-01
556.71	2.8582E-01
557.05	2.8457E-01
557.39	2.8620E-01
557.73	2.8557E-01
558.07	2.8765E-01
558.41	2.8609E-01
558.75	2.8729E-01
559.08	2.8771E-01
559.42	2.8318E-01
559.76	2.8746E-01
560.10	2.8669E-01
560.44	2.8747E-01
560.78	2.8478E-01
561.12	2.8675E-01
561.45	2.8747E-01
561.79	2.8787E-01
562.13	2.8649E-01
562.47	2.8665E-01
562.81	2.9091E-01
563.15	2.9021E-01
563.48	2.8816E-01
563.82	2.8627E-01
564.16	2.8864E-01
564.50	2.8976E-01
564.84	2.8948E-01
565.17	2.8902E-01
565.51	2.8597E-01
565.85	2.8961E-01
566.19	2.8831E-01
566.52	2.8985E-01
566.86	2.8899E-01
567.20	2.9011E-01
567.54	2.9190E-01
567.88	2.8939E-01
568.21	2.9124E-01
568.55	2.9059E-01
568.89	2.9072E-01
569.23	2.9289E-01
569.56	2.8999E-01
569.90	2.9072E-01
570.24	2.9313E-01
570.57	2.9217E-01
570.91	2.9445E-01
571.25	2.9274E-01
571.59	2.9300E-01
571.92	2.9305E-01
572.26	2.9471E-01
572.60	2.9727E-01
572.93	2.9535E-01
573.27	2.9913E-01
573.61	2.9891E-01
573.95	2.9519E-01
574.28	2.9937E-01
574.62	2.9892E-01
574.96	2.9987E-01
575.29	2.9797E-01
575.63	3.0177E-01
575.97	3.0129E-01
576.30	3.0875E-01
576.64	3.0325E-01
576.98	3.0488E-01
577.31	3.0715E-01
577.65	3.0742E-01
577.98	3.0706E-01
578.32	3.1096E-01
578.66	3.0979E-01
578.99	3.1446E-01
579.33	3.1345E-01
579.67	3.1352E-01
580.00	3.1409E-01
580.34	3.1765E-01
580.67	3.1649E-01
581.01	3.1709E-01
581.35	3.2030E-01
581.68	3.2106E-01
582.02	3.2037E-01
582.35	3.2084E-01
582.69	3.2300E-01
583.02	3.2847E-01
583.36	3.2602E-01
583.70	3.2507E-01
584.03	3.2747E-01
584.37	3.2788E-01
584.70	3.3217E-01
585.04	3.3283E-01
585.37	3.3019E-01
585.71	3.3440E-01
586.04	3.3364E-01
586.38	3.3165E-01
586.72	3.3654E-01
587.05	3.3615E-01
587.39	3.3742E-01
587.72	3.3665E-01
588.06	3.3961E-01
588.39	3.3818E-01
588.73	3.4403E-01
589.06	3.4273E-01
589.40	3.4420E-01
589.73	3.4618E-01
590.07	3.4833E-01
590.40	3.4966E-01
590.73	3.5421E-01
591.07	3.5036E-01
591.40	3.5157E-01
591.74	3.4883E-01
592.07	3.5409E-01
592.41	3.5465E-01
592.74	3.5328E-01
593.08	3.5470E-01
593.41	3.5622E-01
593.75	3.5304E-01
594.08	3.6039E-01
594.41	3.5602E-01
594.75	3.6014E-01
595.08	3.5954E-01
595.42	3.5577E-01
595.75	3.5857E-01
596.09	3.5853E-01
596.42	3.5896E-01
596.75	3.6209E-01
597.09	3.6546E-01
597.42	3.5976E-01
597.75	3.6380E-01
598.09	3.6373E-01
598.42	3.6182E-01
598.76	3.6549E-01
599.09	3.6546E-01
599.42	3.6796E-01
599.76	3.6789E-01
600.09	3.6806E-01
600.42	3.7036E-01
600.76	3.6685E-01
601.09	3.6858E-01
601.42	3.7628E-01
601.76	3.6963E-01
602.09	3.6977E-01
602.42	3.7137E-01
602.76	3.7211E-01
603.09	3.6909E-01
603.42	3.7192E-01
603.76	3.7106E-01
604.09	3.7143E-01
604.42	3.7215E-01
604.76	3.7233E-01
605.09	3.7561E-01
605.42	3.7278E-01
605.75	3.7557E-01
606.09	3.7450E-01
606.42	3.7313E-01
606.75	3.7639E-01
607.09	3.7552E-01
607.42	3.7550E-01
607.75	3.7730E-01
608.08	3.7763E-01
608.42	3.7837E-01
608.75	3.7627E-01
609.08	3.8093E-01
609.41	3.7966E-01
609.75	3.7875E-01
610.08	3.7877E-01
610.41	3.7977E-01
610.74	3.7918E-01
611.07	3.8172E-01
611.41	3.7731E-01
611.74	3.8227E-01
612.07	3.8580E-01
612.40	3.7937E-01
612.73	3.8003E-01
613.07	3.8500E-01
613.40	3.8082E-01
613.73	3.8044E-01
614.06	3.8322E-01
614.39	3.8383E-01
614.72	3.8655E-01
615.06	3.8442E-01
615.39	3.8940E-01
615.72	3.8426E-01
616.05	3.8926E-01
616.38	3.8590E-01
616.71	3.8847E-01
617.05	3.8455E-01
617.38	3.8984E-01
617.71	3.8338E-01
618.04	3.9072E-01
618.37	3.8589E-01
618.70	3.8471E-01
619.03	3.8960E-01
619.36	3.8166E-01
619.69	3.9031E-01
620.03	3.8413E-01
620.36	3.8846E-01
620.69	3.8670E-01
621.02	3.8798E-01
621.35	3.8496E-01
621.68	3.8346E-01
622.01	3.8258E-01
622.34	3.8640E-01
622.67	3.8589E-01
623.00	3.8521E-01
623.33	3.8425E-01
623.66	3.8585E-01
623.99	3.8607E-01
624.32	3.8206E-01
624.65	3.8432E-01
624.99	3.8451E-01
625.32	3.8683E-01
625.65	3.8295E-01
625.98	3.8149E-01
626.31	3.8510E-01
626.64	3.8666E-01
626.97	3.8475E-01
627.30	3.8205E-01
627.63	3.8382E-01
627.96	3.8509E-01
628.29	3.8028E-01
628.62	3.8560E-01
628.95	3.8442E-01
629.28	3.7814E-01
629.61	3.8958E-01
629.94	3.8377E-01
630.26	3.8591E-01
630.59	3.8852E-01
630.92	3.8604E-01
631.25	3.8823E-01
631.58	3.9158E-01
631.91	3.8609E-01
632.24	3.9442E-01
632.57	3.9031E-01
632.90	3.9295E-01
633.23	3.9279E-01
633.56	3.9373E-01
633.89	3.9405E-01
634.22	3.9401E-01
634.55	3.9681E-01
634.88	4.0167E-01
635.20	3.9777E-01
635.53	4.0193E-01
635.86	4.0211E-01
636.19	4.0650E-01
636.52	4.0760E-01
636.85	4.0912E-01
637.18	4.1251E-01
637.51	4.1174E-01
637.83	4.1217E-01
638.16	4.1007E-01
638.49	4.1762E-01
638.82	4.1542E-01
639.15	4.2092E-01
639.48	4.2320E-01
639.81	4.2719E-01
640.13	4.2241E-01
640.46	4.2978E-01
640.79	4.2677E-01
641.12	4.3377E-01
641.45	4.2990E-01
641.77	4.3066E-01
642.10	4.3842E-01
642.43	4.4019E-01
642.76	4.4264E-01
643.09	4.3818E-01
643.41	4.4369E-01
643.74	4.4533E-01
644.07	4.4419E-01
644.40	4.4707E-01
644.73	4.5171E-01
645.05	4.5509E-01
645.38	4.5486E-01
645.71	4.6153E-01
646.04	4.5996E-01
646.36	4.5863E-01
646.69	4.6699E-01
647.02	4.6620E-01
647.35	4.6511E-01
647.67	4.6909E-01
648.00	4.6806E-01
648.33	4.7532E-01
648.66	4.7149E-01
648.98	4.7574E-01
649.31	4.7511E-01
649.64	4.7676E-01
649.96	4.8003E-01
650.29	4.8651E-01
650.62	4.8479E-01
650.94	4.8693E-01
651.27	4.8650E-01
651.60	4.8927E-01
651.92	4.9340E-01
652.25	4.9609E-01
652.58	4.9365E-01
652.90	4.9656E-01
653.23	4.9689E-01
653.56	5.0124E-01
653.88	5.0336E-01
654.21	5.0162E-01
654.54	5.0528E-01
654.86	5.1053E-01
655.19	5.0258E-01
655.52	5.1168E-01
655.84	5.0814E-01
656.17	5.1435E-01
656.49	5.1535E-01
656.82	5.1329E-01
657.15	5.1775E-01
657.47	5.1679E-01
657.80	5.2029E-01
658.13	5.1901E-01
658.45	5.2257E-01
658.78	5.2540E-01
659.10	5.2611E-01
659.43	5.3066E-01
659.75	5.2638E-01
660.08	5.2772E-01
660.41	5.3265E-01
660.73	5.3209E-01
661.06	5.3497E-01
661.38	5.3420E-01
661.71	5.3840E-01
662.03	5.3483E-01
662.36	5.4062E-01
662.68	5.4238E-01
663.01	5.3515E-01
663.33	5.4493E-01
663.66	5.4689E-01
663.98	5.4830E-01
664.31	5.4198E-01
664.63	5.5326E-01
664.96	5.4424E-01
665.28	5.4995E-01
665.61	5.4926E-01
665.93	5.5475E-01
666.26	5.5369E-01
666.58	5.5643E-01
666.91	5.5480E-01
667.23	5.6043E-01
667.56	5.5847E-01
667.88	5.5733E-01
668.21	5.6321E-01
668.53	5.6102E-01
668.86	5.6368E-01
669.18	5.6161E-01
669.50	5.7168E-01
669.83	5.7194E-01
670.15	5.7344E-01
670.48	5.7443E-01
670.80	5.6985E-01
671.13	5.6977E-01
671.45	5.7559E-01
671.77	5.7399E-01
672.10	5.7285E-01
672.42	5.8241E-01
672.75	5.7576E-01
673.07	5.8377E-01
673.39	5.8372E-01
673.72	5.8314E-01
674.04	5.8774E-01
674.37	5.8760E-01
674.69	5.8668E-01
675.01	5.9072E-01
675.34	5.9137E-01
675.66	5.9366E-01
675.98	5.8666E-01
676.31	5.9650E-01
676.63	5.9658E-01
676.95	5.9589E-01
677.28	6.0042E-01
677.60	5.9883E-01
677.92	6.0319E-01
678.25	6.0694E-01
678.57	6.0779E-01
678.89	6.0692E-01
679.22	6.0807E-01
679.54	6.0795E-01
679.86	6.1177E-01
680.18	6.1128E-01
680.51	6.1013E-01
680.83	6.2586E-01
681.15	6.1899E-01
681.48	6.2016E-01
681.80	6.2101E-01
682.12	6.1881E-01
682.44	6.2771E-01
682.77	6.2669E-01
683.09	6.3143E-01
683.41	6.3119E-01
683.73	6.3678E-01
684.06	6.3738E-01
684.38	6.3559E-01
684.70	6.3791E-01
685.02	6.3756E-01
685.34	6.4432E-01
685.67	6.3980E-01
685.99	6.5359E-01
686.31	6.4799E-01
686.63	6.5438E-01
686.96	6.5728E-01
687.28	6.5960E-01
687.60	6.5714E-01
687.92	6.5868E-01
688.24	6.7055E-01
688.56	6.6918E-01
688.89	6.6692E-01
689.21	6.7177E-01
689.53	6.7172E-01
689.85	6.8382E-01
690.17	6.7726E-01
690.49	6.8651E-01
690.82	6.8649E-01
691.14	6.8978E-01
691.46	6.8805E-01
691.78	6.9612E-01
692.10	6.9241E-01
692.42	6.9712E-01
692.74	7.0210E-01
693.06	7.0484E-01
693.39	7.1048E-01
693.71	7.1849E-01
694.03	7.1290E-01
694.35	7.1303E-01
694.67	7.2545E-01
694.99	7.2536E-01
695.31	7.3126E-01
695.63	7.3162E-01
695.95	7.3242E-01
696.27	7.3400E-01
696.59	7.3647E-01
696.91	7.4520E-01
697.23	7.4987E-01
697.56	7.5041E-01
697.88	7.5482E-01
698.20	7.5352E-01
698.52	7.5684E-01
698.84	7.6734E-01
699.16	7.7252E-01
699.48	7.6955E-01
699.80	7.7235E-01
700.12	7.8609E-01
700.44	7.8263E-01
700.76	7.8593E-01
701.08	7.9122E-01
701.40	7.9499E-01
701.72	7.9589E-01
702.04	8.0271E-01
702.36	8.0173E-01
702.68	8.0877E-01
703.00	8.1848E-01
703.32	8.1294E-01
703.64	8.2258E-01
703.96	8.1302E-01
704.28	8.2492E-01
704.60	8.3698E-01
704.91	8.3383E-01
705.23	8.4141E-01
705.55	8.4737E-01
705.87	8.5259E-01
706.19	8.5121E-01
706.51	8.4931E-01
706.83	8.4716E-01
707.15	8.7947E-01
707.47	8.6891E-01
707.79	8.7395E-01
708.11	8.7804E-01
708.43	8.8064E-01
708.74	8.8674E-01
709.06	8.9640E-01
709.38	8.9493E-01
709.70	8.9675E-01
710.02	9.0376E-01
710.34	8.9680E-01
710.66	9.1253E-01
710.98	9.1704E-01
711.29	9.2231E-01
711.61	9.3932E-01
711.93	9.3403E-01
712.25	9.3407E-01
712.57	9.4520E-01
712.89	9.5126E-01
713.20	9.5334E-01
713.52	9.6238E-01
713.84	9.6332E-01
714.16	9.5814E-01
714.48	9.6733E-01
714.80	9.8132E-01
715.11	9.7703E-01
715.43	9.8979E-01
715.75	9.8910E-01
716.07	1.0048E00
716.39	9.8714E-01
716.70	1.0003E00
717.02	9.9639E-01
717.34	1.0244E00
717.66	1.0155E00
717.97	1.0302E00
718.29	1.0402E00
718.61	1.0405E00
718.93	1.0417E00
719.24	1.0475E00
719.56	1.0668E00
719.88	1.0561E00
720.20	1.0771E00
720.51	1.0916E00
720.83	1.0792E00
721.15	1.0986E00
721.46	1.1046E00
721.78	1.1123E00
722.10	1.1251E00
722.42	1.1284E00
722.73	1.1293E00
723.05	1.1302E00
723.37	1.1450E00
723.68	1.1568E00
724.00	1.1561E00
724.32	1.1770E00
724.63	1.1655E00
724.95	1.1802E00
725.27	1.1818E00
725.58	1.1808E00
725.90	1.1762E00
726.22	1.2025E00
726.53	1.1909E00
726.85	1.2020E00
727.16	1.2072E00
727.48	1.2025E00
727.80	1.2150E00
728.11	1.2185E00
728.43	1.2239E00
728.74	1.2207E00
729.06	1.2278E00
729.38	1.2323E00
729.69	1.2297E00
730.01	1.2475E00
730.32	1.2456E00
730.64	1.2481E00
730.96	1.2369E00
731.27	1.2688E00
731.59	1.2533E00
731.90	1.2619E00
732.22	1.2697E00
732.53	1.2786E00
732.85	1.2778E00
733.16	1.2766E00
733.48	1.2712E00
733.80	1.2796E00
734.11	1.2907E00
734.43	1.3064E00
734.74	1.3095E00
735.06	1.3126E00
735.37	1.3231E00
735.69	1.3262E00
736.00	1.3167E00
736.32	1.3316E00
736.63	1.3262E00
736.95	1.3426E00
737.26	1.3536E00
737.58	1.3472E00
737.89	1.3758E00
738.21	1.3625E00
738.52	1.3603E00
738.83	1.3783E00
739.15	1.3661E00
739.46	1.3843E00
739.78	1.3818E00
740.09	1.3941E00
740.41	1.3819E00
740.72	1.3894E00
741.04	1.3869E00
741.35	1.3884E00
741.66	1.4143E00
741.98	1.4034E00
742.29	1.3983E00
742.61	1.4081E00
742.92	1.4149E00
743.23	1.4140E00
743.55	1.4163E00
743.86	1.4148E00
744.18	1.4225E00
744.49	1.4219E00
744.80	1.4133E00
745.12	1.4115E00
745.43	1.4214E00
745.74	1.4174E00
746.06	1.4179E00
746.37	1.4056E00
746.68	1.4201E00
747.00	1.4068E00
747.31	1.4225E00
747.62	1.4055E00
747.94	1.4394E00
748.25	1.4220E00
748.56	1.4192E00
748.88	1.4079E00
749.19	1.4277E00
749.50	1.4139E00
749.82	1.4201E00
750.13	1.4302E00
750.44	1.4175E00
750.75	1.4176E00
751.07	1.4250E00
751.38	1.4140E00
751.69	1.4136E00
752.01	1.4286E00
752.32	1.4376E00
752.63	1.4290E00
752.94	1.4253E00
753.26	1.4311E00
753.57	1.4404E00
753.88	1.4531E00
754.19	1.4339E00
754.51	1.4403E00
754.82	1.4576E00
755.13	1.4553E00
755.44	1.4659E00
755.75	1.4536E00
756.07	1.4626E00
756.38	1.4696E00
756.69	1.4752E00
757.00	1.4746E00
757.31	1.5015E00
757.63	1.4965E00
757.94	1.5050E00
758.25	1.5156E00
758.56	1.4980E00
758.87	1.5152E00
759.18	1.5209E00
759.50	1.5259E00
759.81	1.5287E00
760.12	1.5482E00
760.43	1.5580E00
760.74	1.5704E00
761.05	1.5677E00
761.36	1.5785E00
761.67	1.5848E00
761.99	1.5914E00
762.30	1.5912E00
762.61	1.6091E00
762.92	1.6271E00
763.23	1.6255E00
763.54	1.6496E00
763.85	1.6490E00
764.16	1.6721E00
764.47	1.6872E00
764.78	1.7063E00
765.10	1.7079E00
765.41	1.7110E00
765.72	1.7257E00
766.03	1.7649E00
766.34	1.7722E00
766.65	1.7603E00
766.96	1.8075E00
767.27	1.7972E00
767.58	1.7933E00
767.89	1.8228E00
768.20	1.8426E00
768.51	1.8407E00
768.82	1.8527E00
769.13	1.8661E00
769.44	1.9055E00
769.75	1.9176E00
770.06	1.9372E00
770.37	1.9138E00
770.68	1.9570E00
770.99	1.9784E00
771.30	2.0027E00
771.61	2.0397E00
771.92	2.0309E00
772.23	2.0323E00
772.54	2.0728E00
772.85	2.0618E00
773.16	2.0775E00
773.47	2.1210E00
773.78	2.1003E00
774.09	2.1510E00
774.39	2.1476E00
774.70	2.1839E00
775.01	2.2007E00
775.32	2.2243E00
775.63	2.2398E00
775.94	2.2623E00
776.25	2.2457E00
776.56	2.2823E00
776.87	2.3563E00
777.18	2.3210E00
777.48	2.3648E00
777.79	2.3827E00
778.10	2.4016E00
778.41	2.4168E00
778.72	2.4582E00
779.03	2.4594E00
779.34	2.4888E00
779.65	2.4938E00
779.95	2.5201E00
780.26	2.5397E00
780.57	2.5498E00
780.88	2.5802E00
781.19	2.5966E00
781.50	2.6110E00
781.80	2.6456E00
782.11	2.6800E00
782.42	2.6942E00
782.73	2.6622E00
783.04	2.7575E00
783.34	2.7468E00
783.65	2.8019E00
783.96	2.8080E00
784.27	2.8171E00
784.57	2.8028E00
784.88	2.8568E00
785.19	2.8735E00
785.50	2.8998E00
785.81	2.9480E00
786.11	2.9300E00
786.42	2.9685E00
786.73	3.0298E00
787.04	3.0470E00
787.34	3.0656E00
787.65	3.0309E00
787.96	3.1379E00
788.26	3.1116E00
788.57	3.1946E00
788.88	3.1301E00
789.19	3.2471E00
789.49	3.2269E00
789.80	3.3068E00
790.11	3.3104E00
790.41	3.2860E00
790.72	3.3782E00
791.03	3.4143E00
791.33	3.3948E00
791.64	3.4700E00
791.95	3.4570E00
792.25	3.5146E00
792.56	3.5180E00
792.87	3.5112E00
793.17	3.5338E00
793.48	3.5613E00
793.79	3.6520E00
794.09	3.6681E00
794.40	3.6447E00
794.70	3.6239E00
795.01	3.7383E00
795.32	3.7348E00
795.62	3.7715E00
795.93	3.7878E00
796.23	3.8215E00
796.54	3.8463E00
796.85	3.8965E00
797.15	3.9293E00
797.46	3.8833E00
797.76	3.9793E00
798.07	4.0194E00
798.37	4.0471E00
798.68	4.0761E00
798.99	4.1069E00
799.29	4.1128E00
799.60	4.1951E00
799.90	4.1935E00
800.21	4.2893E00
800.51	4.2781E00
800.82	4.2818E00
801.12	4.3473E00
801.43	4.3805E00
801.73	4.3687E00
802.04	4.4676E00
802.34	4.4548E00
802.65	4.5079E00
802.95	4.5795E00
803.26	4.5608E00
803.56	4.5382E00
803.87	4.6318E00
804.17	4.7000E00
804.48	4.6610E00
804.78	4.7197E00
805.09	4.8066E00
805.39	4.7240E00
805.70	4.7873E00
806.00	4.8655E00
806.30	4.8707E00
806.61	4.8928E00
806.91	4.9060E00
807.22	5.0151E00
807.52	5.0161E00
807.83	5.0276E00
808.13	5.1145E00
808.43	5.0357E00
808.74	5.0954E00
809.04	5.1540E00
809.35	5.2093E00
809.65	5.2818E00
809.95	5.2973E00
810.26	5.4139E00
810.56	5.3338E00
810.86	5.5506E00
811.17	5.4579E00
811.47	5.6068E00
811.77	5.5328E00
812.08	5.5160E00
812.38	5.6454E00
812.69	5.6228E00
812.99	5.6443E00
813.29	5.7180E00
813.59	5.7741E00
813.90	5.9119E00
814.20	5.8436E00
814.50	6.0181E00
814.81	5.8426E00
815.11	6.0944E00
815.41	6.1247E00
815.72	6.1681E00
816.02	6.2292E00
816.32	6.3575E00
816.62	5.8454E00
816.93	5.5114E00
817.23	5.2656E00
817.53	5.1517E00
817.84	5.1708E00
818.14	5.1974E00
818.44	5.1848E00
818.74	5.3088E00
819.04	5.4366E00
819.35	5.3774E00
819.65	5.2739E00
819.95	5.3171E00
820.25	5.5104E00
820.56	5.6361E00
820.86	5.8931E00
821.16	6.0577E00
821.46	6.2069E00
821.76	5.9746E00
822.07	6.1758E00
822.37	5.9178E00
822.67	5.8223E00
822.97	5.4239E00
823.27	4.9325E00
823.57	4.7720E00
823.88	5.0341E00
824.18	4.9940E00
824.48	5.3041E00
824.78	5.4610E00
825.08	5.5912E00
825.38	5.7478E00
825.69	5.7036E00
825.99	5.7424E00
826.29	5.6402E00
826.59	5.6979E00
826.89	5.8837E00
827.19	5.9434E00
827.49	5.6972E00
827.79	5.4015E00
828.09	5.3590E00
828.39	5.2006E00
828.70	5.1846E00
829.00	5.0238E00
829.30	4.9845E00
829.60	4.9824E00
829.90	4.9385E00
830.20	4.8421E00
830.50	4.8683E00
830.80	4.9306E00
831.10	4.7883E00
831.40	4.9247E00
831.70	4.8798E00
832.00	4.9056E00
832.30	4.6954E00
832.60	4.6626E00
832.90	4.6603E00
833.20	4.6330E00
833.50	4.6932E00
833.80	4.6148E00
834.10	4.5950E00
834.40	4.7217E00
834.70	4.7533E00
835.00	4.7178E00
835.30	4.7405E00
835.60	4.7820E00
835.90	4.8295E00
836.20	4.8754E00
836.50	4.8873E00
836.80	4.9783E00
837.10	5.3883E00
837.40	4.9405E00
837.70	4.9980E00
838.00	4.8915E00
838.30	5.0977E00
838.60	4.9487E00
838.90	5.0948E00
839.19	5.4294E00
839.49	5.0446E00
839.79	5.0178E00
840.09	5.0614E00
840.39	5.1159E00
840.69	5.1597E00
840.99	5.2052E00
841.29	5.2304E00
841.59	5.0325E00
841.88	5.0451E00
842.18	5.1230E00
842.48	5.0819E00
842.78	5.1447E00
843.08	5.1534E00
843.38	5.0868E00
843.68	5.3770E00
843.97	5.3403E00
844.27	5.1892E00
844.57	5.0374E00
844.87	5.0717E00
845.17	5.2941E00
845.47	5.0494E00
845.76	5.2861E00
846.06	5.2933E00
846.36	5.8551E00
846.66	5.1777E00
846.96	5.2220E00
847.25	5.3081E00
847.55	5.1098E00
847.85	5.2079E00
848.15	5.2192E00
848.44	5.1071E00
848.74	5.1387E00
849.04	5.2592E00
849.34	5.2282E00
849.63	5.1841E00
849.93	5.0718E00
850.23	4.9479E00
850.53	5.0080E00
850.82	4.9785E00
851.12	5.0295E00
851.42	5.0566E00
851.71	5.0053E00
852.01	4.9867E00
852.31	4.9381E00
852.61	5.0493E00
852.90	4.9269E00
853.20	5.2059E00
853.50	5.4010E00
853.79	5.2216E00
854.09	4.9324E00
854.39	4.9449E00
854.68	4.7661E00
854.98	4.7423E00
855.28	4.6993E00
855.57	4.8970E00
855.87	4.7786E00
856.17	4.7359E00
856.46	4.7398E00
856.76	4.6946E00
857.05	5.0317E00
857.35	5.0287E00
857.65	5.3410E00
857.94	5.1760E00
858.24	5.2010E00
858.53	5.1318E00
858.83	5.9410E00
859.13	5.2171E00
859.42	5.1776E00
859.72	5.2613E00
860.01	5.1779E00
860.31	5.0952E00
860.60	5.2556E00
860.90	5.4401E00
861.20	5.0903E00
861.49	5.1262E00
861.79	5.1674E00
862.08	6.2922E00
862.38	5.4215E00
862.67	5.1034E00
862.97	5.1450E00
863.26	5.3862E00
863.56	5.3994E00
863.85	5.7049E00
864.15	5.3285E00
864.44	5.3129E00
864.74	5.2289E00
865.03	5.6010E00
865.33	5.5204E00
865.62	5.2680E00
865.92	5.1379E00
866.21	5.1805E00
866.51	5.0457E00
866.80	5.3763E00
867.10	5.2726E00
867.39	5.1643E00
867.69	5.1883E00
867.98	4.9689E00
868.27	4.8986E00
868.57	5.1339E00
868.86	5.1956E00
869.16	4.8375E00
869.45	5.0789E00
869.75	5.0299E00
870.04	5.0791E00
870.33	5.3400E00
870.63	5.1832E00
870.92	5.2308E00
871.22	6.4234E00
871.51	5.2818E00
871.80	5.3254E00
872.10	5.3254E00
>>>>>End Processed Spectral Data<<<<<
