SpectraSuite Data File
++++++++++++++++++++++++++++++++++++
Date: Fri May 15 10:52:43 PDT 2015
User: schluterlab
Dark Spectrum Present: Yes
Reference Spectrum Present: No
Number of Sampled Component Spectra: 1
Spectrometers: USB2E3373
Integration Time (usec): 2300000 (USB2E3373)
Spectra Averaged: 3 (USB2E3373)
Boxcar Smoothing: 0 (USB2E3373)
Correct for Electrical Dark: No (USB2E3373)
Strobe/Lamp Enabled: No (USB2E3373)
Correct for Detector Non-linearity: No (USB2E3373)
Correct for Stray Light: No (USB2E3373)
Number of Pixels in Processed Spectrum: 2048
>>>>>Begin Processed Spectral Data<<<<<
178.53	0.0000E00
178.91	0.0000E00
179.29	0.0000E00
179.67	0.0000E00
180.04	0.0000E00
180.42	0.0000E00
180.80	0.0000E00
181.18	0.0000E00
181.56	0.0000E00
181.94	0.0000E00
182.31	0.0000E00
182.69	0.0000E00
183.07	0.0000E00
183.45	0.0000E00
183.83	0.0000E00
184.20	0.0000E00
184.58	0.0000E00
184.96	0.0000E00
185.34	0.0000E00
185.72	0.0000E00
186.09	0.0000E00
186.47	0.0000E00
186.85	0.0000E00
187.23	0.0000E00
187.61	-0.0000E00
187.98	0.0000E00
188.36	0.0000E00
188.74	0.0000E00
189.12	0.0000E00
189.49	0.0000E00
189.87	0.0000E00
190.25	0.0000E00
190.63	0.0000E00
191.00	0.0000E00
191.38	0.0000E00
191.76	0.0000E00
192.14	0.0000E00
192.51	0.0000E00
192.89	0.0000E00
193.27	0.0000E00
193.65	0.0000E00
194.02	0.0000E00
194.40	0.0000E00
194.78	0.0000E00
195.15	0.0000E00
195.53	0.0000E00
195.91	0.0000E00
196.29	0.0000E00
196.66	0.0000E00
197.04	0.0000E00
197.42	0.0000E00
197.79	0.0000E00
198.17	0.0000E00
198.55	0.0000E00
198.92	0.0000E00
199.30	0.0000E00
199.68	0.0000E00
200.05	0.0000E00
200.43	0.0000E00
200.81	0.0000E00
201.18	0.0000E00
201.56	0.0000E00
201.94	0.0000E00
202.31	0.0000E00
202.69	0.0000E00
203.07	0.0000E00
203.44	0.0000E00
203.82	0.0000E00
204.19	0.0000E00
204.57	0.0000E00
204.95	0.0000E00
205.32	0.0000E00
205.70	0.0000E00
206.08	0.0000E00
206.45	0.0000E00
206.83	0.0000E00
207.20	0.0000E00
207.58	0.0000E00
207.96	0.0000E00
208.33	0.0000E00
208.71	0.0000E00
209.08	0.0000E00
209.46	0.0000E00
209.84	0.0000E00
210.21	0.0000E00
210.59	0.0000E00
210.96	0.0000E00
211.34	0.0000E00
211.71	0.0000E00
212.09	0.0000E00
212.46	0.0000E00
212.84	0.0000E00
213.22	0.0000E00
213.59	0.0000E00
213.97	0.0000E00
214.34	0.0000E00
214.72	0.0000E00
215.09	0.0000E00
215.47	0.0000E00
215.84	0.0000E00
216.22	0.0000E00
216.59	0.0000E00
216.97	0.0000E00
217.34	0.0000E00
217.72	0.0000E00
218.09	0.0000E00
218.47	0.0000E00
218.84	0.0000E00
219.22	0.0000E00
219.59	0.0000E00
219.97	0.0000E00
220.34	0.0000E00
220.72	0.0000E00
221.09	0.0000E00
221.47	0.0000E00
221.84	0.0000E00
222.22	0.0000E00
222.59	0.0000E00
222.97	0.0000E00
223.34	0.0000E00
223.72	0.0000E00
224.09	0.0000E00
224.46	0.0000E00
224.84	0.0000E00
225.21	0.0000E00
225.59	0.0000E00
225.96	0.0000E00
226.34	0.0000E00
226.71	0.0000E00
227.08	0.0000E00
227.46	0.0000E00
227.83	0.0000E00
228.21	0.0000E00
228.58	0.0000E00
228.95	0.0000E00
229.33	0.0000E00
229.70	0.0000E00
230.08	0.0000E00
230.45	0.0000E00
230.82	0.0000E00
231.20	0.0000E00
231.57	0.0000E00
231.95	0.0000E00
232.32	0.0000E00
232.69	0.0000E00
233.07	0.0000E00
233.44	-0.0000E00
233.81	0.0000E00
234.19	0.0000E00
234.56	0.0000E00
234.93	0.0000E00
235.31	0.0000E00
235.68	0.0000E00
236.05	0.0000E00
236.43	0.0000E00
236.80	-0.0000E00
237.17	0.0000E00
237.55	0.0000E00
237.92	0.0000E00
238.29	0.0000E00
238.67	0.0000E00
239.04	0.0000E00
239.41	0.0000E00
239.79	0.0000E00
240.16	0.0000E00
240.53	0.0000E00
240.91	0.0000E00
241.28	0.0000E00
241.65	0.0000E00
242.02	0.0000E00
242.40	0.0000E00
242.77	0.0000E00
243.14	0.0000E00
243.51	0.0000E00
243.89	0.0000E00
244.26	0.0000E00
244.63	0.0000E00
245.00	0.0000E00
245.38	0.0000E00
245.75	0.0000E00
246.12	0.0000E00
246.49	0.0000E00
246.87	0.0000E00
247.24	0.0000E00
247.61	0.0000E00
247.98	0.0000E00
248.36	0.0000E00
248.73	0.0000E00
249.10	0.0000E00
249.47	0.0000E00
249.84	0.0000E00
250.22	0.0000E00
250.59	0.0000E00
250.96	0.0000E00
251.33	0.0000E00
251.70	0.0000E00
252.08	0.0000E00
252.45	0.0000E00
252.82	0.0000E00
253.19	0.0000E00
253.56	0.0000E00
253.94	0.0000E00
254.31	0.0000E00
254.68	0.0000E00
255.05	0.0000E00
255.42	0.0000E00
255.79	0.0000E00
256.16	0.0000E00
256.54	0.0000E00
256.91	0.0000E00
257.28	0.0000E00
257.65	0.0000E00
258.02	0.0000E00
258.39	0.0000E00
258.76	0.0000E00
259.14	0.0000E00
259.51	0.0000E00
259.88	0.0000E00
260.25	0.0000E00
260.62	0.0000E00
260.99	0.0000E00
261.36	0.0000E00
261.73	0.0000E00
262.10	0.0000E00
262.47	0.0000E00
262.85	0.0000E00
263.22	0.0000E00
263.59	0.0000E00
263.96	0.0000E00
264.33	0.0000E00
264.70	0.0000E00
265.07	0.0000E00
265.44	0.0000E00
265.81	0.0000E00
266.18	0.0000E00
266.55	0.0000E00
266.92	0.0000E00
267.29	0.0000E00
267.66	0.0000E00
268.03	0.0000E00
268.40	0.0000E00
268.77	0.0000E00
269.14	0.0000E00
269.51	0.0000E00
269.88	0.0000E00
270.25	0.0000E00
270.62	0.0000E00
270.99	0.0000E00
271.36	0.0000E00
271.73	0.0000E00
272.10	0.0000E00
272.47	0.0000E00
272.84	0.0000E00
273.21	0.0000E00
273.58	0.0000E00
273.95	0.0000E00
274.32	0.0000E00
274.69	0.0000E00
275.06	0.0000E00
275.43	0.0000E00
275.80	0.0000E00
276.17	0.0000E00
276.54	0.0000E00
276.91	0.0000E00
277.28	0.0000E00
277.65	-0.0000E00
278.02	0.0000E00
278.39	0.0000E00
278.76	0.0000E00
279.13	0.0000E00
279.50	0.0000E00
279.87	0.0000E00
280.23	0.0000E00
280.60	0.0000E00
280.97	0.0000E00
281.34	0.0000E00
281.71	0.0000E00
282.08	0.0000E00
282.45	0.0000E00
282.82	0.0000E00
283.19	0.0000E00
283.56	0.0000E00
283.92	0.0000E00
284.29	0.0000E00
284.66	0.0000E00
285.03	0.0000E00
285.40	0.0000E00
285.77	0.0000E00
286.14	0.0000E00
286.51	0.0000E00
286.87	0.0000E00
287.24	0.0000E00
287.61	0.0000E00
287.98	0.0000E00
288.35	0.0000E00
288.72	0.0000E00
289.08	0.0000E00
289.45	0.0000E00
289.82	0.0000E00
290.19	0.0000E00
290.56	0.0000E00
290.93	0.0000E00
291.29	0.0000E00
291.66	0.0000E00
292.03	0.0000E00
292.40	0.0000E00
292.77	0.0000E00
293.13	0.0000E00
293.50	0.0000E00
293.87	0.0000E00
294.24	0.0000E00
294.60	0.0000E00
294.97	0.0000E00
295.34	0.0000E00
295.71	0.0000E00
296.08	0.0000E00
296.44	0.0000E00
296.81	0.0000E00
297.18	0.0000E00
297.55	0.0000E00
297.91	0.0000E00
298.28	0.0000E00
298.65	0.0000E00
299.02	0.0000E00
299.38	0.0000E00
299.75	0.0000E00
300.12	7.3559E-01
300.48	1.6450E00
300.85	1.7291E00
301.22	8.5584E-01
301.59	1.4287E00
301.95	2.4912E00
302.32	9.2068E-01
302.69	7.8418E-01
303.05	1.0792E00
303.42	1.8926E00
303.79	1.0328E00
304.15	9.4727E-01
304.52	8.6617E-01
304.89	1.0342E00
305.25	1.6214E00
305.62	1.1751E00
305.99	9.7729E-01
306.35	2.0054E00
306.72	9.6532E-01
307.09	1.6552E00
307.45	2.1199E00
307.82	1.1377E00
308.19	7.3721E00
308.55	1.1773E00
308.92	1.0883E00
309.29	1.3320E00
309.65	1.8333E00
310.02	1.3323E00
310.38	1.3330E00
310.75	9.4739E-01
311.12	1.4726E00
311.48	1.4753E00
311.85	9.2521E-01
312.22	1.1894E00
312.58	1.4912E00
312.95	1.4258E00
313.31	1.3685E00
313.68	1.1217E00
314.05	2.0300E00
314.41	9.8780E-01
314.78	2.5705E00
315.14	1.3504E00
315.51	1.4895E00
315.87	1.5013E00
316.24	1.8677E00
316.61	1.1024E00
316.97	2.4797E00
317.34	1.4144E00
317.70	1.6395E00
318.07	1.5727E00
318.43	9.5307E-01
318.80	1.1604E00
319.16	2.2603E00
319.53	9.0100E-01
319.89	1.4388E00
320.26	9.4098E-01
320.62	2.0643E00
320.99	1.7706E00
321.35	1.7875E00
321.72	1.0005E00
322.08	1.1339E00
322.45	1.3078E00
322.81	2.4597E00
323.18	1.1624E00
323.54	9.8596E-01
323.91	1.5099E00
324.27	1.1888E00
324.64	3.8274E00
325.00	4.2815E00
325.37	2.0407E00
325.73	2.4381E00
326.10	1.9612E00
326.46	1.4614E00
326.83	1.4154E00
327.19	1.7313E00
327.56	1.2116E00
327.92	2.5074E00
328.29	1.2191E00
328.65	9.8455E-01
329.01	1.2255E00
329.38	1.2666E00
329.74	1.5613E00
330.11	1.5032E00
330.47	3.1254E00
330.84	1.6242E00
331.20	8.6401E-01
331.56	4.0571E00
331.93	1.9292E00
332.29	1.7599E00
332.66	2.0180E00
333.02	1.7514E00
333.38	1.0857E00
333.75	2.3580E00
334.11	1.0528E00
334.48	1.6642E00
334.84	9.4877E-01
335.20	1.4204E00
335.57	1.6522E00
335.93	1.3639E00
336.29	1.4108E00
336.66	1.4091E00
337.02	1.1953E00
337.38	1.4607E00
337.75	1.1275E00
338.11	1.3602E00
338.47	1.0397E00
338.84	1.4142E00
339.20	1.5258E00
339.56	1.6593E00
339.93	1.5363E00
340.29	1.2155E00
340.65	1.0339E00
341.02	1.5605E00
341.38	1.0481E00
341.74	1.3270E00
342.11	4.6098E00
342.47	1.4919E00
342.83	1.3588E00
343.20	1.7011E00
343.56	1.4295E00
343.92	1.3975E00
344.28	1.0409E00
344.65	1.1606E00
345.01	9.6946E-01
345.37	1.1529E00
345.73	1.4197E00
346.10	1.3096E00
346.46	8.5680E-01
346.82	1.5069E00
347.19	1.6838E00
347.55	1.5346E00
347.91	1.9981E00
348.27	1.0744E00
348.63	1.5701E00
349.00	1.4875E00
349.36	1.3009E00
349.72	1.6608E00
350.08	1.2529E00
350.45	1.1216E00
350.81	1.3349E00
351.17	2.2166E00
351.53	1.8275E00
351.89	1.4288E00
352.26	9.2279E-01
352.62	9.9586E-01
352.98	1.0848E00
353.34	1.2745E00
353.70	1.4168E00
354.07	1.1446E00
354.43	1.0559E00
354.79	1.4318E00
355.15	1.2091E00
355.51	1.5263E00
355.87	9.2527E-01
356.24	9.2702E-01
356.60	1.0008E00
356.96	1.0867E00
357.32	1.0496E00
357.68	1.2192E00
358.04	9.8614E-01
358.40	1.4251E00
358.77	1.1645E00
359.13	8.3907E-01
359.49	1.2063E00
359.85	1.0201E00
360.21	1.2797E00
360.57	9.5171E-01
360.93	1.2468E00
361.29	1.2075E00
361.66	9.0561E-01
362.02	9.1458E-01
362.38	1.0716E00
362.74	9.0758E-01
363.10	8.5389E-01
363.46	9.4102E-01
363.82	9.6818E-01
364.18	1.0591E00
364.54	9.6167E-01
364.90	8.7022E-01
365.26	1.4547E00
365.62	8.5750E-01
365.98	1.1229E00
366.35	1.1017E00
366.71	9.2344E-01
367.07	1.0921E00
367.43	9.9729E-01
367.79	9.4338E-01
368.15	1.0974E00
368.51	1.1620E00
368.87	1.1562E00
369.23	9.6279E-01
369.59	1.0260E00
369.95	1.0795E00
370.31	9.3459E-01
370.67	8.8157E-01
371.03	9.7813E-01
371.39	1.0516E00
371.75	1.2011E00
372.11	1.0864E00
372.47	8.6870E-01
372.83	1.2942E00
373.19	1.1634E00
373.55	8.4869E-01
373.91	9.8297E-01
374.27	9.9172E-01
374.63	9.9038E-01
374.99	9.9927E-01
375.35	8.7893E-01
375.71	8.7908E-01
376.07	8.7860E-01
376.42	1.0234E00
376.78	1.0327E00
377.14	8.0874E-01
377.50	9.8602E-01
377.86	9.1902E-01
378.22	7.9016E-01
378.58	8.5433E-01
378.94	8.3928E-01
379.30	9.6983E-01
379.66	8.7644E-01
380.02	8.1928E-01
380.38	9.4246E-01
380.74	7.8444E-01
381.09	8.5723E-01
381.45	7.5385E-01
381.81	8.3964E-01
382.17	9.1257E-01
382.53	8.0439E-01
382.89	9.2241E-01
383.25	6.9135E-01
383.61	7.9811E-01
383.97	7.7220E-01
384.32	8.7683E-01
384.68	8.3273E-01
385.04	8.6658E-01
385.40	8.0788E-01
385.76	8.6356E-01
386.12	8.2334E-01
386.48	7.8211E-01
386.83	7.7020E-01
387.19	7.9841E-01
387.55	8.5664E-01
387.91	7.6709E-01
388.27	8.1501E-01
388.62	8.0740E-01
388.98	8.1933E-01
389.34	7.8683E-01
389.70	8.2997E-01
390.06	8.1183E-01
390.42	8.0408E-01
390.77	7.8725E-01
391.13	7.6342E-01
391.49	8.2090E-01
391.85	7.4624E-01
392.20	7.9707E-01
392.56	7.9016E-01
392.92	7.7169E-01
393.28	7.6089E-01
393.64	8.3940E-01
393.99	7.3835E-01
394.35	7.9352E-01
394.71	8.6166E-01
395.07	8.2064E-01
395.42	7.5296E-01
395.78	7.8697E-01
396.14	7.2955E-01
396.50	7.3230E-01
396.85	7.3521E-01
397.21	7.2752E-01
397.57	8.0866E-01
397.92	7.7677E-01
398.28	7.4282E-01
398.64	8.3848E-01
399.00	7.0334E-01
399.35	6.6654E-01
399.71	7.1312E-01
400.07	7.1564E-01
400.42	7.2550E-01
400.78	7.2191E-01
401.14	7.0763E-01
401.49	7.3230E-01
401.85	6.7015E-01
402.21	6.6091E-01
402.57	6.7886E-01
402.92	6.9204E-01
403.28	6.6333E-01
403.63	6.8446E-01
403.99	7.4333E-01
404.35	6.7633E-01
404.70	6.5600E-01
405.06	6.4395E-01
405.42	6.8373E-01
405.77	6.6856E-01
406.13	6.2049E-01
406.49	6.5916E-01
406.84	6.3296E-01
407.20	6.2858E-01
407.55	6.9126E-01
407.91	6.9988E-01
408.27	6.4478E-01
408.62	6.2499E-01
408.98	6.7791E-01
409.34	6.7302E-01
409.69	6.7063E-01
410.05	6.5467E-01
410.40	6.3377E-01
410.76	6.2305E-01
411.11	6.1408E-01
411.47	6.8429E-01
411.83	6.2424E-01
412.18	6.3524E-01
412.54	6.4275E-01
412.89	6.5925E-01
413.25	6.2680E-01
413.60	6.1393E-01
413.96	6.5567E-01
414.31	6.3445E-01
414.67	6.4020E-01
415.03	6.6390E-01
415.38	6.6523E-01
415.74	6.5659E-01
416.09	6.6722E-01
416.45	6.6218E-01
416.80	6.4079E-01
417.16	6.4110E-01
417.51	6.3994E-01
417.87	6.3223E-01
418.22	5.9843E-01
418.58	6.1220E-01
418.93	6.2149E-01
419.29	6.4665E-01
419.64	6.2850E-01
420.00	6.0948E-01
420.35	6.0092E-01
420.71	5.9942E-01
421.06	6.0503E-01
421.42	6.1475E-01
421.77	6.1825E-01
422.12	6.0009E-01
422.48	5.6433E-01
422.83	6.3063E-01
423.19	5.8365E-01
423.54	6.0204E-01
423.90	6.0490E-01
424.25	5.9397E-01
424.61	6.1569E-01
424.96	5.7858E-01
425.31	5.5427E-01
425.67	5.6458E-01
426.02	5.7035E-01
426.38	5.8025E-01
426.73	5.5604E-01
427.09	5.7789E-01
427.44	5.7320E-01
427.79	5.3793E-01
428.15	5.9147E-01
428.50	5.5756E-01
428.85	5.8684E-01
429.21	5.4017E-01
429.56	5.1266E-01
429.92	5.3321E-01
430.27	5.3473E-01
430.62	5.4622E-01
430.98	5.6621E-01
431.33	5.5293E-01
431.68	5.4556E-01
432.04	5.4484E-01
432.39	5.2622E-01
432.74	5.5304E-01
433.10	5.1745E-01
433.45	5.5922E-01
433.80	5.3691E-01
434.16	5.4953E-01
434.51	5.3454E-01
434.86	5.4046E-01
435.22	5.2193E-01
435.57	5.7131E-01
435.92	5.5232E-01
436.28	5.4412E-01
436.63	5.2053E-01
436.98	5.2910E-01
437.34	5.5304E-01
437.69	5.3368E-01
438.04	5.1172E-01
438.39	5.3698E-01
438.75	5.1787E-01
439.10	5.1142E-01
439.45	5.3813E-01
439.81	5.2538E-01
440.16	5.0594E-01
440.51	5.1327E-01
440.86	5.0584E-01
441.22	5.1225E-01
441.57	5.1880E-01
441.92	4.9355E-01
442.27	5.2591E-01
442.63	5.1625E-01
442.98	5.3107E-01
443.33	5.3199E-01
443.68	5.1473E-01
444.03	4.7902E-01
444.39	4.8391E-01
444.74	5.0989E-01
445.09	5.1276E-01
445.44	5.3493E-01
445.79	4.7309E-01
446.15	5.0147E-01
446.50	5.0367E-01
446.85	4.7344E-01
447.20	4.7979E-01
447.55	5.0364E-01
447.91	5.0303E-01
448.26	4.9171E-01
448.61	4.9243E-01
448.96	4.8788E-01
449.31	4.8519E-01
449.66	5.0582E-01
450.02	4.8950E-01
450.37	4.9086E-01
450.72	4.7795E-01
451.07	5.1327E-01
451.42	5.0638E-01
451.77	4.9176E-01
452.12	4.7806E-01
452.47	5.2000E-01
452.83	4.6605E-01
453.18	5.0233E-01
453.53	4.8072E-01
453.88	4.6355E-01
454.23	4.7209E-01
454.58	4.8016E-01
454.93	4.8273E-01
455.28	4.8418E-01
455.63	4.7996E-01
455.98	4.5777E-01
456.34	4.8102E-01
456.69	4.7445E-01
457.04	4.6208E-01
457.39	4.4908E-01
457.74	4.4730E-01
458.09	4.6031E-01
458.44	4.4388E-01
458.79	4.3254E-01
459.14	4.4426E-01
459.49	4.6525E-01
459.84	4.3860E-01
460.19	4.6717E-01
460.54	4.6286E-01
460.89	4.2900E-01
461.24	4.6750E-01
461.59	4.5492E-01
461.94	4.6014E-01
462.29	4.2551E-01
462.64	4.5542E-01
462.99	4.5550E-01
463.34	4.7280E-01
463.69	4.3766E-01
464.04	4.2847E-01
464.39	4.3730E-01
464.74	4.4228E-01
465.09	4.5114E-01
465.44	4.3899E-01
465.79	4.3814E-01
466.14	4.3908E-01
466.49	4.3547E-01
466.84	4.3970E-01
467.19	4.4484E-01
467.54	4.4423E-01
467.89	4.2189E-01
468.24	4.0959E-01
468.59	4.2328E-01
468.94	4.1328E-01
469.29	4.1506E-01
469.64	4.3125E-01
469.99	4.1207E-01
470.34	3.9660E-01
470.68	4.3091E-01
471.03	4.0207E-01
471.38	4.0566E-01
471.73	3.9548E-01
472.08	3.8599E-01
472.43	3.7829E-01
472.78	3.9241E-01
473.13	3.9276E-01
473.48	3.8277E-01
473.83	3.7641E-01
474.17	3.8332E-01
474.52	3.7933E-01
474.87	3.6199E-01
475.22	3.6684E-01
475.57	3.4853E-01
475.92	3.3644E-01
476.27	3.5723E-01
476.61	3.4186E-01
476.96	3.3781E-01
477.31	3.2133E-01
477.66	3.3104E-01
478.01	3.2632E-01
478.36	3.2228E-01
478.70	3.1941E-01
479.05	3.2444E-01
479.40	3.0790E-01
479.75	3.0988E-01
480.10	3.0699E-01
480.45	3.0329E-01
480.79	3.0234E-01
481.14	3.0963E-01
481.49	3.0098E-01
481.84	2.9259E-01
482.19	2.8837E-01
482.53	2.8868E-01
482.88	2.8738E-01
483.23	2.8344E-01
483.58	2.7857E-01
483.92	2.8472E-01
484.27	2.7247E-01
484.62	2.7332E-01
484.97	2.6811E-01
485.31	2.6379E-01
485.66	2.7054E-01
486.01	2.6863E-01
486.36	2.6191E-01
486.70	2.6604E-01
487.05	2.6438E-01
487.40	2.5900E-01
487.75	2.5141E-01
488.09	2.5560E-01
488.44	2.6255E-01
488.79	2.5234E-01
489.13	2.5422E-01
489.48	2.5450E-01
489.83	2.5648E-01
490.17	2.4832E-01
490.52	2.4871E-01
490.87	2.5027E-01
491.22	2.5270E-01
491.56	2.4821E-01
491.91	2.5191E-01
492.26	2.4934E-01
492.60	2.4851E-01
492.95	2.4995E-01
493.30	2.5208E-01
493.64	2.4713E-01
493.99	2.4952E-01
494.34	2.4737E-01
494.68	2.4302E-01
495.03	2.5020E-01
495.37	2.4642E-01
495.72	2.4860E-01
496.07	2.4461E-01
496.41	2.4792E-01
496.76	2.4585E-01
497.11	2.4767E-01
497.45	2.4608E-01
497.80	2.4785E-01
498.14	2.4803E-01
498.49	2.4839E-01
498.84	2.4743E-01
499.18	2.4587E-01
499.53	2.4899E-01
499.87	2.4728E-01
500.22	2.4946E-01
500.56	2.4797E-01
500.91	2.4647E-01
501.26	2.4806E-01
501.60	2.4783E-01
501.95	2.4429E-01
502.29	2.4594E-01
502.64	2.4628E-01
502.98	2.4772E-01
503.33	2.4819E-01
503.67	2.4684E-01
504.02	2.4577E-01
504.36	2.4392E-01
504.71	2.4586E-01
505.06	2.4577E-01
505.40	2.4530E-01
505.75	2.4299E-01
506.09	2.4389E-01
506.44	2.4250E-01
506.78	2.4404E-01
507.13	2.4395E-01
507.47	2.4136E-01
507.82	2.4066E-01
508.16	2.4089E-01
508.51	2.4030E-01
508.85	2.3970E-01
509.19	2.3926E-01
509.54	2.4235E-01
509.88	2.4065E-01
510.23	2.3827E-01
510.57	2.3749E-01
510.92	2.4096E-01
511.26	2.3886E-01
511.61	2.3851E-01
511.95	2.3910E-01
512.30	2.3735E-01
512.64	2.3829E-01
512.98	2.3753E-01
513.33	2.3720E-01
513.67	2.3709E-01
514.02	2.3573E-01
514.36	2.3515E-01
514.70	2.3602E-01
515.05	2.3505E-01
515.39	2.3566E-01
515.74	2.3310E-01
516.08	2.3556E-01
516.42	2.3331E-01
516.77	2.3396E-01
517.11	2.3248E-01
517.46	2.3476E-01
517.80	2.3235E-01
518.14	2.3319E-01
518.49	2.3309E-01
518.83	2.3057E-01
519.17	2.3430E-01
519.52	2.3194E-01
519.86	2.3135E-01
520.20	2.2935E-01
520.55	2.3099E-01
520.89	2.3185E-01
521.23	2.3154E-01
521.58	2.3119E-01
521.92	2.3501E-01
522.26	2.3352E-01
522.61	2.3031E-01
522.95	2.3172E-01
523.29	2.3125E-01
523.64	2.3040E-01
523.98	2.3053E-01
524.32	2.3271E-01
524.66	2.3233E-01
525.01	2.3397E-01
525.35	2.3414E-01
525.69	2.3441E-01
526.04	2.3509E-01
526.38	2.3165E-01
526.72	2.3452E-01
527.06	2.3412E-01
527.41	2.3763E-01
527.75	2.3813E-01
528.09	2.3528E-01
528.43	2.3693E-01
528.78	2.3470E-01
529.12	2.4106E-01
529.46	2.3897E-01
529.80	2.3887E-01
530.15	2.3982E-01
530.49	2.4097E-01
530.83	2.4200E-01
531.17	2.4211E-01
531.51	2.4277E-01
531.86	2.4353E-01
532.20	2.4580E-01
532.54	2.4585E-01
532.88	2.4595E-01
533.22	2.4705E-01
533.57	2.4779E-01
533.91	2.4993E-01
534.25	2.4988E-01
534.59	2.4879E-01
534.93	2.5025E-01
535.27	2.5123E-01
535.62	2.5348E-01
535.96	2.5506E-01
536.30	2.5531E-01
536.64	2.5598E-01
536.98	2.5685E-01
537.32	2.5696E-01
537.66	2.5652E-01
538.01	2.5982E-01
538.35	2.6165E-01
538.69	2.5935E-01
539.03	2.6490E-01
539.37	2.6156E-01
539.71	2.6327E-01
540.05	2.6358E-01
540.39	2.6415E-01
540.73	2.6655E-01
541.07	2.6458E-01
541.42	2.6474E-01
541.76	2.6507E-01
542.10	2.6546E-01
542.44	2.6733E-01
542.78	2.6770E-01
543.12	2.6774E-01
543.46	2.7321E-01
543.80	2.7015E-01
544.14	2.7158E-01
544.48	2.6839E-01
544.82	2.7165E-01
545.16	2.7138E-01
545.50	2.7028E-01
545.84	2.7499E-01
546.18	2.7201E-01
546.52	2.7505E-01
546.86	2.7114E-01
547.20	2.7412E-01
547.54	2.7927E-01
547.88	2.7447E-01
548.22	2.7539E-01
548.56	2.7584E-01
548.90	2.7398E-01
549.24	2.7786E-01
549.58	2.7718E-01
549.92	2.7708E-01
550.26	2.8058E-01
550.60	2.7854E-01
550.94	2.7444E-01
551.28	2.8125E-01
551.62	2.7868E-01
551.96	2.8104E-01
552.30	2.7974E-01
552.64	2.8174E-01
552.98	2.7960E-01
553.32	2.7968E-01
553.66	2.7775E-01
554.00	2.7893E-01
554.34	2.8156E-01
554.68	2.8264E-01
555.02	2.8147E-01
555.36	2.8112E-01
555.69	2.8390E-01
556.03	2.8271E-01
556.37	2.8284E-01
556.71	2.8139E-01
557.05	2.8043E-01
557.39	2.8198E-01
557.73	2.8144E-01
558.07	2.8339E-01
558.41	2.8198E-01
558.75	2.8282E-01
559.08	2.8338E-01
559.42	2.7916E-01
559.76	2.8338E-01
560.10	2.8237E-01
560.44	2.8339E-01
560.78	2.8067E-01
561.12	2.8231E-01
561.45	2.8317E-01
561.79	2.8364E-01
562.13	2.8227E-01
562.47	2.8231E-01
562.81	2.8656E-01
563.15	2.8602E-01
563.48	2.8397E-01
563.82	2.8206E-01
564.16	2.8457E-01
564.50	2.8550E-01
564.84	2.8519E-01
565.17	2.8480E-01
565.51	2.8154E-01
565.85	2.8523E-01
566.19	2.8389E-01
566.52	2.8553E-01
566.86	2.8446E-01
567.20	2.8594E-01
567.54	2.8795E-01
567.88	2.8508E-01
568.21	2.8703E-01
568.55	2.8622E-01
568.89	2.8634E-01
569.23	2.8859E-01
569.56	2.8565E-01
569.90	2.8639E-01
570.24	2.8871E-01
570.57	2.8765E-01
570.91	2.9009E-01
571.25	2.8823E-01
571.59	2.8871E-01
571.92	2.8855E-01
572.26	2.9027E-01
572.60	2.9284E-01
572.93	2.9103E-01
573.27	2.9467E-01
573.61	2.9443E-01
573.95	2.9069E-01
574.28	2.9463E-01
574.62	2.9460E-01
574.96	2.9520E-01
575.29	2.9363E-01
575.63	2.9735E-01
575.97	2.9670E-01
576.30	3.0428E-01
576.64	2.9899E-01
576.98	3.0034E-01
577.31	3.0242E-01
577.65	3.0279E-01
577.98	3.0243E-01
578.32	3.0632E-01
578.66	3.0508E-01
578.99	3.0949E-01
579.33	3.0881E-01
579.67	3.0871E-01
580.00	3.0952E-01
580.34	3.1287E-01
580.67	3.1197E-01
581.01	3.1240E-01
581.35	3.1550E-01
581.68	3.1641E-01
582.02	3.1562E-01
582.35	3.1606E-01
582.69	3.1827E-01
583.02	3.2367E-01
583.36	3.2109E-01
583.70	3.2009E-01
584.03	3.2271E-01
584.37	3.2285E-01
584.70	3.2705E-01
585.04	3.2813E-01
585.37	3.2528E-01
585.71	3.2965E-01
586.04	3.2871E-01
586.38	3.2697E-01
586.72	3.3167E-01
587.05	3.3101E-01
587.39	3.3272E-01
587.72	3.3178E-01
588.06	3.3453E-01
588.39	3.3331E-01
588.73	3.3888E-01
589.06	3.3769E-01
589.40	3.3928E-01
589.73	3.4094E-01
590.07	3.4314E-01
590.40	3.4436E-01
590.73	3.4894E-01
591.07	3.4520E-01
591.40	3.4645E-01
591.74	3.4357E-01
592.07	3.4897E-01
592.41	3.4934E-01
592.74	3.4803E-01
593.08	3.4948E-01
593.41	3.5076E-01
593.75	3.4815E-01
594.08	3.5512E-01
594.41	3.5078E-01
594.75	3.5478E-01
595.08	3.5432E-01
595.42	3.5054E-01
595.75	3.5338E-01
596.09	3.5319E-01
596.42	3.5370E-01
596.75	3.5669E-01
597.09	3.6008E-01
597.42	3.5464E-01
597.75	3.5838E-01
598.09	3.5838E-01
598.42	3.5628E-01
598.76	3.6001E-01
599.09	3.6033E-01
599.42	3.6263E-01
599.76	3.6238E-01
600.09	3.6260E-01
600.42	3.6498E-01
600.76	3.6148E-01
601.09	3.6331E-01
601.42	3.7061E-01
601.76	3.6374E-01
602.09	3.6438E-01
602.42	3.6580E-01
602.76	3.6664E-01
603.09	3.6357E-01
603.42	3.6623E-01
603.76	3.6547E-01
604.09	3.6615E-01
604.42	3.6648E-01
604.76	3.6669E-01
605.09	3.6998E-01
605.42	3.6735E-01
605.75	3.7000E-01
606.09	3.6895E-01
606.42	3.6783E-01
606.75	3.7091E-01
607.09	3.7006E-01
607.42	3.6984E-01
607.75	3.7168E-01
608.08	3.7191E-01
608.42	3.7267E-01
608.75	3.7060E-01
609.08	3.7532E-01
609.41	3.7391E-01
609.75	3.7307E-01
610.08	3.7332E-01
610.41	3.7431E-01
610.74	3.7357E-01
611.07	3.7596E-01
611.41	3.7182E-01
611.74	3.7648E-01
612.07	3.8012E-01
612.40	3.7391E-01
612.73	3.7430E-01
613.07	3.7973E-01
613.40	3.7534E-01
613.73	3.7494E-01
614.06	3.7764E-01
614.39	3.7844E-01
614.72	3.8112E-01
615.06	3.7850E-01
615.39	3.8370E-01
615.72	3.7860E-01
616.05	3.8366E-01
616.38	3.7992E-01
616.71	3.8269E-01
617.05	3.7860E-01
617.38	3.8367E-01
617.71	3.7741E-01
618.04	3.8456E-01
618.37	3.8022E-01
618.70	3.7875E-01
619.03	3.8386E-01
619.36	3.7565E-01
619.69	3.8453E-01
620.03	3.7835E-01
620.36	3.8267E-01
620.69	3.8087E-01
621.02	3.8237E-01
621.35	3.7923E-01
621.68	3.7797E-01
622.01	3.7694E-01
622.34	3.8041E-01
622.67	3.8010E-01
623.00	3.7950E-01
623.33	3.7822E-01
623.66	3.8014E-01
623.99	3.8022E-01
624.32	3.7643E-01
624.65	3.7886E-01
624.99	3.7901E-01
625.32	3.8119E-01
625.65	3.7704E-01
625.98	3.7584E-01
626.31	3.7947E-01
626.64	3.8106E-01
626.97	3.7891E-01
627.30	3.7659E-01
627.63	3.7795E-01
627.96	3.7912E-01
628.29	3.7452E-01
628.62	3.7992E-01
628.95	3.7906E-01
629.28	3.7241E-01
629.61	3.8358E-01
629.94	3.7799E-01
630.26	3.8006E-01
630.59	3.8252E-01
630.92	3.8009E-01
631.25	3.8278E-01
631.58	3.8582E-01
631.91	3.8050E-01
632.24	3.8851E-01
632.57	3.8457E-01
632.90	3.8694E-01
633.23	3.8710E-01
633.56	3.8793E-01
633.89	3.8805E-01
634.22	3.8804E-01
634.55	3.9093E-01
634.88	3.9589E-01
635.20	3.9164E-01
635.53	3.9594E-01
635.86	3.9612E-01
636.19	4.0080E-01
636.52	4.0149E-01
636.85	4.0303E-01
637.18	4.0625E-01
637.51	4.0550E-01
637.83	4.0613E-01
638.16	4.0383E-01
638.49	4.1172E-01
638.82	4.0927E-01
639.15	4.1476E-01
639.48	4.1711E-01
639.81	4.2076E-01
640.13	4.1605E-01
640.46	4.2357E-01
640.79	4.2049E-01
641.12	4.2779E-01
641.45	4.2364E-01
641.77	4.2443E-01
642.10	4.3189E-01
642.43	4.3389E-01
642.76	4.3597E-01
643.09	4.3184E-01
643.41	4.3716E-01
643.74	4.3923E-01
644.07	4.3765E-01
644.40	4.4064E-01
644.73	4.4499E-01
645.05	4.4831E-01
645.38	4.4816E-01
645.71	4.5458E-01
646.04	4.5283E-01
646.36	4.5180E-01
646.69	4.5959E-01
647.02	4.5933E-01
647.35	4.5863E-01
647.67	4.6223E-01
648.00	4.6073E-01
648.33	4.6849E-01
648.66	4.6446E-01
648.98	4.6873E-01
649.31	4.6807E-01
649.64	4.6979E-01
649.96	4.7268E-01
650.29	4.7960E-01
650.62	4.7753E-01
650.94	4.7963E-01
651.27	4.7929E-01
651.60	4.8169E-01
651.92	4.8567E-01
652.25	4.8896E-01
652.58	4.8617E-01
652.90	4.8912E-01
653.23	4.8953E-01
653.56	4.9391E-01
653.88	4.9664E-01
654.21	4.9402E-01
654.54	4.9762E-01
654.86	5.0284E-01
655.19	4.9497E-01
655.52	5.0393E-01
655.84	5.0026E-01
656.17	5.0656E-01
656.49	5.0754E-01
656.82	5.0569E-01
657.15	5.1013E-01
657.47	5.0919E-01
657.80	5.1258E-01
658.13	5.1106E-01
658.45	5.1483E-01
658.78	5.1775E-01
659.10	5.1819E-01
659.43	5.2280E-01
659.75	5.1908E-01
660.08	5.1963E-01
660.41	5.2485E-01
660.73	5.2388E-01
661.06	5.2710E-01
661.38	5.2624E-01
661.71	5.3033E-01
662.03	5.2654E-01
662.36	5.3252E-01
662.68	5.3417E-01
663.01	5.2709E-01
663.33	5.3649E-01
663.66	5.3898E-01
663.98	5.4013E-01
664.31	5.3386E-01
664.63	5.4473E-01
664.96	5.3576E-01
665.28	5.4152E-01
665.61	5.4122E-01
665.93	5.4687E-01
666.26	5.4577E-01
666.58	5.4843E-01
666.91	5.4664E-01
667.23	5.5166E-01
667.56	5.5006E-01
667.88	5.4913E-01
668.21	5.5424E-01
668.53	5.5275E-01
668.86	5.5538E-01
669.18	5.5310E-01
669.50	5.6297E-01
669.83	5.6307E-01
670.15	5.6489E-01
670.48	5.6552E-01
670.80	5.6127E-01
671.13	5.6154E-01
671.45	5.6707E-01
671.77	5.6584E-01
672.10	5.6428E-01
672.42	5.7350E-01
672.75	5.6690E-01
673.07	5.7473E-01
673.39	5.7463E-01
673.72	5.7425E-01
674.04	5.7904E-01
674.37	5.7901E-01
674.69	5.7764E-01
675.01	5.8193E-01
675.34	5.8246E-01
675.66	5.8497E-01
675.98	5.7757E-01
676.31	5.8721E-01
676.63	5.8816E-01
676.95	5.8687E-01
677.28	5.9132E-01
677.60	5.9011E-01
677.92	5.9406E-01
678.25	5.9774E-01
678.57	5.9853E-01
678.89	5.9767E-01
679.22	5.9876E-01
679.54	5.9875E-01
679.86	6.0271E-01
680.18	6.0234E-01
680.51	6.0130E-01
680.83	6.1648E-01
681.15	6.0946E-01
681.48	6.1039E-01
681.80	6.1160E-01
682.12	6.0970E-01
682.44	6.1847E-01
682.77	6.1741E-01
683.09	6.2181E-01
683.41	6.2140E-01
683.73	6.2730E-01
684.06	6.2751E-01
684.38	6.2559E-01
684.70	6.2825E-01
685.02	6.2790E-01
685.34	6.3467E-01
685.67	6.3049E-01
685.99	6.4397E-01
686.31	6.3800E-01
686.63	6.4424E-01
686.96	6.4721E-01
687.28	6.4920E-01
687.60	6.4718E-01
687.92	6.4881E-01
688.24	6.5986E-01
688.56	6.5916E-01
688.89	6.5646E-01
689.21	6.6153E-01
689.53	6.6132E-01
689.85	6.7318E-01
690.17	6.6729E-01
690.49	6.7646E-01
690.82	6.7614E-01
691.14	6.7981E-01
691.46	6.7768E-01
691.78	6.8557E-01
692.10	6.8222E-01
692.42	6.8662E-01
692.74	6.9134E-01
693.06	6.9392E-01
693.39	6.9996E-01
693.71	7.0790E-01
694.03	7.0210E-01
694.35	7.0241E-01
694.67	7.1445E-01
694.99	7.1456E-01
695.31	7.2044E-01
695.63	7.2028E-01
695.95	7.2114E-01
696.27	7.2257E-01
696.59	7.2562E-01
696.91	7.3403E-01
697.23	7.3851E-01
697.56	7.3950E-01
697.88	7.4358E-01
698.20	7.4198E-01
698.52	7.4570E-01
698.84	7.5604E-01
699.16	7.6141E-01
699.48	7.5808E-01
699.80	7.6091E-01
700.12	7.7411E-01
700.44	7.7029E-01
700.76	7.7374E-01
701.08	7.7889E-01
701.40	7.8316E-01
701.72	7.8466E-01
702.04	7.9055E-01
702.36	7.8992E-01
702.68	7.9659E-01
703.00	8.0735E-01
703.32	8.0048E-01
703.64	8.1076E-01
703.96	8.0070E-01
704.28	8.1292E-01
704.60	8.2444E-01
704.91	8.2084E-01
705.23	8.2865E-01
705.55	8.3438E-01
705.87	8.3975E-01
706.19	8.3882E-01
706.51	8.3658E-01
706.83	8.3489E-01
707.15	8.6622E-01
707.47	8.5597E-01
707.79	8.6041E-01
708.11	8.6465E-01
708.43	8.6700E-01
708.74	8.7376E-01
709.06	8.8289E-01
709.38	8.8190E-01
709.70	8.8347E-01
710.02	8.8991E-01
710.34	8.8306E-01
710.66	8.9933E-01
710.98	9.0314E-01
711.29	9.0825E-01
711.61	9.2533E-01
711.93	9.2012E-01
712.25	9.2048E-01
712.57	9.3080E-01
712.89	9.3675E-01
713.20	9.3995E-01
713.52	9.4779E-01
713.84	9.4945E-01
714.16	9.4361E-01
714.48	9.5259E-01
714.80	9.6712E-01
715.11	9.6230E-01
715.43	9.7538E-01
715.75	9.7343E-01
716.07	9.8955E-01
716.39	9.7260E-01
716.70	9.8517E-01
717.02	9.8179E-01
717.34	1.0089E00
717.66	1.0003E00
717.97	1.0145E00
718.29	1.0248E00
718.61	1.0254E00
718.93	1.0264E00
719.24	1.0322E00
719.56	1.0512E00
719.88	1.0408E00
720.20	1.0614E00
720.51	1.0751E00
720.83	1.0631E00
721.15	1.0826E00
721.46	1.0888E00
721.78	1.0960E00
722.10	1.1085E00
722.42	1.1122E00
722.73	1.1116E00
723.05	1.1132E00
723.37	1.1284E00
723.68	1.1391E00
724.00	1.1400E00
724.32	1.1590E00
724.63	1.1481E00
724.95	1.1630E00
725.27	1.1641E00
725.58	1.1625E00
725.90	1.1580E00
726.22	1.1847E00
726.53	1.1729E00
726.85	1.1838E00
727.16	1.1898E00
727.48	1.1848E00
727.80	1.1969E00
728.11	1.2006E00
728.43	1.2056E00
728.74	1.2029E00
729.06	1.2091E00
729.38	1.2133E00
729.69	1.2121E00
730.01	1.2287E00
730.32	1.2268E00
730.64	1.2295E00
730.96	1.2191E00
731.27	1.2498E00
731.59	1.2347E00
731.90	1.2426E00
732.22	1.2498E00
732.53	1.2597E00
732.85	1.2595E00
733.16	1.2575E00
733.48	1.2525E00
733.80	1.2599E00
734.11	1.2709E00
734.43	1.2865E00
734.74	1.2901E00
735.06	1.2933E00
735.37	1.3039E00
735.69	1.3061E00
736.00	1.2967E00
736.32	1.3121E00
736.63	1.3055E00
736.95	1.3225E00
737.26	1.3331E00
737.58	1.3267E00
737.89	1.3556E00
738.21	1.3414E00
738.52	1.3412E00
738.83	1.3566E00
739.15	1.3449E00
739.46	1.3628E00
739.78	1.3621E00
740.09	1.3733E00
740.41	1.3608E00
740.72	1.3685E00
741.04	1.3670E00
741.35	1.3678E00
741.66	1.3926E00
741.98	1.3815E00
742.29	1.3776E00
742.61	1.3876E00
742.92	1.3938E00
743.23	1.3922E00
743.55	1.3946E00
743.86	1.3938E00
744.18	1.4013E00
744.49	1.4013E00
744.80	1.3923E00
745.12	1.3908E00
745.43	1.3997E00
745.74	1.3958E00
746.06	1.3973E00
746.37	1.3851E00
746.68	1.3992E00
747.00	1.3862E00
747.31	1.4004E00
747.62	1.3849E00
747.94	1.4183E00
748.25	1.4014E00
748.56	1.3983E00
748.88	1.3860E00
749.19	1.4062E00
749.50	1.3926E00
749.82	1.3988E00
750.13	1.4089E00
750.44	1.3961E00
750.75	1.3963E00
751.07	1.4036E00
751.38	1.3930E00
751.69	1.3929E00
752.01	1.4080E00
752.32	1.4167E00
752.63	1.4078E00
752.94	1.4045E00
753.26	1.4098E00
753.57	1.4188E00
753.88	1.4305E00
754.19	1.4134E00
754.51	1.4178E00
754.82	1.4351E00
755.13	1.4334E00
755.44	1.4436E00
755.75	1.4324E00
756.07	1.4394E00
756.38	1.4470E00
756.69	1.4532E00
757.00	1.4515E00
757.31	1.4804E00
757.63	1.4747E00
757.94	1.4822E00
758.25	1.4931E00
758.56	1.4755E00
758.87	1.4938E00
759.18	1.4978E00
759.50	1.5029E00
759.81	1.5060E00
760.12	1.5254E00
760.43	1.5356E00
760.74	1.5474E00
761.05	1.5437E00
761.36	1.5555E00
761.67	1.5615E00
761.99	1.5679E00
762.30	1.5671E00
762.61	1.5845E00
762.92	1.6033E00
763.23	1.6024E00
763.54	1.6249E00
763.85	1.6253E00
764.16	1.6478E00
764.47	1.6627E00
764.78	1.6803E00
765.10	1.6819E00
765.41	1.6858E00
765.72	1.6992E00
766.03	1.7380E00
766.34	1.7464E00
766.65	1.7336E00
766.96	1.7815E00
767.27	1.7709E00
767.58	1.7683E00
767.89	1.7944E00
768.20	1.8147E00
768.51	1.8112E00
768.82	1.8243E00
769.13	1.8379E00
769.44	1.8776E00
769.75	1.8907E00
770.06	1.9090E00
770.37	1.8856E00
770.68	1.9277E00
770.99	1.9493E00
771.30	1.9725E00
771.61	2.0107E00
771.92	2.0018E00
772.23	2.0022E00
772.54	2.0424E00
772.85	2.0305E00
773.16	2.0472E00
773.47	2.0888E00
773.78	2.0702E00
774.09	2.1211E00
774.39	2.1174E00
774.70	2.1517E00
775.01	2.1687E00
775.32	2.1930E00
775.63	2.2061E00
775.94	2.2296E00
776.25	2.2125E00
776.56	2.2491E00
776.87	2.3218E00
777.18	2.2876E00
777.48	2.3302E00
777.79	2.3507E00
778.10	2.3668E00
778.41	2.3806E00
778.72	2.4220E00
779.03	2.4234E00
779.34	2.4521E00
779.65	2.4571E00
779.95	2.4847E00
780.26	2.5038E00
780.57	2.5131E00
780.88	2.5426E00
781.19	2.5582E00
781.50	2.5727E00
781.80	2.6073E00
782.11	2.6424E00
782.42	2.6543E00
782.73	2.6256E00
783.04	2.7197E00
783.34	2.7064E00
783.65	2.7628E00
783.96	2.7676E00
784.27	2.7771E00
784.57	2.7644E00
784.88	2.8152E00
785.19	2.8324E00
785.50	2.8621E00
785.81	2.9049E00
786.11	2.8876E00
786.42	2.9250E00
786.73	2.9857E00
787.04	3.0022E00
787.34	3.0213E00
787.65	2.9886E00
787.96	3.0936E00
788.26	3.0690E00
788.57	3.1487E00
788.88	3.0838E00
789.19	3.1981E00
789.49	3.1818E00
789.80	3.2575E00
790.11	3.2605E00
790.41	3.2379E00
790.72	3.3287E00
791.03	3.3653E00
791.33	3.3433E00
791.64	3.4193E00
791.95	3.4058E00
792.25	3.4647E00
792.56	3.4677E00
792.87	3.4619E00
793.17	3.4833E00
793.48	3.5129E00
793.79	3.5983E00
794.09	3.6144E00
794.40	3.5932E00
794.70	3.5758E00
795.01	3.6861E00
795.32	3.6801E00
795.62	3.7179E00
795.93	3.7356E00
796.23	3.7659E00
796.54	3.7923E00
796.85	3.8395E00
797.15	3.8732E00
797.46	3.8264E00
797.76	3.9255E00
798.07	3.9584E00
798.37	3.9906E00
798.68	4.0221E00
798.99	4.0474E00
799.29	4.0519E00
799.60	4.1369E00
799.90	4.1346E00
800.21	4.2286E00
800.51	4.2158E00
800.82	4.2187E00
801.12	4.2851E00
801.43	4.3163E00
801.73	4.3070E00
802.04	4.4010E00
802.34	4.3931E00
802.65	4.4438E00
802.95	4.5129E00
803.26	4.4964E00
803.56	4.4745E00
803.87	4.5615E00
804.17	4.6320E00
804.48	4.5899E00
804.78	4.6530E00
805.09	4.7383E00
805.39	4.6552E00
805.70	4.7184E00
806.00	4.7951E00
806.30	4.8023E00
806.61	4.8228E00
806.91	4.8363E00
807.22	4.9400E00
807.52	4.9440E00
807.83	4.9535E00
808.13	5.0410E00
808.43	4.9637E00
808.74	5.0247E00
809.04	5.0790E00
809.35	5.1348E00
809.65	5.2044E00
809.95	5.2193E00
810.26	5.3411E00
810.56	5.2552E00
810.86	5.4656E00
811.17	5.3789E00
811.47	5.5291E00
811.77	5.4557E00
812.08	5.4390E00
812.38	5.5652E00
812.69	5.5409E00
812.99	5.5655E00
813.29	5.6343E00
813.59	5.6925E00
813.90	5.8295E00
814.20	5.7595E00
814.50	5.9227E00
814.81	5.7491E00
815.11	5.9906E00
815.41	6.0050E00
815.72	6.0309E00
816.02	6.0769E00
816.32	6.1973E00
816.62	5.9661E00
816.93	6.1611E00
817.23	6.3100E00
817.53	6.1178E00
817.84	6.3152E00
818.14	6.3682E00
818.44	6.3025E00
818.74	6.3449E00
819.04	6.6654E00
819.35	6.5594E00
819.65	6.4326E00
819.95	6.6293E00
820.25	6.7392E00
820.56	6.6110E00
820.86	6.7345E00
821.16	6.7436E00
821.46	6.9557E00
821.76	6.6929E00
822.07	6.8777E00
822.37	7.0356E00
822.67	7.1491E00
822.97	7.2848E00
823.27	7.1339E00
823.57	7.0956E00
823.88	7.2953E00
824.18	7.1582E00
824.48	7.3768E00
824.78	7.5978E00
825.08	7.4067E00
825.38	7.5550E00
825.69	7.5587E00
825.99	7.5928E00
826.29	7.4506E00
826.59	7.6791E00
826.89	7.8624E00
827.19	7.6555E00
827.49	7.9477E00
827.79	7.8677E00
828.09	8.0662E00
828.39	8.0831E00
828.70	8.0609E00
829.00	7.9190E00
829.30	8.0750E00
829.60	8.2528E00
829.90	8.1579E00
830.20	8.2605E00
830.50	8.5189E00
830.80	8.4894E00
831.10	8.4138E00
831.40	8.5996E00
831.70	8.6879E00
832.00	8.7452E00
832.30	8.7964E00
832.60	8.6695E00
832.90	8.8818E00
833.20	8.7877E00
833.50	8.9647E00
833.80	9.0248E00
834.10	9.1499E00
834.40	9.0803E00
834.70	9.1883E00
835.00	9.3209E00
835.30	9.2650E00
835.60	9.3972E00
835.90	9.4871E00
836.20	9.6306E00
836.50	9.6836E00
836.80	9.5304E00
837.10	9.6709E00
837.40	9.6959E00
837.70	9.7801E00
838.00	9.8733E00
838.30	1.0133E01
838.60	9.9994E00
838.90	1.0244E01
839.19	1.0349E01
839.49	1.0533E01
839.79	1.0048E01
840.09	1.0532E01
840.39	1.0333E01
840.69	1.0492E01
840.99	1.0811E01
841.29	1.0696E01
841.59	1.0825E01
841.88	1.0993E01
842.18	1.0875E01
842.48	1.1067E01
842.78	1.1147E01
843.08	1.1305E01
843.38	1.1258E01
843.68	1.1746E01
843.97	1.1602E01
844.27	1.1645E01
844.57	1.1519E01
844.87	1.1605E01
845.17	1.2048E01
845.47	1.1663E01
845.76	1.2121E01
846.06	1.2051E01
846.36	1.2117E01
846.66	1.2107E01
846.96	1.2094E01
847.25	1.2650E01
847.55	1.2298E01
847.85	1.2551E01
848.15	1.2670E01
848.44	1.2668E01
848.74	1.2759E01
849.04	1.3221E01
849.34	1.2995E01
849.63	1.3115E01
849.93	1.3298E01
850.23	1.3380E01
850.53	1.3540E01
850.82	1.3588E01
851.12	1.4010E01
851.42	1.3686E01
851.71	1.3828E01
852.01	1.4034E01
852.31	1.3948E01
852.61	1.4514E01
852.90	1.4138E01
853.20	1.4756E01
853.50	1.4568E01
853.79	1.4654E01
854.09	1.4671E01
854.39	1.5049E01
854.68	1.5254E01
854.98	1.5607E01
855.28	1.5419E01
855.57	1.5416E01
855.87	1.5623E01
856.17	1.5344E01
856.46	1.5856E01
856.76	1.5705E01
857.05	1.6197E01
857.35	1.6487E01
857.65	1.6463E01
857.94	1.6371E01
858.24	1.6302E01
858.53	1.6651E01
858.83	1.7482E01
859.13	1.7143E01
859.42	1.7109E01
859.72	1.7186E01
860.01	1.7655E01
860.31	1.7390E01
860.60	1.8047E01
860.90	1.8055E01
861.20	1.7751E01
861.49	1.8061E01
861.79	1.8314E01
862.08	1.8450E01
862.38	1.8482E01
862.67	1.8833E01
862.97	1.8873E01
863.26	1.9601E01
863.56	1.9494E01
863.85	2.0020E01
864.15	2.0459E01
864.44	2.0174E01
864.74	1.9931E01
865.03	2.0727E01
865.33	2.0893E01
865.62	2.0910E01
865.92	2.0668E01
866.21	2.1034E01
866.51	2.1311E01
866.80	2.1929E01
867.10	2.1338E01
867.39	2.2264E01
867.69	2.2239E01
867.98	2.2624E01
868.27	2.2892E01
868.57	2.3461E01
868.86	2.3044E01
869.16	2.2794E01
869.45	2.3925E01
869.75	2.3410E01
870.04	2.3918E01
870.33	2.4346E01
870.63	2.4678E01
870.92	2.4884E01
871.22	2.5563E01
871.51	2.5677E01
871.80	2.5289E01
872.10	2.5289E01
>>>>>End Processed Spectral Data<<<<<
