SpectraSuite Data File
++++++++++++++++++++++++++++++++++++
Date: Fri May 15 11:03:41 PDT 2015
User: schluterlab
Dark Spectrum Present: Yes
Reference Spectrum Present: No
Number of Sampled Component Spectra: 1
Spectrometers: USB2E3373
Integration Time (usec): 2300000 (USB2E3373)
Spectra Averaged: 3 (USB2E3373)
Boxcar Smoothing: 0 (USB2E3373)
Correct for Electrical Dark: No (USB2E3373)
Strobe/Lamp Enabled: No (USB2E3373)
Correct for Detector Non-linearity: No (USB2E3373)
Correct for Stray Light: No (USB2E3373)
Number of Pixels in Processed Spectrum: 2048
>>>>>Begin Processed Spectral Data<<<<<
178.53	0.0000E00
178.91	0.0000E00
179.29	0.0000E00
179.67	0.0000E00
180.04	0.0000E00
180.42	0.0000E00
180.80	0.0000E00
181.18	0.0000E00
181.56	0.0000E00
181.94	0.0000E00
182.31	0.0000E00
182.69	0.0000E00
183.07	0.0000E00
183.45	0.0000E00
183.83	0.0000E00
184.20	0.0000E00
184.58	0.0000E00
184.96	0.0000E00
185.34	0.0000E00
185.72	0.0000E00
186.09	0.0000E00
186.47	0.0000E00
186.85	0.0000E00
187.23	0.0000E00
187.61	-0.0000E00
187.98	0.0000E00
188.36	0.0000E00
188.74	0.0000E00
189.12	0.0000E00
189.49	0.0000E00
189.87	0.0000E00
190.25	0.0000E00
190.63	0.0000E00
191.00	0.0000E00
191.38	0.0000E00
191.76	0.0000E00
192.14	0.0000E00
192.51	0.0000E00
192.89	0.0000E00
193.27	0.0000E00
193.65	0.0000E00
194.02	0.0000E00
194.40	0.0000E00
194.78	0.0000E00
195.15	0.0000E00
195.53	0.0000E00
195.91	0.0000E00
196.29	0.0000E00
196.66	0.0000E00
197.04	0.0000E00
197.42	0.0000E00
197.79	0.0000E00
198.17	0.0000E00
198.55	0.0000E00
198.92	0.0000E00
199.30	0.0000E00
199.68	0.0000E00
200.05	0.0000E00
200.43	0.0000E00
200.81	0.0000E00
201.18	0.0000E00
201.56	0.0000E00
201.94	0.0000E00
202.31	0.0000E00
202.69	0.0000E00
203.07	0.0000E00
203.44	0.0000E00
203.82	0.0000E00
204.19	0.0000E00
204.57	0.0000E00
204.95	0.0000E00
205.32	0.0000E00
205.70	0.0000E00
206.08	0.0000E00
206.45	0.0000E00
206.83	0.0000E00
207.20	0.0000E00
207.58	0.0000E00
207.96	0.0000E00
208.33	0.0000E00
208.71	0.0000E00
209.08	0.0000E00
209.46	0.0000E00
209.84	0.0000E00
210.21	0.0000E00
210.59	0.0000E00
210.96	0.0000E00
211.34	0.0000E00
211.71	0.0000E00
212.09	0.0000E00
212.46	0.0000E00
212.84	0.0000E00
213.22	0.0000E00
213.59	0.0000E00
213.97	0.0000E00
214.34	0.0000E00
214.72	0.0000E00
215.09	0.0000E00
215.47	0.0000E00
215.84	0.0000E00
216.22	0.0000E00
216.59	0.0000E00
216.97	0.0000E00
217.34	0.0000E00
217.72	0.0000E00
218.09	0.0000E00
218.47	0.0000E00
218.84	0.0000E00
219.22	0.0000E00
219.59	0.0000E00
219.97	0.0000E00
220.34	0.0000E00
220.72	0.0000E00
221.09	0.0000E00
221.47	0.0000E00
221.84	0.0000E00
222.22	0.0000E00
222.59	0.0000E00
222.97	0.0000E00
223.34	0.0000E00
223.72	0.0000E00
224.09	0.0000E00
224.46	0.0000E00
224.84	0.0000E00
225.21	0.0000E00
225.59	0.0000E00
225.96	0.0000E00
226.34	0.0000E00
226.71	0.0000E00
227.08	0.0000E00
227.46	0.0000E00
227.83	0.0000E00
228.21	0.0000E00
228.58	0.0000E00
228.95	0.0000E00
229.33	0.0000E00
229.70	0.0000E00
230.08	0.0000E00
230.45	0.0000E00
230.82	0.0000E00
231.20	0.0000E00
231.57	0.0000E00
231.95	0.0000E00
232.32	0.0000E00
232.69	0.0000E00
233.07	0.0000E00
233.44	-0.0000E00
233.81	0.0000E00
234.19	0.0000E00
234.56	0.0000E00
234.93	0.0000E00
235.31	0.0000E00
235.68	0.0000E00
236.05	0.0000E00
236.43	0.0000E00
236.80	-0.0000E00
237.17	0.0000E00
237.55	0.0000E00
237.92	0.0000E00
238.29	0.0000E00
238.67	0.0000E00
239.04	0.0000E00
239.41	0.0000E00
239.79	0.0000E00
240.16	0.0000E00
240.53	0.0000E00
240.91	0.0000E00
241.28	0.0000E00
241.65	0.0000E00
242.02	0.0000E00
242.40	0.0000E00
242.77	0.0000E00
243.14	0.0000E00
243.51	0.0000E00
243.89	0.0000E00
244.26	0.0000E00
244.63	0.0000E00
245.00	0.0000E00
245.38	0.0000E00
245.75	0.0000E00
246.12	0.0000E00
246.49	0.0000E00
246.87	0.0000E00
247.24	0.0000E00
247.61	0.0000E00
247.98	0.0000E00
248.36	0.0000E00
248.73	0.0000E00
249.10	0.0000E00
249.47	0.0000E00
249.84	0.0000E00
250.22	0.0000E00
250.59	0.0000E00
250.96	0.0000E00
251.33	0.0000E00
251.70	0.0000E00
252.08	0.0000E00
252.45	0.0000E00
252.82	0.0000E00
253.19	0.0000E00
253.56	0.0000E00
253.94	0.0000E00
254.31	0.0000E00
254.68	0.0000E00
255.05	0.0000E00
255.42	0.0000E00
255.79	0.0000E00
256.16	0.0000E00
256.54	0.0000E00
256.91	0.0000E00
257.28	0.0000E00
257.65	0.0000E00
258.02	0.0000E00
258.39	0.0000E00
258.76	0.0000E00
259.14	0.0000E00
259.51	0.0000E00
259.88	0.0000E00
260.25	0.0000E00
260.62	0.0000E00
260.99	0.0000E00
261.36	0.0000E00
261.73	0.0000E00
262.10	0.0000E00
262.47	0.0000E00
262.85	0.0000E00
263.22	0.0000E00
263.59	0.0000E00
263.96	0.0000E00
264.33	0.0000E00
264.70	0.0000E00
265.07	0.0000E00
265.44	0.0000E00
265.81	0.0000E00
266.18	0.0000E00
266.55	0.0000E00
266.92	0.0000E00
267.29	0.0000E00
267.66	0.0000E00
268.03	0.0000E00
268.40	0.0000E00
268.77	0.0000E00
269.14	0.0000E00
269.51	0.0000E00
269.88	0.0000E00
270.25	0.0000E00
270.62	0.0000E00
270.99	0.0000E00
271.36	0.0000E00
271.73	0.0000E00
272.10	0.0000E00
272.47	0.0000E00
272.84	0.0000E00
273.21	0.0000E00
273.58	0.0000E00
273.95	0.0000E00
274.32	0.0000E00
274.69	0.0000E00
275.06	0.0000E00
275.43	0.0000E00
275.80	0.0000E00
276.17	0.0000E00
276.54	0.0000E00
276.91	0.0000E00
277.28	0.0000E00
277.65	-0.0000E00
278.02	0.0000E00
278.39	0.0000E00
278.76	0.0000E00
279.13	0.0000E00
279.50	0.0000E00
279.87	0.0000E00
280.23	0.0000E00
280.60	0.0000E00
280.97	0.0000E00
281.34	0.0000E00
281.71	0.0000E00
282.08	0.0000E00
282.45	0.0000E00
282.82	0.0000E00
283.19	0.0000E00
283.56	0.0000E00
283.92	0.0000E00
284.29	0.0000E00
284.66	0.0000E00
285.03	0.0000E00
285.40	0.0000E00
285.77	0.0000E00
286.14	0.0000E00
286.51	0.0000E00
286.87	0.0000E00
287.24	0.0000E00
287.61	0.0000E00
287.98	0.0000E00
288.35	0.0000E00
288.72	0.0000E00
289.08	0.0000E00
289.45	0.0000E00
289.82	0.0000E00
290.19	0.0000E00
290.56	0.0000E00
290.93	0.0000E00
291.29	0.0000E00
291.66	0.0000E00
292.03	0.0000E00
292.40	0.0000E00
292.77	0.0000E00
293.13	0.0000E00
293.50	0.0000E00
293.87	0.0000E00
294.24	0.0000E00
294.60	0.0000E00
294.97	0.0000E00
295.34	0.0000E00
295.71	0.0000E00
296.08	0.0000E00
296.44	0.0000E00
296.81	0.0000E00
297.18	0.0000E00
297.55	0.0000E00
297.91	0.0000E00
298.28	0.0000E00
298.65	0.0000E00
299.02	0.0000E00
299.38	0.0000E00
299.75	0.0000E00
300.12	5.7917E-01
300.48	1.2758E00
300.85	1.3453E00
301.22	6.5814E-01
301.59	1.0987E00
301.95	1.9071E00
302.32	6.9541E-01
302.69	5.8575E-01
303.05	8.0072E-01
303.42	1.3791E00
303.79	7.5588E-01
304.15	6.9807E-01
304.52	6.3358E-01
304.89	7.7598E-01
305.25	1.2611E00
305.62	9.3245E-01
305.99	7.9010E-01
306.35	1.6466E00
306.72	8.1398E-01
307.09	1.5020E00
307.45	1.9408E00
307.82	1.0644E00
308.19	7.0242E00
308.55	1.1515E00
308.92	1.0881E00
309.29	1.3317E00
309.65	1.8702E00
310.02	1.3592E00
310.38	1.3586E00
310.75	9.6387E-01
311.12	1.4900E00
311.48	1.4869E00
311.85	9.3082E-01
312.22	1.1972E00
312.58	1.5006E00
312.95	1.4358E00
313.31	1.3780E00
313.68	1.1289E00
314.05	2.0441E00
314.41	9.9466E-01
314.78	2.5872E00
315.14	1.3602E00
315.51	1.4989E00
315.87	1.5116E00
316.24	1.8800E00
316.61	1.1103E00
316.97	2.4961E00
317.34	1.4227E00
317.70	1.6502E00
318.07	1.5837E00
318.43	9.5868E-01
318.80	1.1679E00
319.16	2.2744E00
319.53	9.0677E-01
319.89	1.4474E00
320.26	9.4701E-01
320.62	2.0784E00
320.99	1.7815E00
321.35	1.7991E00
321.72	1.0067E00
322.08	1.1418E00
322.45	1.3155E00
322.81	2.4757E00
323.18	1.1697E00
323.54	9.9220E-01
323.91	1.5191E00
324.27	1.1967E00
324.64	3.8506E00
325.00	4.3090E00
325.37	2.0536E00
325.73	2.4531E00
326.10	1.9734E00
326.46	1.4696E00
326.83	1.4242E00
327.19	1.7422E00
327.56	1.2187E00
327.92	2.5228E00
328.29	1.2265E00
328.65	9.9060E-01
329.01	1.2332E00
329.38	1.2746E00
329.74	1.5710E00
330.11	1.5123E00
330.47	3.1427E00
330.84	1.6345E00
331.20	8.6916E-01
331.56	4.0838E00
331.93	1.9402E00
332.29	1.7713E00
332.66	2.0293E00
333.02	1.7632E00
333.38	1.0925E00
333.75	2.3721E00
334.11	1.0590E00
334.48	1.6747E00
334.84	9.5418E-01
335.20	1.4283E00
335.57	1.6620E00
335.93	1.3731E00
336.29	1.4193E00
336.66	1.4180E00
337.02	1.2035E00
337.38	1.4692E00
337.75	1.1348E00
338.11	1.3682E00
338.47	1.0468E00
338.84	1.4218E00
339.20	1.5365E00
339.56	1.6683E00
339.93	1.5446E00
340.29	1.2235E00
340.65	1.0407E00
341.02	1.5716E00
341.38	1.0548E00
341.74	1.3363E00
342.11	4.6369E00
342.47	1.5025E00
342.83	1.3683E00
343.20	1.7135E00
343.56	1.4394E00
343.92	1.4072E00
344.28	1.0478E00
344.65	1.1682E00
345.01	9.7516E-01
345.37	1.1607E00
345.73	1.4294E00
346.10	1.3178E00
346.46	8.6282E-01
346.82	1.5174E00
347.19	1.6959E00
347.55	1.5450E00
347.91	2.0127E00
348.27	1.0819E00
348.63	1.5832E00
349.00	1.4994E00
349.36	1.3110E00
349.72	1.6735E00
350.08	1.2614E00
350.45	1.1297E00
350.81	1.3457E00
351.17	2.2331E00
351.53	1.8421E00
351.89	1.4393E00
352.26	9.2984E-01
352.62	1.0040E00
352.98	1.0923E00
353.34	1.2834E00
353.70	1.4275E00
354.07	1.1525E00
354.43	1.0646E00
354.79	1.4428E00
355.15	1.2182E00
355.51	1.5371E00
355.87	9.3120E-01
356.24	9.3460E-01
356.60	1.0085E00
356.96	1.0947E00
357.32	1.0582E00
357.68	1.2288E00
358.04	9.9384E-01
358.40	1.4354E00
358.77	1.1748E00
359.13	8.4622E-01
359.49	1.2159E00
359.85	1.0281E00
360.21	1.2890E00
360.57	9.5940E-01
360.93	1.2560E00
361.29	1.2160E00
361.66	9.1277E-01
362.02	9.2093E-01
362.38	1.0787E00
362.74	9.1396E-01
363.10	8.5997E-01
363.46	9.4781E-01
363.82	9.7438E-01
364.18	1.0665E00
364.54	9.6809E-01
364.90	8.7626E-01
365.26	1.4658E00
365.62	8.6277E-01
365.98	1.1306E00
366.35	1.1089E00
366.71	9.3017E-01
367.07	1.0994E00
367.43	1.0050E00
367.79	9.4960E-01
368.15	1.1046E00
368.51	1.1709E00
368.87	1.1648E00
369.23	9.6896E-01
369.59	1.0328E00
369.95	1.0864E00
370.31	9.4116E-01
370.67	8.8745E-01
371.03	9.8474E-01
371.39	1.0588E00
371.75	1.2097E00
372.11	1.0941E00
372.47	8.7511E-01
372.83	1.3041E00
373.19	1.1720E00
373.55	8.5496E-01
373.91	9.8928E-01
374.27	9.9861E-01
374.63	9.9743E-01
374.99	1.0055E00
375.35	8.8596E-01
375.71	8.8510E-01
376.07	8.8461E-01
376.42	1.0308E00
376.78	1.0400E00
377.14	8.1428E-01
377.50	9.9294E-01
377.86	9.2539E-01
378.22	7.9564E-01
378.58	8.5920E-01
378.94	8.4481E-01
379.30	9.7614E-01
379.66	8.8260E-01
380.02	8.2519E-01
380.38	9.4916E-01
380.74	7.9016E-01
381.09	8.6325E-01
381.45	7.5888E-01
381.81	8.4510E-01
382.17	9.1850E-01
382.53	8.0968E-01
382.89	9.2865E-01
383.25	6.9620E-01
383.61	8.0329E-01
383.97	7.7709E-01
384.32	8.8299E-01
384.68	8.3873E-01
385.04	8.7252E-01
385.40	8.1342E-01
385.76	8.6948E-01
386.12	8.2833E-01
386.48	7.8789E-01
386.83	7.7568E-01
387.19	8.0388E-01
387.55	8.6221E-01
387.91	7.7235E-01
388.27	8.2074E-01
388.62	8.1201E-01
388.98	8.2509E-01
389.34	7.9237E-01
389.70	8.3544E-01
390.06	8.1718E-01
390.42	8.0952E-01
390.77	7.9306E-01
391.13	7.6838E-01
391.49	8.2602E-01
391.85	7.5155E-01
392.20	8.0246E-01
392.56	7.9564E-01
392.92	7.7670E-01
393.28	7.6644E-01
393.64	8.4456E-01
393.99	7.4322E-01
394.35	7.9930E-01
394.71	8.6711E-01
395.07	8.2662E-01
395.42	7.5772E-01
395.78	7.9244E-01
396.14	7.3391E-01
396.50	7.3719E-01
396.85	7.4012E-01
397.21	7.3232E-01
397.57	8.1413E-01
397.92	7.8133E-01
398.28	7.4804E-01
398.64	8.4393E-01
399.00	7.0828E-01
399.35	6.7082E-01
399.71	7.1769E-01
400.07	7.2073E-01
400.42	7.3034E-01
400.78	7.2743E-01
401.14	7.1217E-01
401.49	7.3718E-01
401.85	6.7416E-01
402.21	6.6509E-01
402.57	6.8357E-01
402.92	6.9679E-01
403.28	6.6781E-01
403.63	6.8878E-01
403.99	7.4829E-01
404.35	6.8084E-01
404.70	6.5991E-01
405.06	6.4797E-01
405.42	6.8859E-01
405.77	6.7349E-01
406.13	6.2473E-01
406.49	6.6351E-01
406.84	6.3763E-01
407.20	6.3300E-01
407.55	6.9581E-01
407.91	7.0455E-01
408.27	6.4897E-01
408.62	6.2988E-01
408.98	6.8201E-01
409.34	6.7763E-01
409.69	6.7546E-01
410.05	6.5927E-01
410.40	6.3822E-01
410.76	6.2726E-01
411.11	6.1840E-01
411.47	6.8910E-01
411.83	6.2858E-01
412.18	6.3942E-01
412.54	6.4726E-01
412.89	6.6365E-01
413.25	6.3093E-01
413.60	6.1781E-01
413.96	6.5982E-01
414.31	6.3941E-01
414.67	6.4419E-01
415.03	6.6844E-01
415.38	6.7019E-01
415.74	6.6097E-01
416.09	6.7197E-01
416.45	6.6677E-01
416.80	6.4472E-01
417.16	6.4555E-01
417.51	6.4416E-01
417.87	6.3656E-01
418.22	6.0221E-01
418.58	6.1639E-01
418.93	6.2591E-01
419.29	6.5062E-01
419.64	6.3330E-01
420.00	6.1387E-01
420.35	6.0514E-01
420.71	6.0389E-01
421.06	6.0874E-01
421.42	6.1928E-01
421.77	6.2227E-01
422.12	6.0415E-01
422.48	5.6790E-01
422.83	6.3495E-01
423.19	5.8759E-01
423.54	6.0590E-01
423.90	6.0910E-01
424.25	5.9846E-01
424.61	6.2039E-01
424.96	5.8244E-01
425.31	5.5817E-01
425.67	5.6870E-01
426.02	5.7486E-01
426.38	5.8417E-01
426.73	5.5980E-01
427.09	5.8124E-01
427.44	5.7663E-01
427.79	5.4143E-01
428.15	5.9542E-01
428.50	5.6138E-01
428.85	5.9060E-01
429.21	5.4364E-01
429.56	5.1576E-01
429.92	5.3677E-01
430.27	5.3868E-01
430.62	5.4982E-01
430.98	5.6994E-01
431.33	5.5666E-01
431.68	5.4896E-01
432.04	5.4891E-01
432.39	5.2941E-01
432.74	5.5668E-01
433.10	5.2085E-01
433.45	5.6345E-01
433.80	5.4069E-01
434.16	5.5324E-01
434.51	5.3745E-01
434.86	5.4402E-01
435.22	5.2551E-01
435.57	5.7507E-01
435.92	5.5610E-01
436.28	5.4799E-01
436.63	5.2401E-01
436.98	5.3263E-01
437.34	5.5702E-01
437.69	5.3720E-01
438.04	5.1532E-01
438.39	5.4076E-01
438.75	5.2129E-01
439.10	5.1488E-01
439.45	5.4215E-01
439.81	5.2875E-01
440.16	5.0941E-01
440.51	5.1661E-01
440.86	5.0940E-01
441.22	5.1603E-01
441.57	5.2267E-01
441.92	4.9706E-01
442.27	5.2937E-01
442.63	5.1956E-01
442.98	5.3438E-01
443.33	5.3535E-01
443.68	5.1807E-01
444.03	4.8226E-01
444.39	4.8752E-01
444.74	5.1329E-01
445.09	5.1646E-01
445.44	5.3850E-01
445.79	4.7628E-01
446.15	5.0503E-01
446.50	5.0721E-01
446.85	4.7639E-01
447.20	4.8312E-01
447.55	5.0679E-01
447.91	5.0598E-01
448.26	4.9516E-01
448.61	4.9581E-01
448.96	4.9104E-01
449.31	4.8855E-01
449.66	5.0929E-01
450.02	4.9290E-01
450.37	4.9410E-01
450.72	4.8127E-01
451.07	5.1688E-01
451.42	5.0940E-01
451.77	4.9487E-01
452.12	4.8180E-01
452.47	5.2392E-01
452.83	4.6912E-01
453.18	5.0519E-01
453.53	4.8431E-01
453.88	4.6681E-01
454.23	4.7516E-01
454.58	4.8320E-01
454.93	4.8604E-01
455.28	4.8723E-01
455.63	4.8325E-01
455.98	4.6091E-01
456.34	4.8376E-01
456.69	4.7757E-01
457.04	4.6533E-01
457.39	4.5176E-01
457.74	4.5021E-01
458.09	4.6371E-01
458.44	4.4735E-01
458.79	4.3554E-01
459.14	4.4758E-01
459.49	4.6855E-01
459.84	4.4164E-01
460.19	4.7045E-01
460.54	4.6627E-01
460.89	4.3163E-01
461.24	4.7070E-01
461.59	4.5816E-01
461.94	4.6330E-01
462.29	4.2843E-01
462.64	4.5866E-01
462.99	4.5873E-01
463.34	4.7596E-01
463.69	4.4058E-01
464.04	4.3148E-01
464.39	4.4030E-01
464.74	4.4523E-01
465.09	4.5439E-01
465.44	4.4184E-01
465.79	4.4114E-01
466.14	4.4232E-01
466.49	4.3869E-01
466.84	4.4248E-01
467.19	4.4745E-01
467.54	4.4735E-01
467.89	4.2463E-01
468.24	4.1236E-01
468.59	4.2596E-01
468.94	4.1644E-01
469.29	4.1772E-01
469.64	4.3417E-01
469.99	4.1453E-01
470.34	3.9935E-01
470.68	4.3401E-01
471.03	4.0436E-01
471.38	4.0858E-01
471.73	3.9865E-01
472.08	3.8840E-01
472.43	3.8061E-01
472.78	3.9507E-01
473.13	3.9524E-01
473.48	3.8523E-01
473.83	3.7889E-01
474.17	3.8599E-01
474.52	3.8200E-01
474.87	3.6441E-01
475.22	3.6955E-01
475.57	3.5082E-01
475.92	3.3866E-01
476.27	3.5990E-01
476.61	3.4426E-01
476.96	3.4016E-01
477.31	3.2353E-01
477.66	3.3336E-01
478.01	3.2844E-01
478.36	3.2421E-01
478.70	3.2152E-01
479.05	3.2658E-01
479.40	3.1012E-01
479.75	3.1192E-01
480.10	3.0920E-01
480.45	3.0537E-01
480.79	3.0428E-01
481.14	3.1186E-01
481.49	3.0313E-01
481.84	2.9460E-01
482.19	2.9019E-01
482.53	2.9053E-01
482.88	2.8920E-01
483.23	2.8501E-01
483.58	2.8043E-01
483.92	2.8665E-01
484.27	2.7419E-01
484.62	2.7500E-01
484.97	2.6999E-01
485.31	2.6569E-01
485.66	2.7251E-01
486.01	2.7069E-01
486.36	2.6377E-01
486.70	2.6784E-01
487.05	2.6615E-01
487.40	2.6080E-01
487.75	2.5318E-01
488.09	2.5735E-01
488.44	2.6447E-01
488.79	2.5416E-01
489.13	2.5585E-01
489.48	2.5627E-01
489.83	2.5816E-01
490.17	2.5022E-01
490.52	2.5041E-01
490.87	2.5183E-01
491.22	2.5448E-01
491.56	2.4989E-01
491.91	2.5357E-01
492.26	2.5116E-01
492.60	2.5036E-01
492.95	2.5177E-01
493.30	2.5394E-01
493.64	2.4878E-01
493.99	2.5108E-01
494.34	2.4913E-01
494.68	2.4453E-01
495.03	2.5204E-01
495.37	2.4815E-01
495.72	2.5035E-01
496.07	2.4607E-01
496.41	2.4933E-01
496.76	2.4773E-01
497.11	2.4924E-01
497.45	2.4764E-01
497.80	2.4968E-01
498.14	2.4982E-01
498.49	2.4994E-01
498.84	2.4890E-01
499.18	2.4760E-01
499.53	2.5078E-01
499.87	2.4882E-01
500.22	2.5119E-01
500.56	2.4967E-01
500.91	2.4823E-01
501.26	2.4956E-01
501.60	2.4955E-01
501.95	2.4601E-01
502.29	2.4767E-01
502.64	2.4799E-01
502.98	2.4968E-01
503.33	2.4984E-01
503.67	2.4835E-01
504.02	2.4747E-01
504.36	2.4564E-01
504.71	2.4744E-01
505.06	2.4743E-01
505.40	2.4705E-01
505.75	2.4481E-01
506.09	2.4552E-01
506.44	2.4410E-01
506.78	2.4569E-01
507.13	2.4556E-01
507.47	2.4318E-01
507.82	2.4227E-01
508.16	2.4265E-01
508.51	2.4184E-01
508.85	2.4124E-01
509.19	2.4077E-01
509.54	2.4399E-01
509.88	2.4223E-01
510.23	2.4001E-01
510.57	2.3920E-01
510.92	2.4274E-01
511.26	2.4031E-01
511.61	2.4027E-01
511.95	2.4072E-01
512.30	2.3906E-01
512.64	2.3982E-01
512.98	2.3920E-01
513.33	2.3862E-01
513.67	2.3874E-01
514.02	2.3724E-01
514.36	2.3676E-01
514.70	2.3766E-01
515.05	2.3676E-01
515.39	2.3734E-01
515.74	2.3461E-01
516.08	2.3718E-01
516.42	2.3485E-01
516.77	2.3542E-01
517.11	2.3399E-01
517.46	2.3647E-01
517.80	2.3402E-01
518.14	2.3458E-01
518.49	2.3454E-01
518.83	2.3215E-01
519.17	2.3580E-01
519.52	2.3347E-01
519.86	2.3294E-01
520.20	2.3098E-01
520.55	2.3266E-01
520.89	2.3348E-01
521.23	2.3319E-01
521.58	2.3275E-01
521.92	2.3676E-01
522.26	2.3514E-01
522.61	2.3203E-01
522.95	2.3324E-01
523.29	2.3288E-01
523.64	2.3206E-01
523.98	2.3222E-01
524.32	2.3442E-01
524.66	2.3395E-01
525.01	2.3549E-01
525.35	2.3552E-01
525.69	2.3587E-01
526.04	2.3664E-01
526.38	2.3301E-01
526.72	2.3602E-01
527.06	2.3569E-01
527.41	2.3944E-01
527.75	2.3991E-01
528.09	2.3693E-01
528.43	2.3853E-01
528.78	2.3625E-01
529.12	2.4265E-01
529.46	2.4067E-01
529.80	2.4042E-01
530.15	2.4136E-01
530.49	2.4269E-01
530.83	2.4357E-01
531.17	2.4373E-01
531.51	2.4427E-01
531.86	2.4527E-01
532.20	2.4746E-01
532.54	2.4741E-01
532.88	2.4759E-01
533.22	2.4879E-01
533.57	2.4931E-01
533.91	2.5166E-01
534.25	2.5177E-01
534.59	2.5038E-01
534.93	2.5166E-01
535.27	2.5301E-01
535.62	2.5529E-01
535.96	2.5683E-01
536.30	2.5708E-01
536.64	2.5763E-01
536.98	2.5850E-01
537.32	2.5863E-01
537.66	2.5811E-01
538.01	2.6160E-01
538.35	2.6330E-01
538.69	2.6101E-01
539.03	2.6667E-01
539.37	2.6321E-01
539.71	2.6496E-01
540.05	2.6543E-01
540.39	2.6593E-01
540.73	2.6828E-01
541.07	2.6632E-01
541.42	2.6650E-01
541.76	2.6680E-01
542.10	2.6714E-01
542.44	2.6916E-01
542.78	2.6963E-01
543.12	2.6960E-01
543.46	2.7513E-01
543.80	2.7203E-01
544.14	2.7328E-01
544.48	2.7014E-01
544.82	2.7332E-01
545.16	2.7341E-01
545.50	2.7230E-01
545.84	2.7685E-01
546.18	2.7395E-01
546.52	2.7683E-01
546.86	2.7290E-01
547.20	2.7576E-01
547.54	2.8111E-01
547.88	2.7623E-01
548.22	2.7723E-01
548.56	2.7783E-01
548.90	2.7586E-01
549.24	2.7961E-01
549.58	2.7917E-01
549.92	2.7920E-01
550.26	2.8257E-01
550.60	2.8050E-01
550.94	2.7618E-01
551.28	2.8313E-01
551.62	2.8057E-01
551.96	2.8299E-01
552.30	2.8175E-01
552.64	2.8350E-01
552.98	2.8139E-01
553.32	2.8177E-01
553.66	2.7978E-01
554.00	2.8080E-01
554.34	2.8341E-01
554.68	2.8446E-01
555.02	2.8335E-01
555.36	2.8305E-01
555.69	2.8587E-01
556.03	2.8475E-01
556.37	2.8480E-01
556.71	2.8354E-01
557.05	2.8236E-01
557.39	2.8392E-01
557.73	2.8347E-01
558.07	2.8529E-01
558.41	2.8384E-01
558.75	2.8471E-01
559.08	2.8525E-01
559.42	2.8080E-01
559.76	2.8539E-01
560.10	2.8424E-01
560.44	2.8518E-01
560.78	2.8249E-01
561.12	2.8425E-01
561.45	2.8491E-01
561.79	2.8571E-01
562.13	2.8415E-01
562.47	2.8422E-01
562.81	2.8849E-01
563.15	2.8790E-01
563.48	2.8571E-01
563.82	2.8392E-01
564.16	2.8631E-01
564.50	2.8723E-01
564.84	2.8717E-01
565.17	2.8660E-01
565.51	2.8347E-01
565.85	2.8726E-01
566.19	2.8586E-01
566.52	2.8764E-01
566.86	2.8659E-01
567.20	2.8775E-01
567.54	2.8982E-01
567.88	2.8706E-01
568.21	2.8880E-01
568.55	2.8815E-01
568.89	2.8820E-01
569.23	2.9033E-01
569.56	2.8773E-01
569.90	2.8828E-01
570.24	2.9069E-01
570.57	2.8959E-01
570.91	2.9228E-01
571.25	2.9021E-01
571.59	2.9074E-01
571.92	2.9079E-01
572.26	2.9215E-01
572.60	2.9480E-01
572.93	2.9305E-01
573.27	2.9654E-01
573.61	2.9658E-01
573.95	2.9274E-01
574.28	2.9668E-01
574.62	2.9670E-01
574.96	2.9717E-01
575.29	2.9554E-01
575.63	2.9937E-01
575.97	2.9884E-01
576.30	3.0626E-01
576.64	3.0101E-01
576.98	3.0237E-01
577.31	3.0438E-01
577.65	3.0489E-01
577.98	3.0453E-01
578.32	3.0843E-01
578.66	3.0711E-01
578.99	3.1177E-01
579.33	3.1087E-01
579.67	3.1099E-01
580.00	3.1153E-01
580.34	3.1488E-01
580.67	3.1413E-01
581.01	3.1460E-01
581.35	3.1758E-01
581.68	3.1827E-01
582.02	3.1770E-01
582.35	3.1851E-01
582.69	3.2043E-01
583.02	3.2583E-01
583.36	3.2332E-01
583.70	3.2248E-01
584.03	3.2472E-01
584.37	3.2515E-01
584.70	3.2932E-01
585.04	3.3009E-01
585.37	3.2745E-01
585.71	3.3179E-01
586.04	3.3090E-01
586.38	3.2889E-01
586.72	3.3395E-01
587.05	3.3324E-01
587.39	3.3479E-01
587.72	3.3411E-01
588.06	3.3670E-01
588.39	3.3554E-01
588.73	3.4106E-01
589.06	3.4000E-01
589.40	3.4151E-01
589.73	3.4309E-01
590.07	3.4534E-01
590.40	3.4675E-01
590.73	3.5124E-01
591.07	3.4760E-01
591.40	3.4880E-01
591.74	3.4590E-01
592.07	3.5151E-01
592.41	3.5170E-01
592.74	3.5035E-01
593.08	3.5187E-01
593.41	3.5332E-01
593.75	3.5023E-01
594.08	3.5746E-01
594.41	3.5340E-01
594.75	3.5715E-01
595.08	3.5671E-01
595.42	3.5288E-01
595.75	3.5571E-01
596.09	3.5558E-01
596.42	3.5616E-01
596.75	3.5933E-01
597.09	3.6267E-01
597.42	3.5701E-01
597.75	3.6081E-01
598.09	3.6074E-01
598.42	3.5875E-01
598.76	3.6245E-01
599.09	3.6255E-01
599.42	3.6503E-01
599.76	3.6489E-01
600.09	3.6487E-01
600.42	3.6745E-01
600.76	3.6396E-01
601.09	3.6568E-01
601.42	3.7312E-01
601.76	3.6637E-01
602.09	3.6679E-01
602.42	3.6834E-01
602.76	3.6899E-01
603.09	3.6590E-01
603.42	3.6877E-01
603.76	3.6769E-01
604.09	3.6850E-01
604.42	3.6906E-01
604.76	3.6918E-01
605.09	3.7255E-01
605.42	3.6965E-01
605.75	3.7254E-01
606.09	3.7177E-01
606.42	3.7016E-01
606.75	3.7320E-01
607.09	3.7240E-01
607.42	3.7228E-01
607.75	3.7406E-01
608.08	3.7453E-01
608.42	3.7535E-01
608.75	3.7324E-01
609.08	3.7796E-01
609.41	3.7664E-01
609.75	3.7576E-01
610.08	3.7559E-01
610.41	3.7645E-01
610.74	3.7593E-01
611.07	3.7851E-01
611.41	3.7440E-01
611.74	3.7880E-01
612.07	3.8269E-01
612.40	3.7638E-01
612.73	3.7664E-01
613.07	3.8203E-01
613.40	3.7769E-01
613.73	3.7757E-01
614.06	3.8006E-01
614.39	3.8101E-01
614.72	3.8340E-01
615.06	3.8103E-01
615.39	3.8619E-01
615.72	3.8123E-01
616.05	3.8599E-01
616.38	3.8263E-01
616.71	3.8528E-01
617.05	3.8106E-01
617.38	3.8616E-01
617.71	3.8023E-01
618.04	3.8713E-01
618.37	3.8252E-01
618.70	3.8178E-01
619.03	3.8656E-01
619.36	3.7773E-01
619.69	3.8686E-01
620.03	3.8091E-01
620.36	3.8512E-01
620.69	3.8342E-01
621.02	3.8489E-01
621.35	3.8200E-01
621.68	3.8033E-01
622.01	3.7952E-01
622.34	3.8325E-01
622.67	3.8248E-01
623.00	3.8244E-01
623.33	3.8105E-01
623.66	3.8268E-01
623.99	3.8286E-01
624.32	3.7885E-01
624.65	3.8115E-01
624.99	3.8161E-01
625.32	3.8374E-01
625.65	3.8013E-01
625.98	3.7839E-01
626.31	3.8173E-01
626.64	3.8338E-01
626.97	3.8128E-01
627.30	3.7927E-01
627.63	3.8067E-01
627.96	3.8202E-01
628.29	3.7695E-01
628.62	3.8226E-01
628.95	3.8149E-01
629.28	3.7487E-01
629.61	3.8641E-01
629.94	3.8065E-01
630.26	3.8264E-01
630.59	3.8532E-01
630.92	3.8279E-01
631.25	3.8531E-01
631.58	3.8850E-01
631.91	3.8281E-01
632.24	3.9131E-01
632.57	3.8687E-01
632.90	3.8969E-01
633.23	3.8966E-01
633.56	3.9042E-01
633.89	3.9068E-01
634.22	3.9094E-01
634.55	3.9323E-01
634.88	3.9850E-01
635.20	3.9446E-01
635.53	3.9862E-01
635.86	3.9891E-01
636.19	4.0330E-01
636.52	4.0410E-01
636.85	4.0590E-01
637.18	4.0893E-01
637.51	4.0832E-01
637.83	4.0881E-01
638.16	4.0642E-01
638.49	4.1436E-01
638.82	4.1196E-01
639.15	4.1742E-01
639.48	4.2012E-01
639.81	4.2349E-01
640.13	4.1894E-01
640.46	4.2662E-01
640.79	4.2333E-01
641.12	4.3088E-01
641.45	4.2632E-01
641.77	4.2708E-01
642.10	4.3481E-01
642.43	4.3660E-01
642.76	4.3896E-01
643.09	4.3484E-01
643.41	4.4004E-01
643.74	4.4178E-01
644.07	4.4065E-01
644.40	4.4343E-01
644.73	4.4761E-01
645.05	4.5131E-01
645.38	4.5127E-01
645.71	4.5742E-01
646.04	4.5609E-01
646.36	4.5494E-01
646.69	4.6274E-01
647.02	4.6232E-01
647.35	4.6145E-01
647.67	4.6519E-01
648.00	4.6401E-01
648.33	4.7170E-01
648.66	4.6773E-01
648.98	4.7186E-01
649.31	4.7116E-01
649.64	4.7289E-01
649.96	4.7584E-01
650.29	4.8255E-01
650.62	4.8122E-01
650.94	4.8284E-01
651.27	4.8245E-01
651.60	4.8487E-01
651.92	4.8871E-01
652.25	4.9226E-01
652.58	4.8882E-01
652.90	4.9273E-01
653.23	4.9293E-01
653.56	4.9642E-01
653.88	4.9960E-01
654.21	4.9753E-01
654.54	5.0125E-01
654.86	5.0651E-01
655.19	4.9819E-01
655.52	5.0716E-01
655.84	5.0387E-01
656.17	5.1003E-01
656.49	5.1075E-01
656.82	5.0893E-01
657.15	5.1327E-01
657.47	5.1272E-01
657.80	5.1592E-01
658.13	5.1430E-01
658.45	5.1840E-01
658.78	5.2121E-01
659.10	5.2165E-01
659.43	5.2680E-01
659.75	5.2246E-01
660.08	5.2297E-01
660.41	5.2808E-01
660.73	5.2739E-01
661.06	5.3048E-01
661.38	5.2967E-01
661.71	5.3406E-01
662.03	5.3015E-01
662.36	5.3622E-01
662.68	5.3821E-01
663.01	5.3056E-01
663.33	5.4012E-01
663.66	5.4249E-01
663.98	5.4383E-01
664.31	5.3757E-01
664.63	5.4832E-01
664.96	5.3939E-01
665.28	5.4571E-01
665.61	5.4488E-01
665.93	5.5033E-01
666.26	5.4961E-01
666.58	5.5209E-01
666.91	5.5029E-01
667.23	5.5549E-01
667.56	5.5354E-01
667.88	5.5274E-01
668.21	5.5834E-01
668.53	5.5659E-01
668.86	5.5904E-01
669.18	5.5680E-01
669.50	5.6708E-01
669.83	5.6733E-01
670.15	5.6897E-01
670.48	5.6960E-01
670.80	5.6502E-01
671.13	5.6504E-01
671.45	5.7041E-01
671.77	5.6952E-01
672.10	5.6820E-01
672.42	5.7748E-01
672.75	5.7123E-01
673.07	5.7867E-01
673.39	5.7867E-01
673.72	5.7849E-01
674.04	5.8296E-01
674.37	5.8262E-01
674.69	5.8135E-01
675.01	5.8551E-01
675.34	5.8666E-01
675.66	5.8836E-01
675.98	5.8148E-01
676.31	5.9119E-01
676.63	5.9157E-01
676.95	5.9099E-01
677.28	5.9538E-01
677.60	5.9385E-01
677.92	5.9839E-01
678.25	6.0189E-01
678.57	6.0274E-01
678.89	6.0177E-01
679.22	6.0344E-01
679.54	6.0248E-01
679.86	6.0669E-01
680.18	6.0636E-01
680.51	6.0532E-01
680.83	6.2055E-01
681.15	6.1401E-01
681.48	6.1522E-01
681.80	6.1601E-01
682.12	6.1378E-01
682.44	6.2276E-01
682.77	6.2191E-01
683.09	6.2619E-01
683.41	6.2567E-01
683.73	6.3138E-01
684.06	6.3181E-01
684.38	6.2993E-01
684.70	6.3211E-01
685.02	6.3210E-01
685.34	6.3885E-01
685.67	6.3426E-01
685.99	6.4833E-01
686.31	6.4260E-01
686.63	6.4872E-01
686.96	6.5165E-01
687.28	6.5349E-01
687.60	6.5196E-01
687.92	6.5309E-01
688.24	6.6463E-01
688.56	6.6356E-01
688.89	6.6085E-01
689.21	6.6607E-01
689.53	6.6568E-01
689.85	6.7749E-01
690.17	6.7163E-01
690.49	6.8122E-01
690.82	6.8102E-01
691.14	6.8465E-01
691.46	6.8233E-01
691.78	6.9046E-01
692.10	6.8702E-01
692.42	6.9102E-01
692.74	6.9578E-01
693.06	6.9874E-01
693.39	7.0476E-01
693.71	7.1276E-01
694.03	7.0710E-01
694.35	7.0716E-01
694.67	7.1935E-01
694.99	7.1952E-01
695.31	7.2506E-01
695.63	7.2541E-01
695.95	7.2608E-01
696.27	7.2727E-01
696.59	7.3060E-01
696.91	7.3894E-01
697.23	7.4344E-01
697.56	7.4411E-01
697.88	7.4862E-01
698.20	7.4707E-01
698.52	7.5055E-01
698.84	7.6116E-01
699.16	7.6656E-01
699.48	7.6375E-01
699.80	7.6647E-01
700.12	7.7949E-01
700.44	7.7571E-01
700.76	7.7899E-01
701.08	7.8416E-01
701.40	7.8818E-01
701.72	7.8990E-01
702.04	7.9590E-01
702.36	7.9485E-01
702.68	8.0226E-01
703.00	8.1203E-01
703.32	8.0597E-01
703.64	8.1568E-01
703.96	8.0619E-01
704.28	8.1813E-01
704.60	8.3009E-01
704.91	8.2668E-01
705.23	8.3427E-01
705.55	8.4018E-01
705.87	8.4588E-01
706.19	8.4428E-01
706.51	8.4195E-01
706.83	8.4062E-01
707.15	8.7277E-01
707.47	8.6124E-01
707.79	8.6661E-01
708.11	8.7066E-01
708.43	8.7309E-01
708.74	8.7983E-01
709.06	8.8895E-01
709.38	8.8787E-01
709.70	8.8899E-01
710.02	8.9578E-01
710.34	8.8958E-01
710.66	9.0565E-01
710.98	9.0965E-01
711.29	9.1544E-01
711.61	9.3143E-01
711.93	9.2610E-01
712.25	9.2646E-01
712.57	9.3784E-01
712.89	9.4318E-01
713.20	9.4615E-01
713.52	9.5471E-01
713.84	9.5513E-01
714.16	9.4984E-01
714.48	9.5904E-01
714.80	9.7341E-01
715.11	9.6814E-01
715.43	9.8113E-01
715.75	9.8037E-01
716.07	9.9634E-01
716.39	9.7893E-01
716.70	9.9245E-01
717.02	9.8792E-01
717.34	1.0156E00
717.66	1.0066E00
717.97	1.0220E00
718.29	1.0314E00
718.61	1.0322E00
718.93	1.0339E00
719.24	1.0387E00
719.56	1.0585E00
719.88	1.0479E00
720.20	1.0687E00
720.51	1.0828E00
720.83	1.0702E00
721.15	1.0899E00
721.46	1.0961E00
721.78	1.1023E00
722.10	1.1157E00
722.42	1.1197E00
722.73	1.1197E00
723.05	1.1200E00
723.37	1.1352E00
723.68	1.1473E00
724.00	1.1464E00
724.32	1.1679E00
724.63	1.1558E00
724.95	1.1702E00
725.27	1.1717E00
725.58	1.1701E00
725.90	1.1664E00
726.22	1.1928E00
726.53	1.1807E00
726.85	1.1922E00
727.16	1.1975E00
727.48	1.1932E00
727.80	1.2045E00
728.11	1.2077E00
728.43	1.2129E00
728.74	1.2116E00
729.06	1.2178E00
729.38	1.2217E00
729.69	1.2201E00
730.01	1.2368E00
730.32	1.2350E00
730.64	1.2380E00
730.96	1.2266E00
731.27	1.2579E00
731.59	1.2433E00
731.90	1.2509E00
732.22	1.2582E00
732.53	1.2680E00
732.85	1.2672E00
733.16	1.2655E00
733.48	1.2613E00
733.80	1.2689E00
734.11	1.2804E00
734.43	1.2959E00
734.74	1.2996E00
735.06	1.3017E00
735.37	1.3125E00
735.69	1.3145E00
736.00	1.3061E00
736.32	1.3201E00
736.63	1.3151E00
736.95	1.3315E00
737.26	1.3422E00
737.58	1.3355E00
737.89	1.3651E00
738.21	1.3510E00
738.52	1.3492E00
738.83	1.3665E00
739.15	1.3542E00
739.46	1.3715E00
739.78	1.3712E00
740.09	1.3817E00
740.41	1.3704E00
740.72	1.3775E00
741.04	1.3757E00
741.35	1.3767E00
741.66	1.4029E00
741.98	1.3921E00
742.29	1.3865E00
742.61	1.3969E00
742.92	1.4029E00
743.23	1.4011E00
743.55	1.4043E00
743.86	1.4040E00
744.18	1.4107E00
744.49	1.4113E00
744.80	1.4017E00
745.12	1.3999E00
745.43	1.4095E00
745.74	1.4049E00
746.06	1.4061E00
746.37	1.3938E00
746.68	1.4085E00
747.00	1.3959E00
747.31	1.4106E00
747.62	1.3949E00
747.94	1.4269E00
748.25	1.4103E00
748.56	1.4083E00
748.88	1.3966E00
749.19	1.4161E00
749.50	1.4019E00
749.82	1.4078E00
750.13	1.4181E00
750.44	1.4064E00
750.75	1.4053E00
751.07	1.4121E00
751.38	1.4030E00
751.69	1.4021E00
752.01	1.4163E00
752.32	1.4252E00
752.63	1.4182E00
752.94	1.4144E00
753.26	1.4203E00
753.57	1.4289E00
753.88	1.4413E00
754.19	1.4221E00
754.51	1.4276E00
754.82	1.4448E00
755.13	1.4439E00
755.44	1.4524E00
755.75	1.4421E00
756.07	1.4507E00
756.38	1.4573E00
756.69	1.4624E00
757.00	1.4612E00
757.31	1.4908E00
757.63	1.4849E00
757.94	1.4926E00
758.25	1.5027E00
758.56	1.4862E00
758.87	1.5032E00
759.18	1.5087E00
759.50	1.5128E00
759.81	1.5165E00
760.12	1.5353E00
760.43	1.5451E00
760.74	1.5571E00
761.05	1.5540E00
761.36	1.5664E00
761.67	1.5719E00
761.99	1.5775E00
762.30	1.5767E00
762.61	1.5959E00
762.92	1.6134E00
763.23	1.6125E00
763.54	1.6364E00
763.85	1.6359E00
764.16	1.6584E00
764.47	1.6746E00
764.78	1.6921E00
765.10	1.6929E00
765.41	1.6963E00
765.72	1.7104E00
766.03	1.7505E00
766.34	1.7570E00
766.65	1.7443E00
766.96	1.7931E00
767.27	1.7837E00
767.58	1.7790E00
767.89	1.8064E00
768.20	1.8263E00
768.51	1.8240E00
768.82	1.8370E00
769.13	1.8508E00
769.44	1.8900E00
769.75	1.9029E00
770.06	1.9211E00
770.37	1.8992E00
770.68	1.9423E00
770.99	1.9627E00
771.30	1.9854E00
771.61	2.0245E00
771.92	2.0156E00
772.23	2.0153E00
772.54	2.0568E00
772.85	2.0456E00
773.16	2.0620E00
773.47	2.1046E00
773.78	2.0839E00
774.09	2.1344E00
774.39	2.1314E00
774.70	2.1676E00
775.01	2.1828E00
775.32	2.2065E00
775.63	2.2212E00
775.94	2.2447E00
776.25	2.2292E00
776.56	2.2653E00
776.87	2.3367E00
777.18	2.3035E00
777.48	2.3470E00
777.79	2.3648E00
778.10	2.3841E00
778.41	2.3979E00
778.72	2.4382E00
779.03	2.4407E00
779.34	2.4696E00
779.65	2.4729E00
779.95	2.5017E00
780.26	2.5212E00
780.57	2.5308E00
780.88	2.5605E00
781.19	2.5753E00
781.50	2.5910E00
781.80	2.6254E00
782.11	2.6596E00
782.42	2.6727E00
782.73	2.6431E00
783.04	2.7355E00
783.34	2.7237E00
783.65	2.7791E00
783.96	2.7871E00
784.27	2.7959E00
784.57	2.7831E00
784.88	2.8347E00
785.19	2.8525E00
785.50	2.8787E00
785.81	2.9268E00
786.11	2.9066E00
786.42	2.9453E00
786.73	3.0048E00
787.04	3.0222E00
787.34	3.0423E00
787.65	3.0078E00
787.96	3.1137E00
788.26	3.0892E00
788.57	3.1706E00
788.88	3.1049E00
789.19	3.2209E00
789.49	3.2039E00
789.80	3.2810E00
790.11	3.2851E00
790.41	3.2615E00
790.72	3.3521E00
791.03	3.3854E00
791.33	3.3669E00
791.64	3.4436E00
791.95	3.4300E00
792.25	3.4897E00
792.56	3.4927E00
792.87	3.4860E00
793.17	3.5035E00
793.48	3.5363E00
793.79	3.6236E00
794.09	3.6401E00
794.40	3.6159E00
794.70	3.5966E00
795.01	3.7114E00
795.32	3.7070E00
795.62	3.7457E00
795.93	3.7602E00
796.23	3.7924E00
796.54	3.8199E00
796.85	3.8668E00
797.15	3.9004E00
797.46	3.8527E00
797.76	3.9504E00
798.07	3.9898E00
798.37	4.0155E00
798.68	4.0433E00
798.99	4.0752E00
799.29	4.0779E00
799.60	4.1653E00
799.90	4.1637E00
800.21	4.2591E00
800.51	4.2454E00
800.82	4.2514E00
801.12	4.3138E00
801.43	4.3459E00
801.73	4.3358E00
802.04	4.4304E00
802.34	4.4212E00
802.65	4.4727E00
802.95	4.5454E00
803.26	4.5260E00
803.56	4.5040E00
803.87	4.5945E00
804.17	4.6634E00
804.48	4.6246E00
804.78	4.6833E00
805.09	4.7720E00
805.39	4.6896E00
805.70	4.7503E00
806.00	4.8276E00
806.30	4.8344E00
806.61	4.8572E00
806.91	4.8660E00
807.22	4.9739E00
807.52	4.9753E00
807.83	4.9897E00
808.13	5.0764E00
808.43	4.9995E00
808.74	5.0561E00
809.04	5.1120E00
809.35	5.1700E00
809.65	5.2406E00
809.95	5.2556E00
810.26	5.3749E00
810.56	5.2936E00
810.86	5.5040E00
811.17	5.4182E00
811.47	5.5670E00
811.77	5.4887E00
812.08	5.4753E00
812.38	5.6033E00
812.69	5.5804E00
812.99	5.6022E00
813.29	5.6680E00
813.59	5.7325E00
813.90	5.8699E00
814.20	5.7950E00
814.50	5.9650E00
814.81	5.7905E00
815.11	6.0312E00
815.41	6.0498E00
815.72	6.0706E00
816.02	6.1170E00
816.32	6.2403E00
816.62	6.0070E00
816.93	6.2072E00
817.23	6.3521E00
817.53	6.1597E00
817.84	6.3563E00
818.14	6.4136E00
818.44	6.3490E00
818.74	6.3884E00
819.04	6.7140E00
819.35	6.6061E00
819.65	6.4812E00
819.95	6.6777E00
820.25	6.7836E00
820.56	6.6557E00
820.86	6.7813E00
821.16	6.7875E00
821.46	6.9978E00
821.76	6.7429E00
822.07	6.9266E00
822.37	7.0789E00
822.67	7.1956E00
822.97	7.3361E00
823.27	7.1841E00
823.57	7.1436E00
823.88	7.3434E00
824.18	7.2054E00
824.48	7.4293E00
824.78	7.6479E00
825.08	7.4581E00
825.38	7.6062E00
825.69	7.6158E00
825.99	7.6476E00
826.29	7.5043E00
826.59	7.7291E00
826.89	7.9156E00
827.19	7.7107E00
827.49	8.0064E00
827.79	7.9216E00
828.09	8.1229E00
828.39	8.1435E00
828.70	8.1190E00
829.00	7.9712E00
829.30	8.1382E00
829.60	8.3072E00
829.90	8.2188E00
830.20	8.3179E00
830.50	8.5818E00
830.80	8.5514E00
831.10	8.4722E00
831.40	8.6631E00
831.70	8.7481E00
832.00	8.8051E00
832.30	8.8621E00
832.60	8.7419E00
832.90	8.9349E00
833.20	8.8472E00
833.50	9.0325E00
833.80	9.0891E00
834.10	9.2174E00
834.40	9.1489E00
834.70	9.2602E00
835.00	9.3939E00
835.30	9.3335E00
835.60	9.4691E00
835.90	9.5614E00
836.20	9.7001E00
836.50	9.7619E00
836.80	9.6041E00
837.10	9.7398E00
837.40	9.7692E00
837.70	9.8541E00
838.00	9.9480E00
838.30	1.0203E01
838.60	1.0079E01
838.90	1.0315E01
839.19	1.0421E01
839.49	1.0608E01
839.79	1.0122E01
840.09	1.0612E01
840.39	1.0407E01
840.69	1.0570E01
840.99	1.0888E01
841.29	1.0774E01
841.59	1.0896E01
841.88	1.1084E01
842.18	1.0962E01
842.48	1.1155E01
842.78	1.1229E01
843.08	1.1390E01
843.38	1.1340E01
843.68	1.1826E01
843.97	1.1681E01
844.27	1.1727E01
844.57	1.1608E01
844.87	1.1689E01
845.17	1.2127E01
845.47	1.1754E01
845.76	1.2217E01
846.06	1.2144E01
846.36	1.2208E01
846.66	1.2199E01
846.96	1.2175E01
847.25	1.2737E01
847.55	1.2386E01
847.85	1.2646E01
848.15	1.2772E01
848.44	1.2755E01
848.74	1.2849E01
849.04	1.3308E01
849.34	1.3087E01
849.63	1.3211E01
849.93	1.3393E01
850.23	1.3474E01
850.53	1.3632E01
850.82	1.3674E01
851.12	1.4108E01
851.42	1.3780E01
851.71	1.3925E01
852.01	1.4140E01
852.31	1.4051E01
852.61	1.4620E01
852.90	1.4237E01
853.20	1.4872E01
853.50	1.4677E01
853.79	1.4761E01
854.09	1.4772E01
854.39	1.5164E01
854.68	1.5367E01
854.98	1.5717E01
855.28	1.5526E01
855.57	1.5524E01
855.87	1.5737E01
856.17	1.5455E01
856.46	1.5975E01
856.76	1.5823E01
857.05	1.6321E01
857.35	1.6629E01
857.65	1.6589E01
857.94	1.6487E01
858.24	1.6408E01
858.53	1.6775E01
858.83	1.7616E01
859.13	1.7274E01
859.42	1.7233E01
859.72	1.7311E01
860.01	1.7779E01
860.31	1.7520E01
860.60	1.8193E01
860.90	1.8189E01
861.20	1.7871E01
861.49	1.8182E01
861.79	1.8440E01
862.08	1.8583E01
862.38	1.8607E01
862.67	1.8976E01
862.97	1.9014E01
863.26	1.9759E01
863.56	1.9646E01
863.85	2.0180E01
864.15	2.0611E01
864.44	2.0321E01
864.74	2.0089E01
865.03	2.0873E01
865.33	2.1062E01
865.62	2.1055E01
865.92	2.0810E01
866.21	2.1175E01
866.51	2.1472E01
866.80	2.2072E01
867.10	2.1498E01
867.39	2.2427E01
867.69	2.2407E01
867.98	2.2789E01
868.27	2.3072E01
868.57	2.3628E01
868.86	2.3218E01
869.16	2.2953E01
869.45	2.4104E01
869.75	2.3593E01
870.04	2.4090E01
870.33	2.4532E01
870.63	2.4841E01
870.92	2.5076E01
871.22	2.5752E01
871.51	2.5876E01
871.80	2.5482E01
872.10	2.5482E01
>>>>>End Processed Spectral Data<<<<<
