SpectraSuite Data File
++++++++++++++++++++++++++++++++++++
Date: Fri May 15 10:53:12 PDT 2015
User: schluterlab
Dark Spectrum Present: Yes
Reference Spectrum Present: No
Number of Sampled Component Spectra: 1
Spectrometers: USB2E3373
Integration Time (usec): 2300000 (USB2E3373)
Spectra Averaged: 3 (USB2E3373)
Boxcar Smoothing: 0 (USB2E3373)
Correct for Electrical Dark: No (USB2E3373)
Strobe/Lamp Enabled: No (USB2E3373)
Correct for Detector Non-linearity: No (USB2E3373)
Correct for Stray Light: No (USB2E3373)
Number of Pixels in Processed Spectrum: 2048
>>>>>Begin Processed Spectral Data<<<<<
178.53	0.0000E00
178.91	0.0000E00
179.29	0.0000E00
179.67	0.0000E00
180.04	0.0000E00
180.42	0.0000E00
180.80	0.0000E00
181.18	0.0000E00
181.56	0.0000E00
181.94	0.0000E00
182.31	0.0000E00
182.69	0.0000E00
183.07	0.0000E00
183.45	0.0000E00
183.83	0.0000E00
184.20	0.0000E00
184.58	0.0000E00
184.96	0.0000E00
185.34	0.0000E00
185.72	0.0000E00
186.09	0.0000E00
186.47	0.0000E00
186.85	0.0000E00
187.23	0.0000E00
187.61	-0.0000E00
187.98	0.0000E00
188.36	0.0000E00
188.74	0.0000E00
189.12	0.0000E00
189.49	0.0000E00
189.87	0.0000E00
190.25	0.0000E00
190.63	0.0000E00
191.00	0.0000E00
191.38	0.0000E00
191.76	0.0000E00
192.14	0.0000E00
192.51	0.0000E00
192.89	0.0000E00
193.27	0.0000E00
193.65	0.0000E00
194.02	0.0000E00
194.40	0.0000E00
194.78	0.0000E00
195.15	0.0000E00
195.53	0.0000E00
195.91	0.0000E00
196.29	0.0000E00
196.66	0.0000E00
197.04	0.0000E00
197.42	0.0000E00
197.79	0.0000E00
198.17	0.0000E00
198.55	0.0000E00
198.92	0.0000E00
199.30	0.0000E00
199.68	0.0000E00
200.05	0.0000E00
200.43	0.0000E00
200.81	0.0000E00
201.18	0.0000E00
201.56	0.0000E00
201.94	0.0000E00
202.31	0.0000E00
202.69	0.0000E00
203.07	0.0000E00
203.44	0.0000E00
203.82	0.0000E00
204.19	0.0000E00
204.57	0.0000E00
204.95	0.0000E00
205.32	0.0000E00
205.70	0.0000E00
206.08	0.0000E00
206.45	0.0000E00
206.83	0.0000E00
207.20	0.0000E00
207.58	0.0000E00
207.96	0.0000E00
208.33	0.0000E00
208.71	0.0000E00
209.08	0.0000E00
209.46	0.0000E00
209.84	0.0000E00
210.21	0.0000E00
210.59	0.0000E00
210.96	0.0000E00
211.34	0.0000E00
211.71	0.0000E00
212.09	0.0000E00
212.46	0.0000E00
212.84	0.0000E00
213.22	0.0000E00
213.59	0.0000E00
213.97	0.0000E00
214.34	0.0000E00
214.72	0.0000E00
215.09	0.0000E00
215.47	0.0000E00
215.84	0.0000E00
216.22	0.0000E00
216.59	0.0000E00
216.97	0.0000E00
217.34	0.0000E00
217.72	0.0000E00
218.09	0.0000E00
218.47	0.0000E00
218.84	0.0000E00
219.22	0.0000E00
219.59	0.0000E00
219.97	0.0000E00
220.34	0.0000E00
220.72	0.0000E00
221.09	0.0000E00
221.47	0.0000E00
221.84	0.0000E00
222.22	0.0000E00
222.59	0.0000E00
222.97	0.0000E00
223.34	0.0000E00
223.72	0.0000E00
224.09	0.0000E00
224.46	0.0000E00
224.84	0.0000E00
225.21	0.0000E00
225.59	0.0000E00
225.96	0.0000E00
226.34	0.0000E00
226.71	0.0000E00
227.08	0.0000E00
227.46	0.0000E00
227.83	0.0000E00
228.21	0.0000E00
228.58	0.0000E00
228.95	0.0000E00
229.33	0.0000E00
229.70	0.0000E00
230.08	0.0000E00
230.45	0.0000E00
230.82	0.0000E00
231.20	0.0000E00
231.57	0.0000E00
231.95	0.0000E00
232.32	0.0000E00
232.69	0.0000E00
233.07	0.0000E00
233.44	-0.0000E00
233.81	0.0000E00
234.19	0.0000E00
234.56	0.0000E00
234.93	0.0000E00
235.31	0.0000E00
235.68	0.0000E00
236.05	0.0000E00
236.43	0.0000E00
236.80	-0.0000E00
237.17	0.0000E00
237.55	0.0000E00
237.92	0.0000E00
238.29	0.0000E00
238.67	0.0000E00
239.04	0.0000E00
239.41	0.0000E00
239.79	0.0000E00
240.16	0.0000E00
240.53	0.0000E00
240.91	0.0000E00
241.28	0.0000E00
241.65	0.0000E00
242.02	0.0000E00
242.40	0.0000E00
242.77	0.0000E00
243.14	0.0000E00
243.51	0.0000E00
243.89	0.0000E00
244.26	0.0000E00
244.63	0.0000E00
245.00	0.0000E00
245.38	0.0000E00
245.75	0.0000E00
246.12	0.0000E00
246.49	0.0000E00
246.87	0.0000E00
247.24	0.0000E00
247.61	0.0000E00
247.98	0.0000E00
248.36	0.0000E00
248.73	0.0000E00
249.10	0.0000E00
249.47	0.0000E00
249.84	0.0000E00
250.22	0.0000E00
250.59	0.0000E00
250.96	0.0000E00
251.33	0.0000E00
251.70	0.0000E00
252.08	0.0000E00
252.45	0.0000E00
252.82	0.0000E00
253.19	0.0000E00
253.56	0.0000E00
253.94	0.0000E00
254.31	0.0000E00
254.68	0.0000E00
255.05	0.0000E00
255.42	0.0000E00
255.79	0.0000E00
256.16	0.0000E00
256.54	0.0000E00
256.91	0.0000E00
257.28	0.0000E00
257.65	0.0000E00
258.02	0.0000E00
258.39	0.0000E00
258.76	0.0000E00
259.14	0.0000E00
259.51	0.0000E00
259.88	0.0000E00
260.25	0.0000E00
260.62	0.0000E00
260.99	0.0000E00
261.36	0.0000E00
261.73	0.0000E00
262.10	0.0000E00
262.47	0.0000E00
262.85	0.0000E00
263.22	0.0000E00
263.59	0.0000E00
263.96	0.0000E00
264.33	0.0000E00
264.70	0.0000E00
265.07	0.0000E00
265.44	0.0000E00
265.81	0.0000E00
266.18	0.0000E00
266.55	0.0000E00
266.92	0.0000E00
267.29	0.0000E00
267.66	0.0000E00
268.03	0.0000E00
268.40	0.0000E00
268.77	0.0000E00
269.14	0.0000E00
269.51	0.0000E00
269.88	0.0000E00
270.25	0.0000E00
270.62	0.0000E00
270.99	0.0000E00
271.36	0.0000E00
271.73	0.0000E00
272.10	0.0000E00
272.47	0.0000E00
272.84	0.0000E00
273.21	0.0000E00
273.58	0.0000E00
273.95	0.0000E00
274.32	0.0000E00
274.69	0.0000E00
275.06	0.0000E00
275.43	0.0000E00
275.80	0.0000E00
276.17	0.0000E00
276.54	0.0000E00
276.91	0.0000E00
277.28	0.0000E00
277.65	-0.0000E00
278.02	0.0000E00
278.39	0.0000E00
278.76	0.0000E00
279.13	0.0000E00
279.50	0.0000E00
279.87	0.0000E00
280.23	0.0000E00
280.60	0.0000E00
280.97	0.0000E00
281.34	0.0000E00
281.71	0.0000E00
282.08	0.0000E00
282.45	0.0000E00
282.82	0.0000E00
283.19	0.0000E00
283.56	0.0000E00
283.92	0.0000E00
284.29	0.0000E00
284.66	0.0000E00
285.03	0.0000E00
285.40	0.0000E00
285.77	0.0000E00
286.14	0.0000E00
286.51	0.0000E00
286.87	0.0000E00
287.24	0.0000E00
287.61	0.0000E00
287.98	0.0000E00
288.35	0.0000E00
288.72	0.0000E00
289.08	0.0000E00
289.45	0.0000E00
289.82	0.0000E00
290.19	0.0000E00
290.56	0.0000E00
290.93	0.0000E00
291.29	0.0000E00
291.66	0.0000E00
292.03	0.0000E00
292.40	0.0000E00
292.77	0.0000E00
293.13	0.0000E00
293.50	0.0000E00
293.87	0.0000E00
294.24	0.0000E00
294.60	0.0000E00
294.97	0.0000E00
295.34	0.0000E00
295.71	0.0000E00
296.08	0.0000E00
296.44	0.0000E00
296.81	0.0000E00
297.18	0.0000E00
297.55	0.0000E00
297.91	0.0000E00
298.28	0.0000E00
298.65	0.0000E00
299.02	0.0000E00
299.38	0.0000E00
299.75	0.0000E00
300.12	4.4822E-01
300.48	1.0033E00
300.85	1.0420E00
301.22	5.2045E-01
301.59	8.7273E-01
301.95	1.5185E00
302.32	5.5490E-01
302.69	4.6916E-01
303.05	6.5013E-01
303.42	1.1496E00
303.79	6.3151E-01
304.15	5.9559E-01
304.52	5.4208E-01
304.89	6.6510E-01
305.25	1.0958E00
305.62	8.1593E-01
305.99	6.9988E-01
306.35	1.4600E00
306.72	7.2323E-01
307.09	1.3430E00
307.45	1.7453E00
307.82	9.4895E-01
308.19	6.2625E00
308.55	1.0179E00
308.92	9.6027E-01
309.29	1.1676E00
309.65	1.7498E00
310.02	1.2048E00
310.38	1.2295E00
310.75	9.2124E-01
311.12	1.4661E00
311.48	1.4852E00
311.85	9.3122E-01
312.22	1.1947E00
312.58	1.4977E00
312.95	1.4297E00
313.31	1.3705E00
313.68	1.1222E00
314.05	2.0307E00
314.41	9.8824E-01
314.78	2.5692E00
315.14	1.3512E00
315.51	1.4909E00
315.87	1.5014E00
316.24	1.8690E00
316.61	1.1038E00
316.97	2.4795E00
317.34	1.4138E00
317.70	1.6398E00
318.07	1.5734E00
318.43	9.5315E-01
318.80	1.1600E00
319.16	2.2607E00
319.53	9.0132E-01
319.89	1.4385E00
320.26	9.4115E-01
320.62	2.0653E00
320.99	1.7704E00
321.35	1.7863E00
321.72	1.0000E00
322.08	1.1342E00
322.45	1.3077E00
322.81	2.4593E00
323.18	1.1621E00
323.54	9.8596E-01
323.91	1.5086E00
324.27	1.1883E00
324.64	3.8267E00
325.00	4.2808E00
325.37	2.0402E00
325.73	2.4385E00
326.10	1.9609E00
326.46	1.4597E00
326.83	1.4148E00
327.19	1.7311E00
327.56	1.2109E00
327.92	2.5067E00
328.29	1.2188E00
328.65	9.8403E-01
329.01	1.2255E00
329.38	1.2661E00
329.74	1.5613E00
330.11	1.5028E00
330.47	3.1227E00
330.84	1.6232E00
331.20	8.6340E-01
331.56	4.0564E00
331.93	1.9279E00
332.29	1.7586E00
332.66	2.0161E00
333.02	1.7520E00
333.38	1.0857E00
333.75	2.3578E00
334.11	1.0522E00
334.48	1.6630E00
334.84	9.4777E-01
335.20	1.4187E00
335.57	1.6508E00
335.93	1.3645E00
336.29	1.4107E00
336.66	1.4089E00
337.02	1.1959E00
337.38	1.4607E00
337.75	1.1267E00
338.11	1.3596E00
338.47	1.0398E00
338.84	1.4126E00
339.20	1.5256E00
339.56	1.6573E00
339.93	1.5345E00
340.29	1.2144E00
340.65	1.0344E00
341.02	1.5623E00
341.38	1.0480E00
341.74	1.3268E00
342.11	4.6070E00
342.47	1.4922E00
342.83	1.3598E00
343.20	1.7030E00
343.56	1.4304E00
343.92	1.3972E00
344.28	1.0409E00
344.65	1.1613E00
345.01	9.6870E-01
345.37	1.1530E00
345.73	1.4194E00
346.10	1.3107E00
346.46	8.5725E-01
346.82	1.5073E00
347.19	1.6855E00
347.55	1.5352E00
347.91	1.9999E00
348.27	1.0749E00
348.63	1.5730E00
349.00	1.4895E00
349.36	1.3017E00
349.72	1.6625E00
350.08	1.2531E00
350.45	1.1232E00
350.81	1.3360E00
351.17	2.2179E00
351.53	1.8293E00
351.89	1.4303E00
352.26	9.2377E-01
352.62	9.9718E-01
352.98	1.0856E00
353.34	1.2757E00
353.70	1.4182E00
354.07	1.1459E00
354.43	1.0572E00
354.79	1.4339E00
355.15	1.2101E00
355.51	1.5282E00
355.87	9.2527E-01
356.24	9.2840E-01
356.60	1.0020E00
356.96	1.0876E00
357.32	1.0515E00
357.68	1.2204E00
358.04	9.8692E-01
358.40	1.4261E00
358.77	1.1656E00
359.13	8.4003E-01
359.49	1.2078E00
359.85	1.0218E00
360.21	1.2807E00
360.57	9.5313E-01
360.93	1.2478E00
361.29	1.2081E00
361.66	9.0649E-01
362.02	9.1514E-01
362.38	1.0725E00
362.74	9.0902E-01
363.10	8.5479E-01
363.46	9.4201E-01
363.82	9.6912E-01
364.18	1.0600E00
364.54	9.6285E-01
364.90	8.7076E-01
365.26	1.4560E00
365.62	8.5780E-01
365.98	1.1240E00
366.35	1.1024E00
366.71	9.2474E-01
367.07	1.0930E00
367.43	9.9817E-01
367.79	9.4380E-01
368.15	1.0979E00
368.51	1.1636E00
368.87	1.1571E00
369.23	9.6287E-01
369.59	1.0264E00
369.95	1.0797E00
370.31	9.3491E-01
370.67	8.8211E-01
371.03	9.7856E-01
371.39	1.0521E00
371.75	1.2032E00
372.11	1.0869E00
372.47	8.6901E-01
372.83	1.2946E00
373.19	1.1642E00
373.55	8.4862E-01
373.91	9.8297E-01
374.27	9.9259E-01
374.63	9.9021E-01
374.99	1.0001E00
375.35	8.7986E-01
375.71	8.7854E-01
376.07	8.7821E-01
376.42	1.0237E00
376.78	1.0332E00
377.14	8.0888E-01
377.50	9.8688E-01
377.86	9.1950E-01
378.22	7.8995E-01
378.58	8.5388E-01
378.94	8.3906E-01
379.30	9.7068E-01
379.66	8.7583E-01
380.02	8.1950E-01
380.38	9.4295E-01
380.74	7.8547E-01
381.09	8.5723E-01
381.45	7.5378E-01
381.81	8.4001E-01
382.17	9.1289E-01
382.53	8.0467E-01
382.89	9.2282E-01
383.25	6.9159E-01
383.61	7.9790E-01
383.97	7.7214E-01
384.32	8.7745E-01
384.68	8.3221E-01
385.04	8.6650E-01
385.40	8.0802E-01
385.76	8.6424E-01
386.12	8.2370E-01
386.48	7.8253E-01
386.83	7.7095E-01
387.19	7.9876E-01
387.55	8.5657E-01
387.91	7.6736E-01
388.27	8.1537E-01
388.62	8.0768E-01
388.98	8.1955E-01
389.34	7.8711E-01
389.70	8.2953E-01
390.06	8.1212E-01
390.42	8.0429E-01
390.77	7.8718E-01
391.13	7.6342E-01
391.49	8.2076E-01
391.85	7.4644E-01
392.20	7.9693E-01
392.56	7.9044E-01
392.92	7.7169E-01
393.28	7.6163E-01
393.64	8.3947E-01
393.99	7.3887E-01
394.35	7.9400E-01
394.71	8.6136E-01
395.07	8.2064E-01
395.42	7.5309E-01
395.78	7.8697E-01
396.14	7.2961E-01
396.50	7.3211E-01
396.85	7.3463E-01
397.21	7.2759E-01
397.57	8.0902E-01
397.92	7.7656E-01
398.28	7.4295E-01
398.64	8.3833E-01
399.00	7.0352E-01
399.35	6.6590E-01
399.71	7.1306E-01
400.07	7.1595E-01
400.42	7.2537E-01
400.78	7.2185E-01
401.14	7.0751E-01
401.49	7.3281E-01
401.85	6.6992E-01
402.21	6.6074E-01
402.57	6.7910E-01
402.92	6.9259E-01
403.28	6.6374E-01
403.63	6.8470E-01
403.99	7.4340E-01
404.35	6.7668E-01
404.70	6.5617E-01
405.06	6.4390E-01
405.42	6.8367E-01
405.77	6.6886E-01
406.13	6.2038E-01
406.49	6.5945E-01
406.84	6.3312E-01
407.20	6.2880E-01
407.55	6.9163E-01
407.91	6.9952E-01
408.27	6.4518E-01
408.62	6.2549E-01
408.98	6.7803E-01
409.34	6.7267E-01
409.69	6.7051E-01
410.05	6.5473E-01
410.40	6.3377E-01
410.76	6.2283E-01
411.11	6.1381E-01
411.47	6.8441E-01
411.83	6.2413E-01
412.18	6.3535E-01
412.54	6.4309E-01
412.89	6.5942E-01
413.25	6.2696E-01
413.60	6.1382E-01
413.96	6.5573E-01
414.31	6.3501E-01
414.67	6.3981E-01
415.03	6.6407E-01
415.38	6.6540E-01
415.74	6.5659E-01
416.09	6.6752E-01
416.45	6.6276E-01
416.80	6.4073E-01
417.16	6.4149E-01
417.51	6.4005E-01
417.87	6.3245E-01
418.22	5.9838E-01
418.58	6.1231E-01
418.93	6.2176E-01
419.29	6.4648E-01
419.64	6.2877E-01
420.00	6.0991E-01
420.35	6.0123E-01
420.71	5.9984E-01
421.06	6.0482E-01
421.42	6.1502E-01
421.77	6.1836E-01
422.12	5.9978E-01
422.48	5.6443E-01
422.83	6.3090E-01
423.19	5.8349E-01
423.54	6.0204E-01
423.90	6.0527E-01
424.25	5.9428E-01
424.61	6.1612E-01
424.96	5.7878E-01
425.31	5.5451E-01
425.67	5.6488E-01
426.02	5.7080E-01
426.38	5.8030E-01
426.73	5.5575E-01
427.09	5.7815E-01
427.44	5.7326E-01
427.79	5.3841E-01
428.15	5.9132E-01
428.50	5.5741E-01
428.85	5.8674E-01
429.21	5.4022E-01
429.56	5.1248E-01
429.92	5.3344E-01
430.27	5.3515E-01
430.62	5.4646E-01
430.98	5.6606E-01
431.33	5.5283E-01
431.68	5.4560E-01
432.04	5.4513E-01
432.39	5.2622E-01
432.74	5.5347E-01
433.10	5.1735E-01
433.45	5.5932E-01
433.80	5.3715E-01
434.16	5.4953E-01
434.51	5.3416E-01
434.86	5.4046E-01
435.22	5.2216E-01
435.57	5.7116E-01
435.92	5.5218E-01
436.28	5.4450E-01
436.63	5.2053E-01
436.98	5.2919E-01
437.34	5.5323E-01
437.69	5.3401E-01
438.04	5.1186E-01
438.39	5.3727E-01
438.75	5.1801E-01
439.10	5.1133E-01
439.45	5.3846E-01
439.81	5.2543E-01
440.16	5.0589E-01
440.51	5.1332E-01
440.86	5.0584E-01
441.22	5.1270E-01
441.57	5.1903E-01
441.92	4.9372E-01
442.27	5.2591E-01
442.63	5.1607E-01
442.98	5.3093E-01
443.33	5.3161E-01
443.68	5.1487E-01
444.03	4.7894E-01
444.39	4.8425E-01
444.74	5.1020E-01
445.09	5.1290E-01
445.44	5.3511E-01
445.79	4.7321E-01
446.15	5.0173E-01
446.50	5.0362E-01
446.85	4.7335E-01
447.20	4.8017E-01
447.55	5.0355E-01
447.91	5.0276E-01
448.26	4.9214E-01
448.61	4.9287E-01
448.96	4.8796E-01
449.31	4.8531E-01
449.66	5.0591E-01
450.02	4.8976E-01
450.37	4.9112E-01
450.72	4.7824E-01
451.07	5.1368E-01
451.42	5.0643E-01
451.77	4.9167E-01
452.12	4.7827E-01
452.47	5.2032E-01
452.83	4.6589E-01
453.18	5.0215E-01
453.53	4.8089E-01
453.88	4.6388E-01
454.23	4.7213E-01
454.58	4.7999E-01
454.93	4.8332E-01
455.28	4.8392E-01
455.63	4.8022E-01
455.98	4.5798E-01
456.34	4.8043E-01
456.69	4.7465E-01
457.04	4.6224E-01
457.39	4.4904E-01
457.74	4.4727E-01
458.09	4.6051E-01
458.44	4.4443E-01
458.79	4.3265E-01
459.14	4.4461E-01
459.49	4.6549E-01
459.84	4.3821E-01
460.19	4.6733E-01
460.54	4.6282E-01
460.89	4.2926E-01
461.24	4.6758E-01
461.59	4.5504E-01
461.94	4.6063E-01
462.29	4.2570E-01
462.64	4.5558E-01
462.99	4.5554E-01
463.34	4.7285E-01
463.69	4.3781E-01
464.04	4.2866E-01
464.39	4.3742E-01
464.74	4.4232E-01
465.09	4.5130E-01
465.44	4.3895E-01
465.79	4.3833E-01
466.14	4.3923E-01
466.49	4.3566E-01
466.84	4.3966E-01
467.19	4.4464E-01
467.54	4.4458E-01
467.89	4.2181E-01
468.24	4.0966E-01
468.59	4.2347E-01
468.94	4.1347E-01
469.29	4.1506E-01
469.64	4.3125E-01
469.99	4.1214E-01
470.34	3.9656E-01
470.68	4.3121E-01
471.03	4.0185E-01
471.38	4.0598E-01
471.73	3.9593E-01
472.08	3.8592E-01
472.43	3.7809E-01
472.78	3.9296E-01
473.13	3.9314E-01
473.48	3.8281E-01
473.83	3.7651E-01
474.17	3.8346E-01
474.52	3.7940E-01
474.87	3.6209E-01
475.22	3.6719E-01
475.57	3.4859E-01
475.92	3.3656E-01
476.27	3.5742E-01
476.61	3.4192E-01
476.96	3.3790E-01
477.31	3.2136E-01
477.66	3.3101E-01
478.01	3.2629E-01
478.36	3.2217E-01
478.70	3.1944E-01
479.05	3.2450E-01
479.40	3.0774E-01
479.75	3.1004E-01
480.10	3.0691E-01
480.45	3.0335E-01
480.79	3.0210E-01
481.14	3.0963E-01
481.49	3.0119E-01
481.84	2.9257E-01
482.19	2.8857E-01
482.53	2.8870E-01
482.88	2.8761E-01
483.23	2.8329E-01
483.58	2.7857E-01
483.92	2.8490E-01
484.27	2.7249E-01
484.62	2.7337E-01
484.97	2.6818E-01
485.31	2.6388E-01
485.66	2.7059E-01
486.01	2.6889E-01
486.36	2.6223E-01
486.70	2.6608E-01
487.05	2.6447E-01
487.40	2.5891E-01
487.75	2.5148E-01
488.09	2.5569E-01
488.44	2.6290E-01
488.79	2.5241E-01
489.13	2.5417E-01
489.48	2.5472E-01
489.83	2.5643E-01
490.17	2.4843E-01
490.52	2.4893E-01
490.87	2.5024E-01
491.22	2.5261E-01
491.56	2.4819E-01
491.91	2.5205E-01
492.26	2.4943E-01
492.60	2.4851E-01
492.95	2.5006E-01
493.30	2.5225E-01
493.64	2.4711E-01
493.99	2.4943E-01
494.34	2.4746E-01
494.68	2.4304E-01
495.03	2.5022E-01
495.37	2.4635E-01
495.72	2.4865E-01
496.07	2.4464E-01
496.41	2.4783E-01
496.76	2.4607E-01
497.11	2.4783E-01
497.45	2.4621E-01
497.80	2.4788E-01
498.14	2.4820E-01
498.49	2.4824E-01
498.84	2.4736E-01
499.18	2.4598E-01
499.53	2.4901E-01
499.87	2.4728E-01
500.22	2.4968E-01
500.56	2.4784E-01
500.91	2.4654E-01
501.26	2.4808E-01
501.60	2.4772E-01
501.95	2.4421E-01
502.29	2.4599E-01
502.64	2.4643E-01
502.98	2.4796E-01
503.33	2.4845E-01
503.67	2.4682E-01
504.02	2.4583E-01
504.36	2.4390E-01
504.71	2.4584E-01
505.06	2.4588E-01
505.40	2.4543E-01
505.75	2.4336E-01
506.09	2.4385E-01
506.44	2.4239E-01
506.78	2.4408E-01
507.13	2.4391E-01
507.47	2.4170E-01
507.82	2.4070E-01
508.16	2.4113E-01
508.51	2.4021E-01
508.85	2.3966E-01
509.19	2.3940E-01
509.54	2.4257E-01
509.88	2.4073E-01
510.23	2.3852E-01
510.57	2.3761E-01
510.92	2.4117E-01
511.26	2.3872E-01
511.61	2.3874E-01
511.95	2.3912E-01
512.30	2.3737E-01
512.64	2.3817E-01
512.98	2.3759E-01
513.33	2.3710E-01
513.67	2.3734E-01
514.02	2.3573E-01
514.36	2.3517E-01
514.70	2.3610E-01
515.05	2.3505E-01
515.39	2.3568E-01
515.74	2.3316E-01
516.08	2.3554E-01
516.42	2.3341E-01
516.77	2.3396E-01
517.11	2.3246E-01
517.46	2.3476E-01
517.80	2.3237E-01
518.14	2.3323E-01
518.49	2.3298E-01
518.83	2.3061E-01
519.17	2.3444E-01
519.52	2.3196E-01
519.86	2.3149E-01
520.20	2.2949E-01
520.55	2.3109E-01
520.89	2.3185E-01
521.23	2.3162E-01
521.58	2.3127E-01
521.92	2.3521E-01
522.26	2.3332E-01
522.61	2.3040E-01
522.95	2.3161E-01
523.29	2.3150E-01
523.64	2.3054E-01
523.98	2.3082E-01
524.32	2.3287E-01
524.66	2.3231E-01
525.01	2.3405E-01
525.35	2.3414E-01
525.69	2.3456E-01
526.04	2.3505E-01
526.38	2.3148E-01
526.72	2.3458E-01
527.06	2.3425E-01
527.41	2.3784E-01
527.75	2.3836E-01
528.09	2.3519E-01
528.43	2.3701E-01
528.78	2.3482E-01
529.12	2.4112E-01
529.46	2.3909E-01
529.80	2.3895E-01
530.15	2.3976E-01
530.49	2.4108E-01
530.83	2.4206E-01
531.17	2.4207E-01
531.51	2.4269E-01
531.86	2.4366E-01
532.20	2.4580E-01
532.54	2.4577E-01
532.88	2.4591E-01
533.22	2.4718E-01
533.57	2.4763E-01
533.91	2.5010E-01
534.25	2.4996E-01
534.59	2.4874E-01
534.93	2.5029E-01
535.27	2.5125E-01
535.62	2.5341E-01
535.96	2.5533E-01
536.30	2.5544E-01
536.64	2.5594E-01
536.98	2.5688E-01
537.32	2.5712E-01
537.66	2.5643E-01
538.01	2.5993E-01
538.35	2.6167E-01
538.69	2.5937E-01
539.03	2.6493E-01
539.37	2.6149E-01
539.71	2.6336E-01
540.05	2.6372E-01
540.39	2.6419E-01
540.73	2.6653E-01
541.07	2.6467E-01
541.42	2.6471E-01
541.76	2.6533E-01
542.10	2.6558E-01
542.44	2.6747E-01
542.78	2.6782E-01
543.12	2.6788E-01
543.46	2.7348E-01
543.80	2.7025E-01
544.14	2.7139E-01
544.48	2.6863E-01
544.82	2.7149E-01
545.16	2.7150E-01
545.50	2.7033E-01
545.84	2.7508E-01
546.18	2.7213E-01
546.52	2.7514E-01
546.86	2.7119E-01
547.20	2.7405E-01
547.54	2.7927E-01
547.88	2.7435E-01
548.22	2.7534E-01
548.56	2.7596E-01
548.90	2.7406E-01
549.24	2.7788E-01
549.58	2.7713E-01
549.92	2.7735E-01
550.26	2.8043E-01
550.60	2.7863E-01
550.94	2.7444E-01
551.28	2.8127E-01
551.62	2.7871E-01
551.96	2.8106E-01
552.30	2.7994E-01
552.64	2.8174E-01
552.98	2.7947E-01
553.32	2.7970E-01
553.66	2.7804E-01
554.00	2.7886E-01
554.34	2.8171E-01
554.68	2.8262E-01
555.02	2.8154E-01
555.36	2.8122E-01
555.69	2.8385E-01
556.03	2.8298E-01
556.37	2.8292E-01
556.71	2.8176E-01
557.05	2.8036E-01
557.39	2.8208E-01
557.73	2.8137E-01
558.07	2.8320E-01
558.41	2.8193E-01
558.75	2.8302E-01
559.08	2.8340E-01
559.42	2.7916E-01
559.76	2.8325E-01
560.10	2.8247E-01
560.44	2.8317E-01
560.78	2.8067E-01
561.12	2.8231E-01
561.45	2.8312E-01
561.79	2.8364E-01
562.13	2.8242E-01
562.47	2.8248E-01
562.81	2.8661E-01
563.15	2.8590E-01
563.48	2.8409E-01
563.82	2.8199E-01
564.16	2.8457E-01
564.50	2.8538E-01
564.84	2.8514E-01
565.17	2.8487E-01
565.51	2.8164E-01
565.85	2.8523E-01
566.19	2.8414E-01
566.52	2.8576E-01
566.86	2.8456E-01
567.20	2.8581E-01
567.54	2.8785E-01
567.88	2.8501E-01
568.21	2.8711E-01
568.55	2.8606E-01
568.89	2.8662E-01
569.23	2.8846E-01
569.56	2.8603E-01
569.90	2.8654E-01
570.24	2.8868E-01
570.57	2.8775E-01
570.91	2.9009E-01
571.25	2.8838E-01
571.59	2.8884E-01
571.92	2.8871E-01
572.26	2.9024E-01
572.60	2.9300E-01
572.93	2.9108E-01
573.27	2.9457E-01
573.61	2.9464E-01
573.95	2.9072E-01
574.28	2.9474E-01
574.62	2.9465E-01
574.96	2.9512E-01
575.29	2.9366E-01
575.63	2.9735E-01
575.97	2.9680E-01
576.30	3.0436E-01
576.64	2.9891E-01
576.98	3.0015E-01
577.31	3.0250E-01
577.65	3.0284E-01
577.98	3.0243E-01
578.32	3.0635E-01
578.66	3.0516E-01
578.99	3.0965E-01
579.33	3.0889E-01
579.67	3.0901E-01
580.00	3.0941E-01
580.34	3.1282E-01
580.67	3.1208E-01
581.01	3.1251E-01
581.35	3.1539E-01
581.68	3.1641E-01
582.02	3.1574E-01
582.35	3.1626E-01
582.69	3.1838E-01
583.02	3.2364E-01
583.36	3.2111E-01
583.70	3.2020E-01
584.03	3.2276E-01
584.37	3.2308E-01
584.70	3.2714E-01
585.04	3.2810E-01
585.37	3.2536E-01
585.71	3.2950E-01
586.04	3.2876E-01
586.38	3.2691E-01
586.72	3.3159E-01
587.05	3.3101E-01
587.39	3.3257E-01
587.72	3.3169E-01
588.06	3.3470E-01
588.39	3.3337E-01
588.73	3.3918E-01
589.06	3.3778E-01
589.40	3.3901E-01
589.73	3.4094E-01
590.07	3.4314E-01
590.40	3.4451E-01
590.73	3.4869E-01
591.07	3.4520E-01
591.40	3.4652E-01
591.74	3.4330E-01
592.07	3.4885E-01
592.41	3.4937E-01
592.74	3.4784E-01
593.08	3.4963E-01
593.41	3.5098E-01
593.75	3.4759E-01
594.08	3.5521E-01
594.41	3.5094E-01
594.75	3.5468E-01
595.08	3.5428E-01
595.42	3.5060E-01
595.75	3.5329E-01
596.09	3.5331E-01
596.42	3.5376E-01
596.75	3.5679E-01
597.09	3.6011E-01
597.42	3.5461E-01
597.75	3.5848E-01
598.09	3.5841E-01
598.42	3.5631E-01
598.76	3.5995E-01
599.09	3.6021E-01
599.42	3.6263E-01
599.76	3.6257E-01
600.09	3.6251E-01
600.42	3.6475E-01
600.76	3.6136E-01
601.09	3.6350E-01
601.42	3.7055E-01
601.76	3.6403E-01
602.09	3.6422E-01
602.42	3.6577E-01
602.76	3.6660E-01
603.09	3.6347E-01
603.42	3.6648E-01
603.76	3.6521E-01
604.09	3.6622E-01
604.42	3.6648E-01
604.76	3.6689E-01
605.09	3.6998E-01
605.42	3.6735E-01
605.75	3.7004E-01
606.09	3.6891E-01
606.42	3.6770E-01
606.75	3.7108E-01
607.09	3.6983E-01
607.42	3.6962E-01
607.75	3.7168E-01
608.08	3.7181E-01
608.42	3.7290E-01
608.75	3.7063E-01
609.08	3.7519E-01
609.41	3.7404E-01
609.75	3.7294E-01
610.08	3.7335E-01
610.41	3.7414E-01
610.74	3.7390E-01
611.07	3.7606E-01
611.41	3.7202E-01
611.74	3.7668E-01
612.07	3.7995E-01
612.40	3.7398E-01
612.73	3.7454E-01
613.07	3.7963E-01
613.40	3.7528E-01
613.73	3.7500E-01
614.06	3.7744E-01
614.39	3.7864E-01
614.72	3.8096E-01
615.06	3.7840E-01
615.39	3.8390E-01
615.72	3.7867E-01
616.05	3.8370E-01
616.38	3.8022E-01
616.71	3.8282E-01
617.05	3.7876E-01
617.38	3.8367E-01
617.71	3.7771E-01
618.04	3.8470E-01
618.37	3.8042E-01
618.70	3.7898E-01
619.03	3.8399E-01
619.36	3.7555E-01
619.69	3.8436E-01
620.03	3.7848E-01
620.36	3.8243E-01
620.69	3.8114E-01
621.02	3.8217E-01
621.35	3.7943E-01
621.68	3.7811E-01
622.01	3.7717E-01
622.34	3.8068E-01
622.67	3.8004E-01
623.00	3.7953E-01
623.33	3.7846E-01
623.66	3.8017E-01
623.99	3.8025E-01
624.32	3.7627E-01
624.65	3.7882E-01
624.99	3.7895E-01
625.32	3.8143E-01
625.65	3.7717E-01
625.98	3.7561E-01
626.31	3.7960E-01
626.64	3.8096E-01
626.97	3.7888E-01
627.30	3.7649E-01
627.63	3.7814E-01
627.96	3.7958E-01
628.29	3.7435E-01
628.62	3.7996E-01
628.95	3.7893E-01
629.28	3.7261E-01
629.61	3.8368E-01
629.94	3.7812E-01
630.26	3.7990E-01
630.59	3.8296E-01
630.92	3.8012E-01
631.25	3.8248E-01
631.58	3.8575E-01
631.91	3.8037E-01
632.24	3.8879E-01
632.57	3.8471E-01
632.90	3.8690E-01
633.23	3.8717E-01
633.56	3.8783E-01
633.89	3.8842E-01
634.22	3.8835E-01
634.55	3.9076E-01
634.88	3.9599E-01
635.20	3.9174E-01
635.53	3.9615E-01
635.86	3.9619E-01
636.19	4.0044E-01
636.52	4.0138E-01
636.85	4.0299E-01
637.18	4.0636E-01
637.51	4.0582E-01
637.83	4.0620E-01
638.16	4.0386E-01
638.49	4.1165E-01
638.82	4.0927E-01
639.15	4.1458E-01
639.48	4.1715E-01
639.81	4.2094E-01
640.13	4.1609E-01
640.46	4.2357E-01
640.79	4.2056E-01
641.12	4.2798E-01
641.45	4.2391E-01
641.77	4.2443E-01
642.10	4.3208E-01
642.43	4.3404E-01
642.76	4.3578E-01
643.09	4.3180E-01
643.41	4.3701E-01
643.74	4.3904E-01
644.07	4.3773E-01
644.40	4.4045E-01
644.73	4.4487E-01
645.05	4.4847E-01
645.38	4.4828E-01
645.71	4.5458E-01
646.04	4.5322E-01
646.36	4.5184E-01
646.69	4.5995E-01
647.02	4.5949E-01
647.35	4.5871E-01
647.67	4.6227E-01
648.00	4.6094E-01
648.33	4.6836E-01
648.66	4.6455E-01
648.98	4.6894E-01
649.31	4.6832E-01
649.64	4.6963E-01
649.96	4.7285E-01
650.29	4.7931E-01
650.62	4.7757E-01
650.94	4.8001E-01
651.27	4.7908E-01
651.60	4.8182E-01
651.92	4.8580E-01
652.25	4.8908E-01
652.58	4.8609E-01
652.90	4.8920E-01
653.23	4.8962E-01
653.56	4.9369E-01
653.88	4.9624E-01
654.21	4.9393E-01
654.54	4.9797E-01
654.86	5.0306E-01
655.19	4.9493E-01
655.52	5.0437E-01
655.84	5.0039E-01
656.17	5.0687E-01
656.49	5.0767E-01
656.82	5.0569E-01
657.15	5.1022E-01
657.47	5.0919E-01
657.80	5.1245E-01
658.13	5.1129E-01
658.45	5.1465E-01
658.78	5.1802E-01
659.10	5.1814E-01
659.43	5.2303E-01
659.75	5.1890E-01
660.08	5.1986E-01
660.41	5.2472E-01
660.73	5.2421E-01
661.06	5.2696E-01
661.38	5.2629E-01
661.71	5.3066E-01
662.03	5.2696E-01
662.36	5.3280E-01
662.68	5.3445E-01
663.01	5.2718E-01
663.33	5.3677E-01
663.66	5.3927E-01
663.98	5.4027E-01
664.31	5.3391E-01
664.63	5.4492E-01
664.96	5.3604E-01
665.28	5.4166E-01
665.61	5.4075E-01
665.93	5.4682E-01
666.26	5.4567E-01
666.58	5.4872E-01
666.91	5.4688E-01
667.23	5.5171E-01
667.56	5.5025E-01
667.88	5.4903E-01
668.21	5.5463E-01
668.53	5.5329E-01
668.86	5.5528E-01
669.18	5.5315E-01
669.50	5.6297E-01
669.83	5.6386E-01
670.15	5.6509E-01
670.48	5.6602E-01
670.80	5.6122E-01
671.13	5.6154E-01
671.45	5.6702E-01
671.77	5.6559E-01
672.10	5.6443E-01
672.42	5.7365E-01
672.75	5.6695E-01
673.07	5.7513E-01
673.39	5.7438E-01
673.72	5.7450E-01
674.04	5.7934E-01
674.37	5.7865E-01
674.69	5.7739E-01
675.01	5.8168E-01
675.34	5.8313E-01
675.66	5.8523E-01
675.98	5.7798E-01
676.31	5.8732E-01
676.63	5.8780E-01
676.95	5.8677E-01
677.28	5.9174E-01
677.60	5.8985E-01
677.92	5.9416E-01
678.25	5.9795E-01
678.57	5.9843E-01
678.89	5.9804E-01
679.22	5.9928E-01
679.54	5.9849E-01
679.86	6.0319E-01
680.18	6.0250E-01
680.51	6.0109E-01
680.83	6.1686E-01
681.15	6.0984E-01
681.48	6.1087E-01
681.80	6.1208E-01
682.12	6.1013E-01
682.44	6.1885E-01
682.77	6.1736E-01
683.09	6.2181E-01
683.41	6.2173E-01
683.73	6.2725E-01
684.06	6.2762E-01
684.38	6.2548E-01
684.70	6.2836E-01
685.02	6.2774E-01
685.34	6.3484E-01
685.67	6.3071E-01
685.99	6.4380E-01
686.31	6.3811E-01
686.63	6.4452E-01
686.96	6.4738E-01
687.28	6.4920E-01
687.60	6.4746E-01
687.92	6.4927E-01
688.24	6.6039E-01
688.56	6.5916E-01
688.89	6.5698E-01
689.21	6.6194E-01
689.53	6.6173E-01
689.85	6.7300E-01
690.17	6.6787E-01
690.49	6.7670E-01
690.82	6.7668E-01
691.14	6.7992E-01
691.46	6.7792E-01
691.78	6.8545E-01
692.10	6.8252E-01
692.42	6.8722E-01
692.74	6.9128E-01
693.06	6.9355E-01
693.39	7.0002E-01
693.71	7.0822E-01
694.03	7.0241E-01
694.35	7.0271E-01
694.67	7.1458E-01
694.99	7.1525E-01
695.31	7.2019E-01
695.63	7.2041E-01
695.95	7.2120E-01
696.27	7.2288E-01
696.59	7.2543E-01
696.91	7.3416E-01
697.23	7.3877E-01
697.56	7.3950E-01
697.88	7.4391E-01
698.20	7.4263E-01
698.52	7.4563E-01
698.84	7.5591E-01
699.16	7.6100E-01
699.48	7.5841E-01
699.80	7.6152E-01
700.12	7.7473E-01
700.44	7.7063E-01
700.76	7.7422E-01
701.08	7.7951E-01
701.40	7.8350E-01
701.72	7.8459E-01
702.04	7.9089E-01
702.36	7.8999E-01
702.68	7.9701E-01
703.00	8.0770E-01
703.32	8.0140E-01
703.64	8.1041E-01
703.96	8.0077E-01
704.28	8.1263E-01
704.60	8.2495E-01
704.91	8.2177E-01
705.23	8.2924E-01
705.55	8.3504E-01
705.87	8.4034E-01
706.19	8.3867E-01
706.51	8.3687E-01
706.83	8.3504E-01
707.15	8.6706E-01
707.47	8.5597E-01
707.79	8.6064E-01
708.11	8.6572E-01
708.43	8.6753E-01
708.74	8.7322E-01
709.06	8.8274E-01
709.38	8.8244E-01
709.70	8.8432E-01
710.02	8.8983E-01
710.34	8.8391E-01
710.66	8.9996E-01
710.98	9.0330E-01
711.29	9.0881E-01
711.61	9.2509E-01
711.93	9.1980E-01
712.25	9.2007E-01
712.57	9.3145E-01
712.89	9.3749E-01
713.20	9.3962E-01
713.52	9.4812E-01
713.84	9.4962E-01
714.16	9.4403E-01
714.48	9.5342E-01
714.80	9.6704E-01
715.11	9.6256E-01
715.43	9.7512E-01
715.75	9.7368E-01
716.07	9.8999E-01
716.39	9.7260E-01
716.70	9.8569E-01
717.02	9.8214E-01
717.34	1.0101E00
717.66	1.0009E00
717.97	1.0154E00
718.29	1.0248E00
718.61	1.0257E00
718.93	1.0278E00
719.24	1.0316E00
719.56	1.0516E00
719.88	1.0413E00
720.20	1.0617E00
720.51	1.0755E00
720.83	1.0633E00
721.15	1.0822E00
721.46	1.0886E00
721.78	1.0959E00
722.10	1.1084E00
722.42	1.1120E00
722.73	1.1124E00
723.05	1.1141E00
723.37	1.1282E00
723.68	1.1400E00
724.00	1.1391E00
724.32	1.1596E00
724.63	1.1488E00
724.95	1.1633E00
725.27	1.1647E00
725.58	1.1634E00
725.90	1.1589E00
726.22	1.1849E00
726.53	1.1744E00
726.85	1.1845E00
727.16	1.1899E00
727.48	1.1844E00
727.80	1.1961E00
728.11	1.2003E00
728.43	1.2061E00
728.74	1.2035E00
729.06	1.2093E00
729.38	1.2143E00
729.69	1.2122E00
730.01	1.2291E00
730.32	1.2272E00
730.64	1.2292E00
730.96	1.2189E00
731.27	1.2501E00
731.59	1.2347E00
731.90	1.2437E00
732.22	1.2506E00
732.53	1.2602E00
732.85	1.2590E00
733.16	1.2575E00
733.48	1.2534E00
733.80	1.2608E00
734.11	1.2714E00
734.43	1.2877E00
734.74	1.2907E00
735.06	1.2932E00
735.37	1.3048E00
735.69	1.3064E00
736.00	1.2972E00
736.32	1.3129E00
736.63	1.3063E00
736.95	1.3233E00
737.26	1.3336E00
737.58	1.3281E00
737.89	1.3557E00
738.21	1.3417E00
738.52	1.3416E00
738.83	1.3576E00
739.15	1.3456E00
739.46	1.3632E00
739.78	1.3606E00
740.09	1.3733E00
740.41	1.3605E00
740.72	1.3688E00
741.04	1.3671E00
741.35	1.3685E00
741.66	1.3931E00
741.98	1.3826E00
742.29	1.3789E00
742.61	1.3891E00
742.92	1.3941E00
743.23	1.3927E00
743.55	1.3947E00
743.86	1.3947E00
744.18	1.4010E00
744.49	1.4027E00
744.80	1.3929E00
745.12	1.3912E00
745.43	1.4000E00
745.74	1.3968E00
746.06	1.3970E00
746.37	1.3855E00
746.68	1.3995E00
747.00	1.3872E00
747.31	1.4023E00
747.62	1.3856E00
747.94	1.4191E00
748.25	1.4012E00
748.56	1.3986E00
748.88	1.3868E00
749.19	1.4072E00
749.50	1.3926E00
749.82	1.3996E00
750.13	1.4094E00
750.44	1.3975E00
750.75	1.3968E00
751.07	1.4031E00
751.38	1.3932E00
751.69	1.3936E00
752.01	1.4077E00
752.32	1.4167E00
752.63	1.4088E00
752.94	1.4040E00
753.26	1.4108E00
753.57	1.4204E00
753.88	1.4330E00
754.19	1.4135E00
754.51	1.4191E00
754.82	1.4361E00
755.13	1.4347E00
755.44	1.4438E00
755.75	1.4336E00
756.07	1.4418E00
756.38	1.4479E00
756.69	1.4538E00
757.00	1.4528E00
757.31	1.4819E00
757.63	1.4759E00
757.94	1.4835E00
758.25	1.4925E00
758.56	1.4767E00
758.87	1.4931E00
759.18	1.4991E00
759.50	1.5032E00
759.81	1.5076E00
760.12	1.5263E00
760.43	1.5360E00
760.74	1.5477E00
761.05	1.5438E00
761.36	1.5569E00
761.67	1.5622E00
761.99	1.5694E00
762.30	1.5676E00
762.61	1.5860E00
762.92	1.6044E00
763.23	1.6022E00
763.54	1.6263E00
763.85	1.6259E00
764.16	1.6472E00
764.47	1.6642E00
764.78	1.6812E00
765.10	1.6822E00
765.41	1.6867E00
765.72	1.6999E00
766.03	1.7395E00
766.34	1.7465E00
766.65	1.7339E00
766.96	1.7820E00
767.27	1.7718E00
767.58	1.7691E00
767.89	1.7956E00
768.20	1.8155E00
768.51	1.8138E00
768.82	1.8252E00
769.13	1.8395E00
769.44	1.8779E00
769.75	1.8905E00
770.06	1.9112E00
770.37	1.8871E00
770.68	1.9294E00
770.99	1.9512E00
771.30	1.9734E00
771.61	2.0111E00
771.92	2.0034E00
772.23	2.0038E00
772.54	2.0431E00
772.85	2.0341E00
773.16	2.0480E00
773.47	2.0905E00
773.78	2.0713E00
774.09	2.1200E00
774.39	2.1184E00
774.70	2.1540E00
775.01	2.1687E00
775.32	2.1934E00
775.63	2.2076E00
775.94	2.2315E00
776.25	2.2140E00
776.56	2.2512E00
776.87	2.3230E00
777.18	2.2884E00
777.48	2.3308E00
777.79	2.3509E00
778.10	2.3674E00
778.41	2.3835E00
778.72	2.4224E00
779.03	2.4266E00
779.34	2.4542E00
779.65	2.4577E00
779.95	2.4862E00
780.26	2.5053E00
780.57	2.5138E00
780.88	2.5453E00
781.19	2.5597E00
781.50	2.5745E00
781.80	2.6085E00
782.11	2.6431E00
782.42	2.6548E00
782.73	2.6249E00
783.04	2.7211E00
783.34	2.7078E00
783.65	2.7614E00
783.96	2.7703E00
784.27	2.7796E00
784.57	2.7653E00
784.88	2.8162E00
785.19	2.8346E00
785.50	2.8608E00
785.81	2.9069E00
786.11	2.8883E00
786.42	2.9281E00
786.73	2.9872E00
787.04	3.0024E00
787.34	3.0234E00
787.65	2.9891E00
787.96	3.0944E00
788.26	3.0695E00
788.57	3.1517E00
788.88	3.0841E00
789.19	3.2012E00
789.49	3.1835E00
789.80	3.2595E00
790.11	3.2636E00
790.41	3.2393E00
790.72	3.3331E00
791.03	3.3673E00
791.33	3.3475E00
791.64	3.4226E00
791.95	3.4073E00
792.25	3.4677E00
792.56	3.4729E00
792.87	3.4610E00
793.17	3.4845E00
793.48	3.5116E00
793.79	3.6012E00
794.09	3.6169E00
794.40	3.5960E00
794.70	3.5746E00
795.01	3.6906E00
795.32	3.6840E00
795.62	3.7196E00
795.93	3.7382E00
796.23	3.7695E00
796.54	3.7963E00
796.85	3.8425E00
797.15	3.8772E00
797.46	3.8295E00
797.76	3.9276E00
798.07	3.9626E00
798.37	3.9923E00
798.68	4.0228E00
798.99	4.0492E00
799.29	4.0547E00
799.60	4.1395E00
799.90	4.1343E00
800.21	4.2301E00
800.51	4.2184E00
800.82	4.2209E00
801.12	4.2866E00
801.43	4.3216E00
801.73	4.3074E00
802.04	4.4033E00
802.34	4.3958E00
802.65	4.4509E00
802.95	4.5161E00
803.26	4.4992E00
803.56	4.4753E00
803.87	4.5668E00
804.17	4.6360E00
804.48	4.5943E00
804.78	4.6546E00
805.09	4.7445E00
805.39	4.6601E00
805.70	4.7213E00
806.00	4.8014E00
806.30	4.8015E00
806.61	4.8237E00
806.91	4.8367E00
807.22	4.9443E00
807.52	4.9444E00
807.83	4.9592E00
808.13	5.0449E00
808.43	4.9693E00
808.74	5.0283E00
809.04	5.0839E00
809.35	5.1366E00
809.65	5.2085E00
809.95	5.2216E00
810.26	5.3411E00
810.56	5.2575E00
810.86	5.4704E00
811.17	5.3836E00
811.47	5.5344E00
811.77	5.4552E00
812.08	5.4385E00
812.38	5.5661E00
812.69	5.5468E00
812.99	5.5685E00
813.29	5.6368E00
813.59	5.6955E00
813.90	5.8295E00
814.20	5.7605E00
814.50	5.9290E00
814.81	5.7531E00
815.11	5.9917E00
815.41	6.0087E00
815.72	6.0335E00
816.02	6.0806E00
816.32	6.2044E00
816.62	5.9677E00
816.93	6.1660E00
817.23	6.3155E00
817.53	6.1183E00
817.84	6.3197E00
818.14	6.3772E00
818.44	6.3075E00
818.74	6.3461E00
819.04	6.6671E00
819.35	6.5703E00
819.65	6.4360E00
819.95	6.6346E00
820.25	6.7374E00
820.56	6.6174E00
820.86	6.7345E00
821.16	6.7466E00
821.46	6.9581E00
821.76	6.6923E00
822.07	6.8831E00
822.37	7.0325E00
822.67	7.1497E00
822.97	7.2880E00
823.27	7.1396E00
823.57	7.0974E00
823.88	7.2979E00
824.18	7.1626E00
824.48	7.3774E00
824.78	7.6011E00
825.08	7.4132E00
825.38	7.5623E00
825.69	7.5700E00
825.99	7.6002E00
826.29	7.4493E00
826.59	7.6879E00
826.89	7.8589E00
827.19	7.6602E00
827.49	7.9547E00
827.79	7.8698E00
828.09	8.0740E00
828.39	8.0880E00
828.70	8.0694E00
829.00	7.9204E00
829.30	8.0906E00
829.60	8.2622E00
829.90	8.1679E00
830.20	8.2678E00
830.50	8.5257E00
830.80	8.5021E00
831.10	8.4182E00
831.40	8.6095E00
831.70	8.6894E00
832.00	8.7436E00
832.30	8.8072E00
832.60	8.6771E00
832.90	8.8779E00
833.20	8.7915E00
833.50	8.9695E00
833.80	9.0264E00
834.10	9.1595E00
834.40	9.0835E00
834.70	9.2004E00
835.00	9.3275E00
835.30	9.2732E00
835.60	9.4072E00
835.90	9.4922E00
836.20	9.6408E00
836.50	9.6912E00
836.80	9.5371E00
837.10	9.6785E00
837.40	9.7070E00
837.70	9.7896E00
838.00	9.8777E00
838.30	1.0135E01
838.60	1.0000E01
838.90	1.0246E01
839.19	1.0347E01
839.49	1.0539E01
839.79	1.0058E01
840.09	1.0539E01
840.39	1.0334E01
840.69	1.0502E01
840.99	1.0814E01
841.29	1.0704E01
841.59	1.0821E01
841.88	1.1004E01
842.18	1.0881E01
842.48	1.1073E01
842.78	1.1151E01
843.08	1.1317E01
843.38	1.1273E01
843.68	1.1750E01
843.97	1.1610E01
844.27	1.1650E01
844.57	1.1528E01
844.87	1.1607E01
845.17	1.2049E01
845.47	1.1680E01
845.76	1.2132E01
846.06	1.2069E01
846.36	1.2129E01
846.66	1.2115E01
846.96	1.2101E01
847.25	1.2656E01
847.55	1.2310E01
847.85	1.2559E01
848.15	1.2688E01
848.44	1.2674E01
848.74	1.2768E01
849.04	1.3233E01
849.34	1.3014E01
849.63	1.3130E01
849.93	1.3318E01
850.23	1.3387E01
850.53	1.3554E01
850.82	1.3588E01
851.12	1.4029E01
851.42	1.3697E01
851.71	1.3845E01
852.01	1.4039E01
852.31	1.3967E01
852.61	1.4524E01
852.90	1.4147E01
853.20	1.4766E01
853.50	1.4587E01
853.79	1.4659E01
854.09	1.4681E01
854.39	1.5070E01
854.68	1.5263E01
854.98	1.5608E01
855.28	1.5432E01
855.57	1.5421E01
855.87	1.5627E01
856.17	1.5350E01
856.46	1.5865E01
856.76	1.5721E01
857.05	1.6208E01
857.35	1.6512E01
857.65	1.6479E01
857.94	1.6383E01
858.24	1.6313E01
858.53	1.6670E01
858.83	1.7506E01
859.13	1.7158E01
859.42	1.7117E01
859.72	1.7204E01
860.01	1.7666E01
860.31	1.7402E01
860.60	1.8068E01
860.90	1.8074E01
861.20	1.7765E01
861.49	1.8081E01
861.79	1.8327E01
862.08	1.8461E01
862.38	1.8506E01
862.67	1.8855E01
862.97	1.8898E01
863.26	1.9625E01
863.56	1.9509E01
863.85	2.0052E01
864.15	2.0483E01
864.44	2.0178E01
864.74	1.9947E01
865.03	2.0736E01
865.33	2.0910E01
865.62	2.0919E01
865.92	2.0683E01
866.21	2.1042E01
866.51	2.1318E01
866.80	2.1941E01
867.10	2.1365E01
867.39	2.2284E01
867.69	2.2247E01
867.98	2.2641E01
868.27	2.2905E01
868.57	2.3468E01
868.86	2.3165E01
869.16	2.0579E01
869.45	1.9622E01
869.75	1.9261E01
870.04	1.9629E01
870.33	2.0063E01
870.63	2.0189E01
870.92	2.0355E01
871.22	2.1364E01
871.51	2.0892E01
871.80	2.0639E01
872.10	2.0639E01
>>>>>End Processed Spectral Data<<<<<
