SpectraSuite Data File
++++++++++++++++++++++++++++++++++++
Date: Thu May 14 15:03:46 PDT 2015
User: schluterlab
Dark Spectrum Present: Yes
Reference Spectrum Present: Yes
Number of Sampled Component Spectra: 1
Spectrometers: USB2E3373
Integration Time (usec): 3000 (USB2E3373)
Spectra Averaged: 3 (USB2E3373)
Boxcar Smoothing: 0 (USB2E3373)
Correct for Electrical Dark: No (USB2E3373)
Strobe/Lamp Enabled: No (USB2E3373)
Correct for Detector Non-linearity: No (USB2E3373)
Correct for Stray Light: No (USB2E3373)
Number of Pixels in Processed Spectrum: 2048
>>>>>Begin Processed Spectral Data<<<<<
178.53	0.000
178.91	342.857
179.29	-2700.000
179.67	-2400.000
180.04	264.286
180.42	260.000
180.80	760.000
181.18	-2600.000
181.56	-700.000
181.94	700.000
182.31	-550.000
182.69	700.000
183.07	-750.000
183.45	575.000
183.83	-366.667
184.20	-833.333
184.58	1900.000
184.96	-600.000
185.34	-233.333
185.72	-440.000
186.09	444.444
186.47	1450.000
186.85	720.000
187.23	-333.333
187.61	-2600.000
187.98	440.000
188.36	625.000
188.74	-625.000
189.12	-866.667
189.49	-100.000
189.87	-275.000
190.25	-155.556
190.63	-420.000
191.00	-300.000
191.38	0.000
191.76	-725.000
192.14	-333.333
192.51	1350.000
192.89	-366.667
193.27	0.000
193.65	-414.286
194.02	-3900.000
194.40	-371.429
194.78	371.429
195.15	0.000
195.53	-172.727
195.91	0.000
196.29	-625.000
196.66	-238.462
197.04	-2900.000
197.42	-400.000
197.79	-1200.000
198.17	-375.000
198.55	-457.143
198.92	-233.333
199.30	-312.500
199.68	-172.727
200.05	-128.571
200.43	-1150.000
200.81	414.286
201.18	0.000
201.56	344.444
201.94	0.000
202.31	933.333
202.69	-200.000
203.07	2400.000
203.44	-277.778
203.82	-675.000
204.19	-183.333
204.57	-433.333
204.95	-287.500
205.32	-2100.000
205.70	700.000
206.08	-466.667
206.45	-283.333
206.83	680.000
207.20	-400.000
207.58	-540.000
207.96	-433.333
208.33	-316.667
208.71	208.333
209.08	-200.000
209.46	0.000
209.84	416.667
210.21	1150.000
210.59	1100.000
210.96	1033.333
211.34	-375.000
211.71	-275.000
212.09	-2800.000
212.46	0.000
212.84	1600.000
213.22	-560.000
213.59	-425.000
213.97	-150.000
214.34	-866.667
214.72	383.333
215.09	-650.000
215.47	0.000
215.84	485.714
216.22	1700.000
216.59	-340.000
216.97	-420.000
217.34	-500.000
217.72	-162.500
218.09	-625.000
218.47	-1000.000
218.84	0.000
219.22	560.000
219.59	-111.765
219.97	-70.000
220.34	1750.000
220.72	-322.222
221.09	-123.077
221.47	-600.000
221.84	-200.000
222.22	-400.000
222.59	0.000
222.97	-312.500
223.34	-460.000
223.72	-1800.000
224.09	-550.000
224.46	-675.000
224.84	-440.000
225.21	-385.714
225.59	-650.000
225.96	-725.000
226.34	-50.000
226.71	450.000
227.08	-1050.000
227.46	-140.000
227.83	-600.000
228.21	-157.895
228.58	362.500
228.95	800.000
229.33	-175.000
229.70	-270.000
230.08	-84.211
230.45	260.000
230.82	-766.667
231.20	-114.286
231.57	-133.333
231.95	-136.364
232.32	-181.818
232.69	-105.000
233.07	-450.000
233.44	-105.882
233.81	-270.000
234.19	-105.556
234.56	-90.909
234.93	-27.586
235.31	-115.789
235.68	-83.333
236.05	-125.000
236.43	-11.538
236.80	-56.000
237.17	-81.481
237.55	-78.788
237.92	-310.000
238.29	-35.484
238.67	-61.364
239.04	-72.222
239.41	-47.619
239.79	-50.000
240.16	-42.593
240.53	-52.174
240.91	-60.784
241.28	-42.623
241.65	-23.881
242.02	-18.919
242.40	-55.385
242.77	-32.000
243.14	-36.585
243.51	-46.053
243.89	-35.897
244.26	-14.851
244.63	-17.647
245.00	-22.430
245.38	-21.930
245.75	-31.858
246.12	-17.460
246.49	-23.256
246.87	-18.571
247.24	-12.583
247.61	-17.763
247.98	-16.779
248.36	-11.111
248.73	-17.791
249.10	-12.568
249.47	-6.468
249.84	-4.712
250.22	-13.472
250.59	-15.000
250.96	-6.818
251.33	-14.286
251.70	-6.410
252.08	-5.000
252.45	-8.607
252.82	-11.983
253.19	-12.500
253.56	-8.745
253.94	-10.000
254.31	-9.470
254.68	-1.748
255.05	-1.954
255.42	-9.864
255.79	-9.385
256.16	-5.629
256.54	-9.603
256.91	-4.918
257.28	-7.869
257.65	-8.599
258.02	-10.324
258.39	-6.268
258.76	-3.364
259.14	-6.897
259.51	-6.916
259.88	-8.215
260.25	-6.667
260.62	-6.301
260.99	-3.279
261.36	-5.630
261.73	-7.958
262.10	-9.341
262.47	-4.021
262.85	-1.263
263.22	-7.013
263.59	-9.211
263.96	-5.115
264.33	-6.905
264.70	-4.691
265.07	-2.864
265.44	-1.814
265.81	-4.398
266.18	-6.122
266.55	-4.688
266.92	-7.289
267.29	-2.626
267.66	-6.874
268.03	-5.895
268.40	-3.758
268.77	-7.289
269.14	-8.590
269.51	-4.605
269.88	-3.074
270.25	-2.414
270.62	-3.797
270.99	-1.616
271.36	-3.564
271.73	-3.929
272.10	-1.202
272.47	-3.607
272.84	-5.422
273.21	-2.204
273.58	-5.847
273.95	-4.423
274.32	-4.563
274.69	-5.609
275.06	-2.564
275.43	-4.991
275.80	-2.293
276.17	-5.370
276.54	-3.731
276.91	-2.683
277.28	-3.978
277.65	-2.334
278.02	-3.676
278.39	-2.899
278.76	-5.272
279.13	-4.610
279.50	-1.890
279.87	-3.578
280.23	-6.690
280.60	-1.864
280.97	-2.467
281.34	-4.244
281.71	-1.015
282.08	-3.156
282.45	-4.092
282.82	-4.396
283.19	-4.685
283.56	-3.770
283.92	-1.351
284.29	-0.790
284.66	-2.135
285.03	-5.128
285.40	-3.246
285.77	-4.180
286.14	-1.832
286.51	-2.588
286.87	-4.739
287.24	-2.410
287.61	-4.484
287.98	-3.323
288.35	-3.107
288.72	-2.219
289.08	-1.171
289.45	-4.142
289.82	-2.711
290.19	-2.443
290.56	-0.563
290.93	-4.280
291.29	-3.306
291.66	-3.719
292.03	-2.714
292.40	-2.041
292.77	-3.908
293.13	-2.706
293.50	-3.285
293.87	-2.013
294.24	-2.000
294.60	-1.138
294.97	-4.564
295.34	-1.665
295.71	-3.153
296.08	-3.101
296.44	-3.186
296.81	-2.192
297.18	-2.242
297.55	-3.420
297.91	-2.966
298.28	-3.318
298.65	-2.021
299.02	-3.542
299.38	-2.975
299.75	-3.037
300.12	-2.431
300.48	-3.341
300.85	-1.237
301.22	-2.237
301.59	-2.968
301.95	-2.034
302.32	-2.667
302.69	-2.191
303.05	-1.197
303.42	-2.328
303.79	-2.604
304.15	-1.682
304.52	-2.114
304.89	-2.304
305.25	-1.967
305.62	-2.299
305.99	-2.577
306.35	-2.923
306.72	-1.861
307.09	-3.046
307.45	-1.760
307.82	-1.514
308.19	-2.220
308.55	-1.254
308.92	-2.142
309.29	-1.628
309.65	-1.949
310.02	-2.574
310.38	-2.165
310.75	-2.039
311.12	-1.342
311.48	-1.564
311.85	-2.279
312.22	-1.803
312.58	-1.784
312.95	-2.677
313.31	-2.258
313.68	-1.282
314.05	-1.897
314.41	-1.093
314.78	-1.635
315.14	-1.270
315.51	-2.308
315.87	-0.810
316.24	-0.913
316.61	-0.444
316.97	-1.900
317.34	-1.411
317.70	-1.135
318.07	-2.293
318.43	-0.850
318.80	0.836
319.16	-0.944
319.53	-2.399
319.89	-1.490
320.26	-0.356
320.62	-1.418
320.99	-1.293
321.35	-2.126
321.72	-0.279
322.08	-1.172
322.45	-1.807
322.81	-0.812
323.18	-0.619
323.54	-0.345
323.91	-0.979
324.27	-0.775
324.64	-0.084
325.00	-1.990
325.37	-0.082
325.73	-1.074
326.10	-0.324
326.46	0.000
326.83	-0.400
327.19	-0.709
327.56	-0.474
327.92	-0.236
328.29	-0.968
328.65	-0.838
329.01	-1.184
329.38	-0.253
329.74	-0.685
330.11	0.000
330.47	-1.601
330.84	-1.034
331.20	-0.333
331.56	-1.386
331.93	-0.167
332.29	-0.593
332.66	-0.166
333.02	-1.005
333.38	-0.671
333.75	-0.168
334.11	-0.751
334.48	-0.908
334.84	0.935
335.20	-0.420
335.57	0.506
335.93	-0.413
336.29	-0.250
336.66	-0.925
337.02	0.000
337.38	1.020
337.75	-0.331
338.11	-0.168
338.47	-0.331
338.84	-1.438
339.20	-1.601
339.56	-0.741
339.93	-0.082
340.29	0.161
340.65	-0.568
341.02	-0.239
341.38	-0.081
341.74	-0.484
342.11	-0.322
342.47	-0.874
342.83	-0.725
343.20	-0.164
343.56	-0.160
343.92	-0.080
344.28	-0.391
344.65	0.853
345.01	-0.468
345.37	-0.156
345.73	-0.390
346.10	0.936
346.46	0.158
346.82	0.974
347.19	0.306
347.55	0.303
347.91	0.594
348.27	-0.303
348.63	0.838
349.00	-0.149
349.36	0.074
349.72	-0.298
350.08	0.743
350.45	-0.913
350.81	-0.377
351.17	-0.150
351.53	-0.379
351.89	0.759
352.26	-0.373
352.62	0.224
352.98	-0.382
353.34	-0.523
353.70	-0.385
354.07	0.373
354.43	0.000
354.79	-0.823
355.15	-0.221
355.51	0.292
355.87	-0.524
356.24	0.000
356.60	-0.296
356.96	-0.519
357.32	-0.372
357.68	-1.025
358.04	-0.299
358.40	-0.821
358.77	-0.512
359.13	-1.256
359.49	-1.784
359.85	0.218
360.21	0.143
360.57	-0.431
360.93	0.071
361.29	-0.491
361.66	-0.507
362.02	0.974
362.38	-0.562
362.74	-0.559
363.10	0.688
363.46	-0.208
363.82	0.071
364.18	-0.422
364.54	-0.138
364.90	0.000
365.26	-0.621
365.62	0.333
365.98	0.068
366.35	-0.201
366.71	0.816
367.07	-0.271
367.43	0.591
367.79	0.597
368.15	0.736
368.51	0.338
368.87	0.457
369.23	0.400
369.59	0.205
369.95	0.744
370.31	0.540
370.67	-0.206
371.03	0.623
371.39	0.000
371.75	0.069
372.11	0.407
372.47	0.135
372.83	0.262
373.19	0.267
373.55	0.068
373.91	-0.204
374.27	0.259
374.63	0.068
374.99	0.398
375.35	1.039
375.71	-0.194
376.07	0.065
376.42	0.693
376.78	0.497
377.14	1.185
377.50	-0.253
377.86	1.786
378.22	0.778
378.58	0.713
378.94	0.763
379.30	0.469
379.66	0.882
380.02	0.577
380.38	0.864
380.74	0.676
381.09	0.523
381.45	1.477
381.81	1.112
382.17	1.306
382.53	0.994
382.89	1.185
383.25	0.996
383.61	0.521
383.97	1.119
384.32	0.897
384.68	0.638
385.04	1.562
385.40	1.473
385.76	1.348
386.12	0.838
386.48	2.176
386.83	1.192
387.19	0.811
387.55	0.587
387.91	1.199
388.27	1.848
388.62	1.604
388.98	0.959
389.34	1.355
389.70	1.162
390.06	1.776
390.42	1.084
390.77	1.866
391.13	0.998
391.49	1.812
391.85	0.727
392.20	1.305
392.56	1.595
392.92	2.181
393.28	2.101
393.64	1.341
393.99	2.208
394.35	2.103
394.71	1.557
395.07	1.198
395.42	1.599
395.78	1.767
396.14	1.485
396.50	1.722
396.85	1.610
397.21	1.538
397.57	1.943
397.92	2.176
398.28	1.412
398.64	1.773
399.00	1.099
399.35	2.461
399.71	1.413
400.07	1.909
400.42	1.630
400.78	1.273
401.14	2.390
401.49	1.933
401.85	1.570
402.21	1.622
402.57	1.174
402.92	2.305
403.28	1.112
403.63	0.537
403.99	1.306
404.35	2.047
404.70	2.210
405.06	1.957
405.42	1.698
405.77	1.472
406.13	2.323
406.49	1.520
406.84	1.939
407.20	1.174
407.55	0.909
407.91	1.697
408.27	1.885
408.62	1.513
408.98	1.625
409.34	0.938
409.69	1.545
410.05	2.579
410.40	2.262
410.76	2.187
411.11	1.520
411.47	2.396
411.83	2.116
412.18	1.325
412.54	1.778
412.89	2.212
413.25	1.411
413.60	2.355
413.96	1.107
414.31	1.926
414.67	1.849
415.03	1.785
415.38	1.009
415.74	1.405
416.09	1.851
416.45	1.064
416.80	0.979
417.16	1.724
417.51	1.557
417.87	2.023
418.22	1.198
418.58	2.292
418.93	2.095
419.29	1.295
419.64	1.561
420.00	1.543
420.35	1.909
420.71	2.068
421.06	1.380
421.42	1.089
421.77	1.562
422.12	2.061
422.48	1.843
422.83	2.355
423.19	1.910
423.54	1.825
423.90	1.712
424.25	2.293
424.61	1.033
424.96	1.647
425.31	2.654
425.67	1.771
426.02	1.605
426.38	1.952
426.73	0.949
427.09	2.480
427.44	1.966
427.79	1.714
428.15	1.712
428.50	1.461
428.85	2.239
429.21	2.766
429.56	1.925
429.92	1.474
430.27	2.265
430.62	2.394
430.98	1.722
431.33	1.711
431.68	1.868
432.04	1.778
432.39	1.982
432.74	1.769
433.10	1.568
433.45	1.839
433.80	1.502
434.16	2.273
434.51	2.055
434.86	1.520
435.22	1.753
435.57	1.828
435.92	1.836
436.28	1.877
436.63	1.966
436.98	1.825
437.34	1.917
437.69	2.367
438.04	2.010
438.39	2.700
438.75	1.716
439.10	2.696
439.45	1.733
439.81	1.638
440.16	2.306
440.51	2.620
440.86	1.890
441.22	2.036
441.57	2.254
441.92	2.231
442.27	2.525
442.63	2.136
442.98	2.615
443.33	2.262
443.68	3.122
444.03	3.198
444.39	2.589
444.74	2.552
445.09	2.686
445.44	2.266
445.79	2.395
446.15	2.569
446.50	2.171
446.85	3.064
447.20	3.337
447.55	2.772
447.91	2.094
448.26	2.378
448.61	2.497
448.96	2.521
449.31	2.439
449.66	2.288
450.02	2.743
450.37	3.037
450.72	2.314
451.07	2.392
451.42	2.831
451.77	2.057
452.12	2.765
452.47	2.198
452.83	2.477
453.18	2.393
453.53	1.723
453.88	2.982
454.23	2.825
454.58	3.018
454.93	2.245
455.28	2.468
455.63	2.445
455.98	3.017
456.34	2.945
456.69	2.646
457.04	1.950
457.39	2.882
457.74	2.740
458.09	2.252
458.44	2.856
458.79	3.043
459.14	3.356
459.49	2.773
459.84	2.781
460.19	2.554
460.54	2.328
460.89	2.541
461.24	2.241
461.59	3.154
461.94	1.654
462.29	2.968
462.64	2.293
462.99	2.825
463.34	2.661
463.69	2.814
464.04	3.224
464.39	3.251
464.74	2.509
465.09	2.018
465.44	2.843
465.79	3.437
466.14	3.075
466.49	3.053
466.84	2.755
467.19	3.179
467.54	3.290
467.89	2.356
468.24	3.435
468.59	1.679
468.94	2.273
469.29	2.819
469.64	2.734
469.99	2.613
470.34	1.980
470.68	2.461
471.03	2.620
471.38	3.270
471.73	2.341
472.08	3.173
472.43	3.010
472.78	2.645
473.13	1.960
473.48	3.444
473.83	2.960
474.17	2.989
474.52	2.586
474.87	2.990
475.22	3.437
475.57	3.167
475.92	2.738
476.27	3.514
476.61	3.011
476.96	2.920
477.31	3.069
477.66	3.148
478.01	2.745
478.36	2.841
478.70	3.153
479.05	3.272
479.40	3.110
479.75	3.602
480.10	3.316
480.45	3.008
480.79	3.356
481.14	3.401
481.49	2.272
481.84	4.003
482.19	3.656
482.53	3.105
482.88	3.589
483.23	3.112
483.58	3.188
483.92	3.059
484.27	2.964
484.62	3.053
484.97	3.460
485.31	3.379
485.66	3.430
486.01	3.453
486.36	3.704
486.70	4.110
487.05	3.962
487.40	3.993
487.75	3.817
488.09	3.325
488.44	3.298
488.79	3.811
489.13	3.186
489.48	2.641
489.83	3.421
490.17	2.835
490.52	3.325
490.87	3.384
491.22	2.816
491.56	3.541
491.91	3.663
492.26	3.202
492.60	3.148
492.95	3.466
493.30	3.227
493.64	3.154
493.99	3.377
494.34	3.136
494.68	3.212
495.03	3.040
495.37	3.151
495.72	3.265
496.07	3.199
496.41	3.132
496.76	3.169
497.11	3.270
497.45	2.762
497.80	3.598
498.14	3.265
498.49	3.631
498.84	3.291
499.18	3.149
499.53	3.677
499.87	3.736
500.22	2.404
500.56	3.419
500.91	3.158
501.26	4.000
501.60	2.740
501.95	3.083
502.29	2.984
502.64	3.323
502.98	3.192
503.33	2.894
503.67	2.529
504.02	3.327
504.36	3.530
504.71	3.261
505.06	3.774
505.40	3.108
505.75	3.188
506.09	3.545
506.44	3.203
506.78	3.761
507.13	3.504
507.47	3.553
507.82	3.220
508.16	3.155
508.51	3.188
508.85	3.212
509.19	3.790
509.54	3.650
509.88	3.254
510.23	3.351
510.57	4.302
510.92	2.806
511.26	3.367
511.61	2.897
511.95	3.075
512.30	3.791
512.64	3.048
512.98	3.102
513.33	3.226
513.67	2.805
514.02	3.321
514.36	3.785
514.70	3.073
515.05	3.493
515.39	3.045
515.74	4.030
516.08	2.694
516.42	4.029
516.77	2.892
517.11	3.249
517.46	4.083
517.80	3.688
518.14	3.863
518.49	3.688
518.83	3.193
519.17	2.908
519.52	3.721
519.86	4.118
520.20	3.727
520.55	3.560
520.89	3.378
521.23	3.350
521.58	3.616
521.92	3.683
522.26	2.806
522.61	3.299
522.95	3.287
523.29	2.759
523.64	3.363
523.98	3.708
524.32	3.553
524.66	3.301
525.01	3.058
525.35	2.527
525.69	3.538
526.04	3.272
526.38	3.391
526.72	2.999
527.06	3.226
527.41	3.382
527.75	3.563
528.09	3.542
528.43	3.552
528.78	3.237
529.12	3.326
529.46	2.979
529.80	3.890
530.15	3.652
530.49	3.025
530.83	3.424
531.17	3.166
531.51	2.948
531.86	3.606
532.20	3.537
532.54	3.291
532.88	3.273
533.22	3.830
533.57	3.982
533.91	4.321
534.25	2.996
534.59	3.563
534.93	3.056
535.27	3.549
535.62	4.264
535.96	2.673
536.30	3.114
536.64	3.243
536.98	3.137
537.32	3.519
537.66	2.932
538.01	3.686
538.35	3.106
538.69	3.365
539.03	3.311
539.37	3.946
539.71	3.483
540.05	3.657
540.39	3.056
540.73	3.279
541.07	3.924
541.42	3.426
541.76	2.847
542.10	3.438
542.44	2.801
542.78	3.224
543.12	3.576
543.46	3.968
543.80	3.118
544.14	2.693
544.48	3.546
544.82	3.770
545.16	3.101
545.50	3.775
545.84	3.246
546.18	3.889
546.52	3.248
546.86	3.585
547.20	3.053
547.54	3.184
547.88	3.014
548.22	2.807
548.56	3.394
548.90	2.507
549.24	3.343
549.58	3.028
549.92	3.508
550.26	3.948
550.60	3.255
550.94	3.428
551.28	2.970
551.62	3.437
551.96	3.689
552.30	3.952
552.64	3.298
552.98	3.493
553.32	3.280
553.66	3.408
554.00	3.216
554.34	3.861
554.68	2.970
555.02	3.482
555.36	4.274
555.69	2.947
556.03	3.090
556.37	3.630
556.71	3.107
557.05	3.387
557.39	3.384
557.73	3.501
558.07	3.245
558.41	3.588
558.75	2.907
559.08	3.479
559.42	3.018
559.76	3.664
560.10	3.282
560.44	3.628
560.78	3.875
561.12	3.571
561.45	3.102
561.79	3.785
562.13	3.081
562.47	2.836
562.81	2.911
563.15	2.462
563.48	3.294
563.82	3.023
564.16	2.665
564.50	2.443
564.84	3.717
565.17	3.647
565.51	2.992
565.85	3.385
566.19	3.111
566.52	3.160
566.86	3.169
567.20	3.589
567.54	3.399
567.88	3.364
568.21	4.249
568.55	3.501
568.89	3.677
569.23	3.591
569.56	3.439
569.90	3.920
570.24	3.811
570.57	3.464
570.91	3.246
571.25	3.327
571.59	4.286
571.92	3.385
572.26	3.335
572.60	3.767
572.93	3.869
573.27	3.793
573.61	3.812
573.95	3.933
574.28	3.854
574.62	3.502
574.96	3.463
575.29	3.525
575.63	3.604
575.97	3.904
576.30	3.430
576.64	3.555
576.98	3.576
577.31	3.701
577.65	3.673
577.98	3.671
578.32	3.548
578.66	3.600
578.99	3.502
579.33	3.713
579.67	3.445
580.00	3.461
580.34	4.014
580.67	3.641
581.01	3.678
581.35	3.624
581.68	3.620
582.02	4.007
582.35	4.012
582.69	3.712
583.02	3.756
583.36	3.779
583.70	3.681
584.03	3.600
584.37	3.777
584.70	3.399
585.04	3.697
585.37	3.734
585.71	3.689
586.04	3.743
586.38	3.923
586.72	3.309
587.05	3.274
587.39	3.790
587.72	3.756
588.06	3.965
588.39	4.132
588.73	3.730
589.06	4.063
589.40	3.565
589.73	3.631
590.07	3.680
590.40	4.260
590.73	3.747
591.07	4.021
591.40	3.383
591.74	3.339
592.07	3.613
592.41	2.642
592.74	3.869
593.08	4.172
593.41	4.083
593.75	3.937
594.08	3.847
594.41	3.846
594.75	3.520
595.08	3.432
595.42	3.831
595.75	4.294
596.09	4.033
596.42	3.905
596.75	3.744
597.09	4.081
597.42	3.774
597.75	3.802
598.09	4.206
598.42	4.061
598.76	3.439
599.09	3.738
599.42	3.654
599.76	3.698
600.09	4.071
600.42	4.371
600.76	3.699
601.09	4.016
601.42	3.536
601.76	4.276
602.09	3.717
602.42	3.453
602.76	3.506
603.09	3.451
603.42	3.613
603.76	3.171
604.09	3.903
604.42	4.073
604.76	3.615
605.09	3.909
605.42	3.549
605.75	3.692
606.09	3.695
606.42	3.575
606.75	3.186
607.09	3.456
607.42	3.430
607.75	3.439
608.08	3.788
608.42	3.628
608.75	4.022
609.08	3.693
609.41	3.794
609.75	2.991
610.08	3.606
610.41	3.356
610.74	3.361
611.07	3.242
611.41	3.857
611.74	3.510
612.07	3.647
612.40	2.804
612.73	3.178
613.07	3.276
613.40	3.080
613.73	3.755
614.06	3.435
614.39	3.207
614.72	2.960
615.06	3.657
615.39	2.755
615.72	3.175
616.05	3.448
616.38	3.431
616.71	3.292
617.05	3.408
617.38	3.959
617.71	2.916
618.04	3.670
618.37	3.716
618.70	3.224
619.03	2.927
619.36	2.836
619.69	3.203
620.03	3.202
620.36	3.436
620.69	3.146
621.02	3.018
621.35	3.628
621.68	3.615
622.01	2.918
622.34	2.092
622.67	3.230
623.00	1.822
623.33	2.389
623.66	3.632
623.99	2.502
624.32	4.418
624.65	3.346
624.99	3.121
625.32	3.658
625.65	3.574
625.98	2.508
626.31	3.047
626.64	2.637
626.97	2.251
627.30	1.670
627.63	2.926
627.96	4.054
628.29	2.646
628.62	1.931
628.95	2.103
629.28	1.614
629.61	2.104
629.94	1.757
630.26	1.271
630.59	2.850
630.92	1.905
631.25	3.041
631.58	3.202
631.91	1.125
632.24	1.921
632.57	1.898
632.90	1.003
633.23	3.061
633.56	2.653
633.89	2.066
634.22	2.183
634.55	2.923
634.88	0.758
635.20	1.722
635.53	1.808
635.86	1.842
636.19	3.606
636.52	2.110
636.85	2.451
637.18	2.183
637.51	2.151
637.83	2.547
638.16	2.189
638.49	1.526
638.82	1.466
639.15	1.145
639.48	1.963
639.81	2.194
640.13	2.591
640.46	0.000
640.79	-0.490
641.12	1.988
641.45	0.753
641.77	2.567
642.10	0.262
642.43	3.723
642.76	2.439
643.09	0.548
643.41	-0.140
643.74	1.931
644.07	1.793
644.40	0.990
644.73	1.451
645.05	0.147
645.38	1.007
645.71	0.733
646.04	3.300
646.36	1.168
646.69	1.534
647.02	2.294
647.35	1.374
647.67	2.415
648.00	-0.159
648.33	1.952
648.66	1.569
648.98	1.769
649.31	1.894
649.64	3.054
649.96	0.928
650.29	-0.139
650.62	1.980
650.94	1.201
651.27	-1.198
651.60	1.462
651.92	0.152
652.25	1.447
652.58	2.613
652.90	-0.291
653.23	0.986
653.56	0.428
653.88	2.949
654.21	3.099
654.54	1.301
654.86	2.125
655.19	1.506
655.52	2.793
655.84	3.845
656.17	4.462
656.49	6.400
656.82	6.940
657.15	5.483
657.47	4.164
657.80	2.994
658.13	2.383
658.45	2.999
658.78	3.321
659.10	3.115
659.43	2.753
659.75	2.108
660.08	1.849
660.41	2.316
660.73	0.570
661.06	-0.881
661.38	0.797
661.71	1.207
662.03	0.882
662.36	2.326
662.68	1.876
663.01	0.708
663.33	1.512
663.66	2.747
663.98	-0.192
664.31	-0.750
664.63	-0.771
664.96	2.722
665.28	-1.089
665.61	3.147
665.93	-0.179
666.26	0.358
666.58	-0.738
666.91	1.869
667.23	0.571
667.56	0.000
667.88	-1.400
668.21	-2.930
668.53	-1.931
668.86	-0.589
669.18	-2.037
669.50	-1.193
669.83	-2.200
670.15	-0.394
670.48	1.587
670.80	0.191
671.13	-0.567
671.45	0.591
671.77	1.507
672.10	-0.667
672.42	0.485
672.75	0.461
673.07	1.642
673.39	-0.924
673.72	1.678
674.04	1.897
674.37	0.716
674.69	1.940
675.01	-0.571
675.34	-1.718
675.66	-2.060
675.98	0.560
676.31	-0.586
676.63	2.471
676.95	2.299
677.28	0.000
677.60	-0.591
677.92	1.536
678.25	1.463
678.57	0.356
678.89	0.171
679.22	-1.220
679.54	1.709
679.86	-0.339
680.18	-0.663
680.51	0.943
680.83	0.000
681.15	-0.517
681.48	0.000
681.80	1.209
682.12	-0.874
682.44	1.503
682.77	-0.887
683.09	-0.189
683.41	0.581
683.73	0.569
684.06	-0.923
684.38	-0.894
684.70	-0.359
685.02	1.893
685.34	0.166
685.67	-1.262
685.99	0.613
686.31	-0.145
686.63	-0.316
686.96	0.473
687.28	-0.651
687.60	-1.852
687.92	-1.768
688.24	0.668
688.56	-2.069
688.89	-0.181
689.21	-1.370
689.53	-1.961
689.85	-1.381
690.17	-2.037
690.49	-1.195
690.82	-1.188
691.14	-2.429
691.46	0.574
691.78	0.552
692.10	-0.183
692.42	-1.607
692.74	0.000
693.06	-2.963
693.39	-0.569
693.71	-0.940
694.03	-0.372
694.35	-0.571
694.67	-1.848
694.99	-0.213
695.31	-0.442
695.63	0.000
695.95	0.828
696.27	-3.956
696.59	0.442
696.91	-3.153
697.23	1.099
697.56	-3.870
697.88	-2.083
698.20	-0.753
698.52	0.000
698.84	-0.832
699.16	0.816
699.48	-1.464
699.80	-1.489
700.12	-1.747
700.44	-3.687
700.76	-1.425
701.08	-0.969
701.40	-2.591
701.72	-1.990
702.04	-3.209
702.36	-2.618
702.68	-0.489
703.00	-1.222
703.32	-2.463
703.64	-1.222
703.96	-0.716
704.28	-2.948
704.60	-2.785
704.91	-3.061
705.23	-3.288
705.55	-1.393
705.87	-3.939
706.19	-2.761
706.51	-8.133
706.83	-3.458
707.15	-2.910
707.47	-2.103
707.79	-1.092
708.11	-4.237
708.43	-1.505
708.74	-4.464
709.06	-1.856
709.38	-0.235
709.70	-0.496
710.02	-3.101
710.34	-1.596
710.66	-5.587
710.98	-3.552
711.29	-3.297
711.61	-4.237
711.93	-2.849
712.25	-2.703
712.57	-1.180
712.89	-3.529
713.20	-4.438
713.52	-1.734
713.84	-1.114
714.16	-1.316
714.48	-2.062
714.80	-2.597
715.11	-4.462
715.43	-3.979
715.75	0.000
716.07	-3.039
716.39	-0.546
716.70	-3.012
717.02	-4.918
717.34	-6.620
717.66	-5.034
717.97	-9.247
718.29	-5.842
718.61	-7.237
718.93	-5.502
719.24	-2.174
719.56	-1.840
719.88	-2.402
720.20	-5.484
720.51	-3.727
720.83	-2.813
721.15	-6.250
721.46	-11.301
721.78	-5.000
722.10	-5.502
722.42	-8.054
722.73	-4.516
723.05	-7.719
723.37	-4.167
723.68	-4.301
724.00	-3.610
724.32	-7.042
724.63	-4.545
724.95	-4.255
725.27	-4.878
725.58	-9.187
725.90	-4.483
726.22	-4.389
726.53	-6.169
726.85	-4.088
727.16	-4.230
727.48	-3.364
727.80	-2.649
728.11	-7.067
728.43	-3.030
728.74	-9.699
729.06	-11.921
729.38	-2.273
729.69	-6.711
730.01	-3.869
730.32	-6.667
730.64	-3.145
730.96	-2.795
731.27	-3.631
731.59	-1.374
731.90	-2.338
732.22	-2.604
732.53	-4.420
732.85	-3.429
733.16	-2.053
733.48	-3.963
733.80	-0.557
734.11	-5.983
734.43	-1.892
734.74	-3.291
735.06	-3.769
735.37	-5.405
735.69	-5.946
736.00	-1.977
736.32	-1.887
736.63	-2.222
736.95	-5.172
737.26	-4.848
737.58	-7.879
737.89	1.176
738.21	-5.505
738.52	-6.885
738.83	-5.461
739.15	-7.801
739.46	-3.061
739.78	-5.828
740.09	-2.865
740.41	-2.624
740.72	-4.333
741.04	-3.560
741.35	-3.509
741.66	-9.020
741.98	-5.328
742.29	-7.950
742.61	-6.579
742.92	-6.154
743.23	-3.610
743.55	-8.527
743.86	-8.400
744.18	-10.331
744.49	-7.595
744.80	-2.469
745.12	-7.595
745.43	-2.439
745.74	-8.190
746.06	-5.085
746.37	-5.907
746.68	-2.439
747.00	-7.500
747.31	-9.871
747.62	-4.615
747.94	-6.883
748.25	-10.040
748.56	-11.837
748.88	-7.265
749.19	-5.172
749.50	-9.957
749.82	-2.811
750.13	-4.626
750.44	-4.667
750.75	-5.231
751.07	-4.923
751.38	-4.416
751.69	-5.431
752.01	-6.149
752.32	-4.248
752.63	-7.823
752.94	-4.844
753.26	-6.320
753.57	-10.370
753.88	-7.865
754.19	-1.608
754.51	-4.180
754.82	-2.894
755.13	-4.918
755.44	-3.072
755.75	-3.618
756.07	-2.090
756.38	-5.975
756.69	-5.723
757.00	-6.371
757.31	-6.557
757.63	-4.604
757.94	-3.521
758.25	-3.386
758.56	-3.268
758.87	-2.727
759.18	-3.733
759.50	-1.700
759.81	-2.801
760.12	-3.235
760.43	-2.083
760.74	-0.246
761.05	-2.500
761.36	-5.783
761.67	-6.853
761.99	-4.595
762.30	-4.878
762.61	-4.620
762.92	-6.716
763.23	-4.494
763.54	-5.036
763.85	-4.467
764.16	-3.704
764.47	-6.338
764.78	-5.431
765.10	-3.519
765.41	-3.333
765.72	-4.497
766.03	-2.542
766.34	-8.150
766.65	-6.620
766.96	-4.781
767.27	-6.452
767.58	-15.423
767.89	-8.654
768.20	-6.573
768.51	-9.722
768.82	-4.016
769.13	-6.818
769.44	-8.077
769.75	-4.693
770.06	-4.231
770.37	0.000
770.68	-13.191
770.99	-9.717
771.30	-1.481
771.61	-7.985
771.92	-6.296
772.23	-9.717
772.54	-12.037
772.85	-4.608
773.16	-8.095
773.47	-17.989
773.78	-15.135
774.09	-11.364
774.39	-8.000
774.70	-9.836
775.01	-14.024
775.32	-8.235
775.63	-12.270
775.94	-19.108
776.25	-10.323
776.56	-7.051
776.87	-9.524
777.18	-11.724
777.48	-13.287
777.79	-10.135
778.10	-16.912
778.41	-7.639
778.72	-11.724
779.03	-9.259
779.34	-5.455
779.65	-6.736
779.95	-10.000
780.26	-11.364
780.57	-11.613
780.88	-10.870
781.19	-10.968
781.50	-4.706
781.80	-11.290
782.11	-7.937
782.42	-9.596
782.73	-14.371
783.04	-6.145
783.34	-15.758
783.65	-16.340
783.96	-12.422
784.27	-11.905
784.57	-11.258
784.88	-15.000
785.19	-18.110
785.50	-19.685
785.81	-12.030
786.11	-10.000
786.42	-13.669
786.73	-17.266
787.04	-7.519
787.34	-20.492
787.65	-17.600
787.96	-11.940
788.26	-11.189
788.57	-9.091
788.88	-15.132
789.19	-10.458
789.49	-13.014
789.80	-17.730
790.11	-11.024
790.41	-13.281
790.72	-13.559
791.03	-27.184
791.33	-9.565
791.64	-7.895
791.95	-21.429
792.25	-30.476
792.56	-14.286
792.87	-37.500
793.17	-14.286
793.48	-21.875
793.79	-36.145
794.09	-15.596
794.40	-27.523
794.70	-14.966
795.01	-12.338
795.32	-18.493
795.62	-11.268
795.93	-18.182
796.23	-17.213
796.54	-21.429
796.85	-26.596
797.15	-22.826
797.46	-43.836
797.76	-32.500
798.07	-18.478
798.37	-30.928
798.68	-45.455
798.99	-24.138
799.29	-15.730
799.60	-25.532
799.90	-30.120
800.21	-49.231
800.51	-31.343
800.82	-47.059
801.12	-56.164
801.43	-51.471
801.73	-59.322
802.04	-40.909
802.34	-50.000
802.65	-33.898
802.95	-34.328
803.26	-32.203
803.56	-26.027
803.87	-20.000
804.17	-12.329
804.48	-73.684
804.78	-31.944
805.09	-34.483
805.39	-22.973
805.70	-46.479
806.00	-30.488
806.30	-22.892
806.61	-45.205
806.91	-12.500
807.22	-23.333
807.52	-28.736
807.83	-37.500
808.13	-26.506
808.43	-23.596
808.74	-26.250
809.04	-54.412
809.35	-40.000
809.65	-31.429
809.95	-30.137
810.26	-47.368
810.56	-43.103
810.86	-30.882
811.17	-40.351
811.47	-44.262
811.77	-77.778
812.08	-44.068
812.38	-40.000
812.69	-24.138
812.99	-49.057
813.29	-89.744
813.59	-30.000
813.90	-42.105
814.20	-32.727
814.50	-19.718
814.81	-25.641
815.11	-26.230
815.41	-37.313
815.72	-36.207
816.02	-42.857
816.32	-51.111
816.62	-40.909
816.93	-48.889
817.23	-37.037
817.53	-51.064
817.84	-40.476
818.14	-64.706
818.44	-46.939
818.74	-33.333
819.04	-82.051
819.35	-105.714
819.65	-130.769
819.95	-37.736
820.25	-37.778
820.56	-66.667
820.86	-65.625
821.16	-82.051
821.46	-74.419
821.76	-50.000
822.07	-35.714
822.37	-56.522
822.67	-61.702
822.97	-94.595
823.27	-65.000
823.57	-61.224
823.88	-42.222
824.18	-37.500
824.48	-80.000
824.78	-80.000
825.08	-60.606
825.38	-46.667
825.69	-46.809
825.99	-41.667
826.29	-100.000
826.59	-71.795
826.89	-67.442
827.19	-50.000
827.49	-73.529
827.79	-27.083
828.09	-59.459
828.39	-90.000
828.70	-58.537
829.00	-53.488
829.30	-107.143
829.60	-79.412
829.90	-39.130
830.20	-65.714
830.50	-93.103
830.80	-122.222
831.10	-65.385
831.40	-55.882
831.70	-104.762
832.00	-64.516
832.30	-264.706
832.60	-120.833
832.90	-223.077
833.20	-131.579
833.50	-115.000
833.80	-157.895
834.10	-171.429
834.40	-77.778
834.70	-56.250
835.00	-82.857
835.30	-61.765
835.60	-80.000
835.90	-80.000
836.20	-113.636
836.50	-104.000
836.80	-103.030
837.10	-103.704
837.40	-96.296
837.70	-181.250
838.00	-50.000
838.30	-156.522
838.60	-100.000
838.90	-150.000
839.19	-160.870
839.49	-175.000
839.79	-130.435
840.09	-218.750
840.39	-165.000
840.69	-70.968
840.99	-96.429
841.29	-173.333
841.59	-136.842
841.88	-46.154
842.18	-96.154
842.48	-220.000
842.78	-120.000
843.08	-46.667
843.38	-74.194
843.68	-194.444
843.97	-70.588
844.27	-112.500
844.57	-147.368
844.87	-420.000
845.17	-146.667
845.47	-128.571
845.76	-128.571
846.06	-377.778
846.36	-152.941
846.66	-88.462
846.96	-246.667
847.25	-158.824
847.55	-100.000
847.85	-105.000
848.15	-111.765
848.44	-254.545
848.74	-123.810
849.04	-100.000
849.34	-143.750
849.63	-73.913
849.93	1700.000
850.23	-146.667
850.53	-76.923
850.82	-181.818
851.12	-63.636
851.42	-209.091
851.71	-115.385
852.01	-150.000
852.31	-153.846
852.61	-94.737
852.90	-158.333
853.20	-116.667
853.50	-255.556
853.79	-157.143
854.09	-150.000
854.39	-325.000
854.68	-93.548
854.98	-107.692
855.28	-94.444
855.57	-96.429
855.87	-92.000
856.17	-95.455
856.46	-81.481
856.76	-138.889
857.05	-152.174
857.35	-116.667
857.65	-169.231
857.94	-66.667
858.24	-70.370
858.53	-86.957
858.83	-158.824
859.13	-141.176
859.42	-135.294
859.72	-164.286
860.01	-150.000
860.31	-388.889
860.60	-260.000
860.90	-126.667
861.20	-144.444
861.49	-176.923
861.79	-83.333
862.08	-215.385
862.38	-43.750
862.67	-152.941
862.97	-137.500
863.26	-344.444
863.56	-140.000
863.85	-290.909
864.15	-127.778
864.44	-1033.333
864.74	-100.000
865.03	-212.500
865.33	-280.000
865.62	-58.065
865.92	-59.091
866.21	-82.609
866.51	-114.286
866.80	-580.000
867.10	-233.333
867.39	-200.000
867.69	3000.000
867.98	-228.571
868.27	-41.176
868.57	-3700.000
868.86	-340.000
869.16	-123.810
869.45	-104.167
869.75	-218.182
870.04	-300.000
870.33	-241.667
870.63	-471.429
870.92	-625.000
871.22	-412.500
871.51	-209.091
871.80	-1066.667
872.10	-1550.000
>>>>>End Processed Spectral Data<<<<<
