SpectraSuite Data File
++++++++++++++++++++++++++++++++++++
Date: Thu May 14 15:05:09 PDT 2015
User: schluterlab
Dark Spectrum Present: Yes
Reference Spectrum Present: Yes
Number of Sampled Component Spectra: 1
Spectrometers: USB2E3373
Integration Time (usec): 3000 (USB2E3373)
Spectra Averaged: 3 (USB2E3373)
Boxcar Smoothing: 0 (USB2E3373)
Correct for Electrical Dark: No (USB2E3373)
Strobe/Lamp Enabled: No (USB2E3373)
Correct for Detector Non-linearity: No (USB2E3373)
Correct for Stray Light: No (USB2E3373)
Number of Pixels in Processed Spectrum: 2048
>>>>>Begin Processed Spectral Data<<<<<
178.53	0.000
178.91	242.857
179.29	-3100.000
179.67	-3100.000
180.04	314.286
180.42	240.000
180.80	540.000
181.18	-2400.000
181.56	-1600.000
181.94	600.000
182.31	-475.000
182.69	700.000
183.07	-1300.000
183.45	700.000
183.83	-383.333
184.20	-766.667
184.58	2000.000
184.96	-750.000
185.34	-266.667
185.72	-380.000
186.09	433.333
186.47	1250.000
186.85	740.000
187.23	-366.667
187.61	-3700.000
187.98	560.000
188.36	725.000
188.74	-675.000
189.12	-1233.333
189.49	-118.750
189.87	-425.000
190.25	-266.667
190.63	-540.000
191.00	-344.444
191.38	0.000
191.76	-675.000
192.14	-416.667
192.51	1600.000
192.89	-316.667
193.27	0.000
193.65	-314.286
194.02	-3700.000
194.40	-285.714
194.78	385.714
195.15	0.000
195.53	-190.909
195.91	0.000
196.29	-550.000
196.66	-176.923
197.04	-2500.000
197.42	-357.143
197.79	-1300.000
198.17	-275.000
198.55	-371.429
198.92	-233.333
199.30	-325.000
199.68	-218.182
200.05	-142.857
200.43	-1200.000
200.81	414.286
201.18	0.000
201.56	300.000
201.94	0.000
202.31	900.000
202.69	-266.667
203.07	2500.000
203.44	-344.444
203.82	-775.000
204.19	-200.000
204.57	-416.667
204.95	-325.000
205.32	-2200.000
205.70	600.000
206.08	-316.667
206.45	-200.000
206.83	740.000
207.20	-383.333
207.58	-680.000
207.96	-450.000
208.33	-383.333
208.71	208.333
209.08	-316.667
209.46	0.000
209.84	616.667
210.21	1150.000
210.59	1350.000
210.96	1133.333
211.34	-625.000
211.71	-275.000
212.09	-2200.000
212.46	0.000
212.84	1850.000
213.22	-460.000
213.59	-500.000
213.97	-230.000
214.34	-933.333
214.72	416.667
215.09	-850.000
215.47	0.000
215.84	271.429
216.22	1400.000
216.59	-420.000
216.97	-420.000
217.34	-750.000
217.72	-262.500
218.09	-700.000
218.47	-825.000
218.84	0.000
219.22	500.000
219.59	-170.588
219.97	-70.000
220.34	1000.000
220.72	-288.889
221.09	-107.692
221.47	-766.667
221.84	-250.000
222.22	-428.571
222.59	0.000
222.97	-212.500
223.34	-560.000
223.72	-2500.000
224.09	-475.000
224.46	-475.000
224.84	-220.000
225.21	-442.857
225.59	-825.000
225.96	-775.000
226.34	-50.000
226.71	633.333
227.08	-1600.000
227.46	-146.667
227.83	-600.000
228.21	-42.105
228.58	412.500
228.95	1800.000
229.33	-208.333
229.70	-280.000
230.08	-47.368
230.45	350.000
230.82	-733.333
231.20	-128.571
231.57	-191.667
231.95	-263.636
232.32	-181.818
232.69	-105.000
233.07	-575.000
233.44	-182.353
233.81	-300.000
234.19	-111.111
234.56	-86.364
234.93	-62.069
235.31	-147.368
235.68	-116.667
236.05	-170.000
236.43	-57.692
236.80	-60.000
237.17	-59.259
237.55	-42.424
237.92	-290.000
238.29	-93.548
238.67	-50.000
239.04	-63.889
239.41	-76.190
239.79	-65.217
240.16	-51.852
240.53	-63.043
240.91	-39.216
241.28	-42.623
241.65	-25.373
242.02	-17.568
242.40	-41.538
242.77	-32.000
243.14	-39.024
243.51	-48.684
243.89	-43.590
244.26	-18.812
244.63	-10.784
245.00	-14.019
245.38	-22.807
245.75	-28.319
246.12	-12.698
246.49	-18.605
246.87	-11.429
247.24	-13.245
247.61	-7.895
247.98	-16.107
248.36	-16.049
248.73	-12.883
249.10	-9.836
249.47	-1.990
249.84	-3.141
250.22	-10.881
250.59	-14.444
250.96	-4.545
251.33	-14.796
251.70	-4.274
252.08	-5.000
252.45	-1.639
252.82	-8.678
253.19	-6.250
253.56	-5.323
253.94	-9.231
254.31	-5.303
254.68	-1.748
255.05	0.977
255.42	-5.102
255.79	-4.854
256.16	-4.305
256.54	-4.305
256.91	-4.590
257.28	-2.295
257.65	-7.325
258.02	-6.195
258.39	-1.994
258.76	-1.529
259.14	0.287
259.51	-5.476
259.88	-4.816
260.25	-1.944
260.62	-1.918
260.99	-2.186
261.36	-1.877
261.73	-2.918
262.10	-4.396
262.47	-2.949
262.85	-1.768
263.22	-4.156
263.59	-5.789
263.96	-3.325
264.33	-3.836
264.70	-0.988
265.07	0.000
265.44	0.000
265.81	-2.778
266.18	-0.680
266.55	-2.009
266.92	-6.378
267.29	0.219
267.66	-2.217
268.03	-3.057
268.40	-0.835
268.77	-4.556
269.14	-2.203
269.51	-2.632
269.88	-0.615
270.25	-0.805
270.62	1.688
270.99	1.414
271.36	0.396
271.73	-0.982
272.10	0.401
272.47	-2.405
272.84	-2.811
273.21	-2.004
273.58	0.605
273.95	-1.346
274.32	-3.042
274.69	-3.095
275.06	0.549
275.43	-1.664
275.80	1.411
276.17	-1.481
276.54	-0.933
276.91	-3.041
277.28	-1.808
277.65	-1.436
278.02	1.103
278.39	-3.080
278.76	-1.582
279.13	-1.241
279.50	0.687
279.87	-2.504
280.23	-2.817
280.60	-1.864
280.97	0.493
281.34	-1.868
281.71	1.015
282.08	-0.831
282.45	-0.655
282.82	0.000
283.19	-2.746
283.56	-2.131
283.92	0.751
284.29	2.844
284.66	0.821
285.03	-0.962
285.40	-0.464
285.77	-0.310
286.14	1.985
286.51	-1.218
286.87	-0.948
287.24	0.452
287.61	-1.943
287.98	-1.057
288.35	-1.036
288.72	-0.148
289.08	1.171
289.45	-0.444
289.82	-1.958
290.19	-0.144
290.56	-0.563
290.93	-1.284
291.29	-0.138
291.66	0.964
292.03	-0.678
292.40	-0.136
292.77	-1.752
293.13	0.812
293.50	-0.263
293.87	-0.537
294.24	0.533
294.60	1.391
294.97	-2.013
295.34	0.896
295.71	-1.387
296.08	-0.129
296.44	-0.123
296.81	-0.122
297.18	-0.498
297.55	0.590
297.91	-0.593
298.28	-0.829
298.65	0.238
299.02	-0.118
299.38	1.945
299.75	-0.467
300.12	-0.694
300.48	0.922
300.85	1.125
301.22	1.230
301.59	-0.228
301.95	-0.791
302.32	0.556
302.69	-0.110
303.05	0.544
303.42	-0.333
303.79	0.938
304.15	-0.105
304.52	-0.740
304.89	0.628
305.25	1.656
305.62	-0.209
305.99	1.237
306.35	0.907
306.72	0.414
307.09	-0.609
307.45	0.311
307.82	0.000
308.19	0.404
308.55	1.061
308.92	0.292
309.29	0.766
309.65	-0.292
310.02	0.396
310.38	-0.591
310.75	0.874
311.12	1.246
311.48	0.000
311.85	0.190
312.22	0.759
312.58	0.376
312.95	0.287
313.31	0.632
313.68	1.099
314.05	1.084
314.41	1.639
314.78	0.363
315.14	0.454
315.51	1.016
315.87	1.170
316.24	1.279
316.61	1.421
316.97	0.181
317.34	0.529
317.70	0.437
318.07	0.353
318.43	1.020
318.80	2.592
319.16	0.515
319.53	-0.086
319.89	0.088
320.26	1.690
320.62	1.064
320.99	0.923
321.35	0.739
321.72	2.140
322.08	0.000
322.45	0.271
322.81	1.534
323.18	0.265
323.54	0.862
323.91	1.868
324.27	1.205
324.64	1.343
325.00	0.249
325.37	2.211
325.73	1.157
326.10	1.946
326.46	1.303
326.83	1.841
327.19	1.339
327.56	0.711
327.92	1.574
328.29	0.968
328.65	1.256
329.01	1.777
329.38	1.601
329.74	2.397
330.11	2.397
330.47	0.927
330.84	0.000
331.20	1.833
331.56	0.780
331.93	2.008
332.29	1.525
332.66	1.163
333.02	1.089
333.38	1.342
333.75	0.337
334.11	0.917
334.48	1.650
334.84	1.444
335.20	0.840
335.57	1.855
335.93	1.074
336.29	0.749
336.66	0.757
337.02	1.421
337.38	1.446
337.75	0.744
338.11	1.262
338.47	0.744
338.84	0.508
339.20	0.084
339.56	1.647
339.93	1.396
340.29	1.208
340.65	0.892
341.02	1.516
341.38	1.617
341.74	1.614
342.11	1.448
342.47	0.556
342.83	1.369
343.20	1.799
343.56	1.123
343.92	1.521
344.28	1.719
344.65	2.403
345.01	2.028
345.37	1.322
345.73	0.468
346.10	1.560
346.46	0.949
346.82	1.723
347.19	1.986
347.55	1.366
347.91	0.743
348.27	1.214
348.63	2.361
349.00	1.417
349.36	2.305
349.72	1.488
350.08	1.857
350.45	0.989
350.81	0.528
351.17	0.752
351.53	1.592
351.89	1.898
352.26	1.343
352.62	0.896
352.98	0.992
353.34	1.195
353.70	1.233
354.07	1.192
354.43	0.759
354.79	1.122
355.15	1.398
355.51	2.778
355.87	1.496
356.24	0.760
356.60	0.813
356.96	1.408
357.32	1.784
357.68	1.464
358.04	0.599
358.40	0.821
358.77	1.754
359.13	0.591
359.49	0.446
359.85	1.378
360.21	0.717
360.57	0.933
360.93	0.353
361.29	1.684
361.66	1.086
362.02	1.949
362.38	1.265
362.74	1.117
363.10	1.926
363.46	1.454
363.82	0.284
364.18	1.478
364.54	2.006
364.90	1.204
365.26	0.690
365.62	2.667
365.98	1.566
366.35	1.007
366.71	1.769
367.07	0.947
367.43	1.641
367.79	2.123
368.15	1.672
368.51	1.218
368.87	1.176
369.23	1.267
369.59	2.117
369.95	1.623
370.31	1.350
370.67	1.582
371.03	1.454
371.39	0.940
371.75	1.100
372.11	1.965
372.47	1.354
372.83	1.767
373.19	2.268
373.55	1.423
373.91	0.682
374.27	2.070
374.63	1.353
374.99	1.857
375.35	2.662
375.71	1.419
376.07	2.582
376.42	1.889
376.78	2.672
377.14	2.121
377.50	1.075
377.86	2.278
378.22	2.156
378.58	2.021
378.94	1.878
379.30	2.226
379.66	1.705
380.02	1.847
380.38	1.728
380.74	1.915
381.09	2.381
381.45	2.614
381.81	2.400
382.17	2.850
382.53	2.339
382.89	2.765
383.25	2.403
383.61	1.447
383.97	2.061
384.32	1.615
384.68	1.914
385.04	2.429
385.40	3.005
385.76	2.872
386.12	2.154
386.48	2.706
386.83	2.801
387.19	2.144
387.55	1.819
387.91	1.998
388.27	3.060
388.62	2.921
388.98	2.482
389.34	2.829
389.70	1.336
390.06	2.605
390.42	1.807
390.77	3.251
391.13	1.878
391.49	3.019
391.85	2.303
392.20	2.135
392.56	3.012
392.92	2.944
393.28	1.935
393.64	2.291
393.99	3.486
394.35	2.745
394.71	2.754
395.07	1.796
395.42	2.399
395.78	3.108
396.14	2.020
396.50	2.316
396.85	2.385
397.21	2.071
397.57	2.120
397.92	2.692
398.28	1.955
398.64	2.689
399.00	2.042
399.35	2.670
399.71	2.554
400.07	2.077
400.42	2.503
400.78	2.604
401.14	2.334
401.49	2.388
401.85	1.977
402.21	2.260
402.57	2.641
402.92	2.660
403.28	2.225
403.63	1.074
403.99	2.257
404.35	2.160
404.70	2.946
405.06	2.228
405.42	1.991
405.77	2.781
406.13	2.323
406.49	2.027
406.84	3.158
407.20	2.404
407.55	1.272
407.91	2.263
408.27	2.061
408.62	1.629
408.98	2.380
409.34	1.701
409.69	2.225
410.05	2.462
410.40	2.204
410.76	2.187
411.11	1.520
411.47	2.580
411.83	2.528
412.18	1.807
412.54	2.727
412.89	2.386
413.25	1.975
413.60	2.355
413.96	2.681
414.31	2.096
414.67	2.743
415.03	2.400
415.38	2.333
415.74	2.627
416.09	2.283
416.45	2.442
416.80	2.326
417.16	2.618
417.51	2.615
417.87	1.901
418.22	2.455
418.58	1.921
418.93	2.794
419.29	1.911
419.64	1.921
420.00	2.611
420.35	2.527
420.71	2.412
421.06	1.668
421.42	2.122
421.77	2.316
422.12	2.696
422.48	2.560
422.83	2.300
423.19	2.281
423.54	2.046
423.90	3.092
424.25	2.667
424.61	2.468
424.96	2.581
425.31	3.132
425.67	2.415
426.02	1.937
426.38	2.124
426.73	2.288
427.09	3.345
427.44	2.239
427.79	1.714
428.15	1.998
428.50	2.191
428.85	2.239
429.21	3.351
429.56	2.270
429.92	2.555
430.27	2.602
430.62	2.345
430.98	2.607
431.33	2.493
431.68	2.730
432.04	2.692
432.39	2.892
432.74	2.055
433.10	3.678
433.45	2.453
433.80	3.058
434.16	2.893
434.51	2.569
434.86	2.172
435.22	3.454
435.57	3.066
435.92	3.283
436.28	3.129
436.63	3.004
436.98	3.221
437.34	2.649
437.69	2.146
438.04	2.274
438.39	2.929
438.75	1.992
439.10	3.330
439.45	3.186
439.81	2.655
440.16	3.378
440.51	3.679
440.86	2.946
441.22	3.162
441.57	3.616
441.92	3.298
442.27	2.727
442.63	3.179
442.98	3.415
443.33	2.893
443.68	3.717
444.03	4.139
444.39	3.514
444.74	3.420
445.09	3.649
445.44	2.950
445.79	3.065
446.15	3.289
446.50	2.946
446.85	3.307
447.20	2.901
447.55	3.033
447.91	2.775
448.26	3.013
448.61	3.029
448.96	3.594
449.31	3.712
449.66	2.723
450.02	4.061
450.37	4.102
450.72	3.283
451.07	3.132
451.42	2.831
451.77	3.168
452.12	3.499
452.47	2.911
452.83	3.097
453.18	3.561
453.53	2.872
453.88	3.037
454.23	3.559
454.58	2.844
454.93	2.367
455.28	2.950
455.63	3.240
455.98	3.017
456.34	3.121
456.69	3.116
457.04	2.305
457.39	3.271
457.74	3.523
458.09	2.910
458.44	3.879
458.79	3.404
459.14	3.199
459.49	3.565
459.84	3.515
460.19	2.832
460.54	3.010
460.89	3.547
461.24	2.356
461.59	4.040
461.94	2.510
462.29	3.303
462.64	3.018
462.99	3.453
463.34	3.245
463.69	3.283
464.04	3.502
464.39	3.643
464.74	3.421
465.09	2.826
465.44	3.594
465.79	4.231
466.14	3.231
466.49	3.632
466.84	3.581
467.19	3.064
467.54	2.938
467.89	3.046
468.24	3.767
468.59	2.432
468.94	2.914
469.29	2.699
469.64	2.861
469.99	2.677
470.34	2.970
470.68	2.051
471.03	3.012
471.38	3.009
471.73	2.081
472.08	2.982
472.43	2.769
472.78	3.463
473.13	3.097
473.48	3.202
473.83	3.366
474.17	3.576
474.52	2.586
474.87	3.212
475.22	3.831
475.57	3.427
475.92	3.385
476.27	3.355
476.61	3.790
476.96	2.920
477.31	3.713
477.66	3.987
478.01	4.220
478.36	3.789
478.70	3.645
479.05	4.039
479.40	3.554
479.75	3.939
480.10	3.695
480.45	3.555
480.79	4.490
481.14	3.860
481.49	3.226
481.84	4.003
482.19	4.344
482.53	3.367
482.88	4.032
483.23	3.468
483.58	3.493
483.92	3.768
484.27	3.768
484.62	3.424
484.97	4.121
485.31	3.590
485.66	3.808
486.01	3.952
486.36	4.424
486.70	4.367
487.05	4.437
487.40	4.597
487.75	4.504
488.09	3.973
488.44	3.668
488.79	4.789
489.13	4.127
489.48	3.301
489.83	3.863
490.17	3.402
490.52	3.859
490.87	3.680
491.22	3.596
491.56	3.968
491.91	3.838
492.26	3.981
492.60	3.542
492.95	4.168
493.30	3.586
493.64	3.767
493.99	3.553
494.34	3.179
494.68	3.940
495.03	3.700
495.37	3.462
495.72	3.673
496.07	3.725
496.41	3.260
496.76	3.378
497.11	3.779
497.45	3.841
497.80	3.732
498.14	3.220
498.49	3.906
498.84	3.976
499.18	3.284
499.53	4.170
499.87	3.604
500.22	3.028
500.56	4.184
500.91	4.027
501.26	3.909
501.60	4.021
501.95	4.386
502.29	4.212
502.64	3.979
502.98	3.969
503.33	4.190
503.67	3.707
504.02	4.116
504.36	4.245
504.71	4.042
505.06	4.184
505.40	3.839
505.75	4.508
506.09	3.959
506.44	4.225
506.78	4.266
507.13	4.380
507.47	4.027
507.82	3.646
508.16	4.015
508.51	3.751
508.85	3.401
509.19	3.979
509.54	4.131
509.88	4.371
510.23	4.225
510.57	4.253
510.92	4.306
511.26	4.233
511.61	3.525
511.95	4.392
512.30	4.333
512.64	3.598
512.98	3.902
513.33	4.486
513.67	4.437
514.02	4.446
514.36	3.887
514.70	4.219
515.05	4.171
515.39	4.304
515.74	4.984
516.08	4.068
516.42	4.814
516.77	4.048
517.11	3.868
517.46	4.401
517.80	4.329
518.14	4.951
518.49	4.121
518.83	4.311
519.17	4.200
519.52	4.403
519.86	5.016
520.20	4.579
520.55	3.998
520.89	4.279
521.23	4.634
521.58	4.802
521.92	4.023
522.26	4.353
522.61	4.225
522.95	3.979
523.29	4.195
523.64	4.484
523.98	4.678
524.32	4.928
524.66	4.838
525.01	4.247
525.35	4.652
525.69	4.118
526.04	3.674
526.38	4.540
526.72	5.190
527.06	4.106
527.41	4.082
527.75	4.513
528.09	5.136
528.43	4.677
528.78	3.526
529.12	4.472
529.46	4.947
529.80	4.691
530.15	4.928
530.49	4.567
530.83	4.073
531.17	4.361
531.51	4.272
531.86	4.507
532.20	4.390
532.54	4.728
532.88	4.303
533.22	4.420
533.57	4.905
533.91	5.275
534.25	4.240
534.59	4.080
534.93	4.584
535.27	4.338
535.62	5.230
535.96	4.184
536.30	3.878
536.64	4.985
536.98	4.121
537.32	4.321
537.66	4.242
538.01	4.713
538.35	3.593
538.69	3.726
539.03	4.047
539.37	5.183
539.71	4.444
540.05	3.777
540.39	4.156
540.73	3.886
541.07	3.311
541.42	4.489
541.76	3.974
542.10	4.222
542.44	4.080
542.78	4.927
543.12	4.708
543.46	3.907
543.80	3.957
544.14	4.847
544.48	5.201
544.82	4.728
545.16	4.532
545.50	4.494
545.84	4.470
546.18	4.691
546.52	4.522
546.86	4.465
547.20	4.198
547.54	3.870
547.88	4.039
548.22	3.743
548.56	4.272
548.90	4.299
549.24	4.985
549.58	4.038
549.92	4.464
550.26	4.337
550.60	5.169
550.94	4.528
551.28	4.026
551.62	4.582
551.96	4.919
552.30	4.270
552.64	4.356
552.98	4.679
553.32	4.566
553.66	4.502
554.00	4.224
554.34	4.440
554.68	4.003
555.02	5.125
555.36	4.931
555.69	3.203
556.03	4.666
556.37	4.631
556.71	4.249
557.05	4.920
557.39	3.583
557.73	4.227
558.07	3.709
558.41	5.382
558.75	4.801
559.08	4.384
559.42	4.321
559.76	4.953
560.10	4.287
560.44	4.090
560.78	4.938
561.12	4.557
561.45	4.684
561.79	4.823
562.13	5.176
562.47	4.131
562.81	4.177
563.15	5.114
563.48	4.413
563.82	4.232
564.16	4.058
564.50	4.589
564.84	3.953
565.17	5.176
565.51	4.833
565.85	4.097
566.19	4.435
566.52	4.213
566.86	4.810
567.20	3.915
567.54	4.036
567.88	4.689
568.21	4.743
568.55	4.988
568.89	4.993
569.23	4.943
569.56	4.103
569.90	4.562
570.24	4.486
570.57	4.811
570.91	4.807
571.25	4.397
571.59	5.399
571.92	4.771
572.26	4.764
572.60	4.778
572.93	5.232
573.27	4.355
573.61	4.870
573.95	5.147
574.28	5.069
574.62	4.820
574.96	4.588
575.29	4.803
575.63	4.759
575.97	4.766
576.30	4.713
576.64	4.915
576.98	4.715
577.31	5.015
577.65	5.097
577.98	4.951
578.32	4.946
578.66	4.768
578.99	4.915
579.33	4.847
579.67	4.918
580.00	4.900
580.34	5.039
580.67	4.656
581.01	4.890
581.35	4.870
581.68	4.916
582.02	4.919
582.35	5.015
582.69	5.149
583.02	5.158
583.36	5.011
583.70	4.908
584.03	4.992
584.37	5.505
584.70	4.988
585.04	4.650
585.37	4.971
585.71	5.049
586.04	5.086
586.38	5.107
586.72	4.863
587.05	4.579
587.39	5.186
587.72	5.072
588.06	5.440
588.39	5.302
588.73	4.868
589.06	4.966
589.40	5.255
589.73	5.559
590.07	5.172
590.40	5.646
590.73	4.949
591.07	5.473
591.40	4.549
591.74	4.690
592.07	5.400
592.41	4.377
592.74	5.147
593.08	5.032
593.41	5.483
593.75	4.971
594.08	5.180
594.41	5.096
594.75	4.949
595.08	4.744
595.42	5.130
595.75	5.069
596.09	5.083
596.42	5.159
596.75	5.365
597.09	5.091
597.42	5.046
597.75	5.135
598.09	5.317
598.42	5.468
598.76	4.547
599.09	5.055
599.42	4.894
599.76	5.051
600.09	5.205
600.42	5.305
600.76	5.284
601.09	5.144
601.42	5.115
601.76	4.931
602.09	5.289
602.42	4.435
602.76	5.129
603.09	5.029
603.42	5.347
603.76	5.004
604.09	5.855
604.42	4.881
604.76	4.909
605.09	5.584
605.42	4.984
605.75	4.962
606.09	5.002
606.42	5.071
606.75	4.685
607.09	5.031
607.42	4.586
607.75	5.002
608.08	5.249
608.42	5.159
608.75	4.809
609.08	4.966
609.41	5.205
609.75	3.884
610.08	5.145
610.41	5.098
610.74	4.790
611.07	4.885
611.41	4.709
611.74	5.081
612.07	5.096
612.40	5.181
612.73	5.086
613.07	5.134
613.40	5.005
613.73	4.718
614.06	4.907
614.39	4.665
614.72	5.628
615.06	4.957
615.39	4.157
615.72	5.118
616.05	5.002
616.38	5.348
616.71	5.120
617.05	4.207
617.38	4.976
617.71	4.752
618.04	5.181
618.37	5.355
618.70	5.034
619.03	3.943
619.36	4.254
619.69	4.741
620.03	4.457
620.36	4.417
620.69	4.072
621.02	4.659
621.35	3.991
621.68	5.061
622.01	4.982
622.34	3.905
622.67	3.918
623.00	3.509
623.33	4.977
623.66	4.669
623.99	3.555
624.32	5.458
624.65	4.247
624.99	4.421
625.32	4.507
625.65	4.788
625.98	4.339
626.31	4.536
626.64	5.055
626.97	3.901
627.30	3.189
627.63	3.901
627.96	5.255
628.29	4.202
628.62	2.855
628.95	3.681
629.28	3.059
629.61	4.040
629.94	4.017
630.26	3.729
630.59	4.663
630.92	3.636
631.25	4.472
631.58	4.237
631.91	3.749
632.24	2.882
632.57	3.985
632.90	3.410
633.23	3.776
633.56	4.694
633.89	2.376
634.22	4.262
634.55	3.758
634.88	2.922
635.20	4.090
635.53	3.277
635.86	4.334
636.19	5.090
636.52	4.008
636.85	3.473
637.18	3.430
637.51	3.548
637.83	3.212
638.16	3.687
638.49	3.052
638.82	3.157
639.15	2.405
639.48	4.042
639.81	4.503
640.13	4.122
640.46	2.303
640.79	1.716
641.12	2.484
641.45	3.137
641.77	4.365
642.10	2.100
642.43	3.191
642.76	3.659
643.09	2.192
643.41	1.401
643.74	3.034
644.07	3.448
644.40	2.546
644.73	2.322
645.05	3.231
645.38	3.453
645.71	3.812
646.04	4.735
646.36	2.482
646.69	2.454
647.02	4.281
647.35	3.511
647.67	3.704
648.00	1.433
648.33	4.054
648.66	1.427
648.98	3.129
649.31	3.383
649.64	5.179
649.96	2.255
650.29	2.782
650.62	2.829
650.94	1.952
651.27	0.299
651.60	2.047
651.92	1.520
652.25	3.039
652.58	1.651
652.90	2.471
653.23	3.239
653.56	3.138
653.88	5.899
654.21	3.662
654.54	1.012
654.86	2.550
655.19	2.384
655.52	4.549
655.84	5.751
656.17	6.498
656.49	9.269
656.82	10.240
657.15	8.012
657.47	6.191
657.80	4.444
658.13	3.418
658.45	4.430
658.78	5.528
659.10	4.941
659.43	4.907
659.75	3.729
660.08	3.697
660.41	3.474
660.73	3.193
661.06	0.441
661.38	1.116
661.71	0.862
662.03	2.293
662.36	3.220
662.68	3.377
663.01	2.301
663.33	1.134
663.66	4.579
663.98	2.115
664.31	2.627
664.63	1.927
664.96	3.811
665.28	0.726
665.61	2.972
665.93	0.893
666.26	4.480
666.58	1.107
666.91	2.991
667.23	4.381
667.56	2.564
667.88	0.800
668.21	0.977
668.53	0.965
668.86	1.179
669.18	-2.037
669.50	1.789
669.83	0.800
670.15	1.378
670.48	1.786
670.80	-0.956
671.13	2.079
671.45	0.591
671.77	1.695
672.10	2.167
672.42	3.236
672.75	1.843
673.07	4.179
673.39	2.465
673.72	2.349
674.04	2.759
674.37	2.683
674.69	3.351
675.01	-0.952
675.34	1.718
675.66	2.247
675.98	3.358
676.31	0.391
676.63	3.422
676.95	3.065
677.28	1.008
677.60	-0.394
677.92	2.495
678.25	1.097
678.57	2.669
678.89	4.437
679.22	1.568
679.54	3.248
679.86	2.373
680.18	1.658
680.51	3.145
680.83	3.928
681.15	0.172
681.48	2.936
681.80	1.727
682.12	4.196
682.44	2.671
682.77	1.418
683.09	1.515
683.41	2.519
683.73	2.087
684.06	1.661
684.38	-1.431
684.70	1.975
685.02	1.549
685.34	0.166
685.67	1.420
685.99	3.221
686.31	1.308
686.63	1.264
686.96	2.997
687.28	2.932
687.60	-1.515
687.92	1.286
688.24	1.669
688.56	1.034
688.89	1.270
689.21	0.978
689.53	-1.176
689.85	0.000
690.17	0.370
690.49	-0.598
690.82	0.000
691.14	-1.215
691.46	1.530
691.78	2.578
692.10	0.550
692.42	-1.607
692.74	1.452
693.06	0.185
693.39	2.277
693.71	-0.188
694.03	3.160
694.35	3.048
694.67	0.000
694.99	0.000
695.31	-1.104
695.63	1.948
695.95	1.242
696.27	-0.879
696.59	2.434
696.91	1.351
697.23	0.000
697.56	-0.407
697.88	1.326
698.20	1.695
698.52	4.356
698.84	1.247
699.16	3.878
699.48	0.000
699.80	2.128
700.12	0.655
700.44	-0.922
700.76	3.563
701.08	2.906
701.40	-1.295
701.72	1.244
702.04	0.535
702.36	-1.571
702.68	0.489
703.00	-1.711
703.32	-0.985
703.64	-1.956
703.96	2.148
704.28	-1.474
704.60	0.506
704.91	-1.786
705.23	-0.548
705.55	1.114
705.87	-1.212
706.19	-1.227
706.51	-2.108
706.83	-2.017
707.15	-1.323
707.47	-2.336
707.79	-0.873
708.11	0.636
708.43	-2.581
708.74	-1.563
709.06	-0.928
709.38	3.052
709.70	3.474
710.02	0.258
710.34	-0.532
710.66	-3.631
710.98	-3.005
711.29	-1.099
711.61	0.847
711.93	1.425
712.25	0.541
712.57	0.295
712.89	1.765
713.20	-2.663
713.52	-0.289
713.84	-1.114
714.16	1.579
714.48	0.515
714.80	1.299
715.11	-1.312
715.43	-0.265
715.75	0.789
716.07	-4.420
716.39	0.273
716.70	-3.313
717.02	-1.967
717.34	-5.575
717.66	-2.013
717.97	-5.137
718.29	-5.498
718.61	-3.618
718.93	-3.560
719.24	-1.863
719.56	-0.920
719.88	-2.102
720.20	-1.613
720.51	0.000
720.83	-3.437
721.15	-2.961
721.46	-3.767
721.78	-5.333
722.10	-4.531
722.42	-3.691
722.73	-0.968
723.05	-0.351
723.37	-2.431
723.68	-2.509
724.00	-3.610
724.32	-3.873
724.63	-1.049
724.95	-5.319
725.27	-3.484
725.58	-4.240
725.90	-3.103
726.22	-4.075
726.53	-0.649
726.85	-1.572
727.16	-1.208
727.48	2.446
727.80	0.331
728.11	-5.300
728.43	-2.020
728.74	-3.679
729.06	-0.662
729.38	-3.896
729.69	-0.671
730.01	-1.488
730.32	-5.758
730.64	0.000
730.96	-4.348
731.27	-2.514
731.59	-1.099
731.90	-1.299
732.22	-1.042
732.53	-2.762
732.85	-2.571
733.16	-1.760
733.48	-3.963
733.80	-2.507
734.11	-1.140
734.43	-2.432
734.74	1.519
735.06	0.251
735.37	-0.541
735.69	-0.811
736.00	-2.542
736.32	-2.695
736.63	-1.389
736.95	-0.575
737.26	-2.121
737.58	-3.333
737.89	-1.765
738.21	-4.281
738.52	-3.279
738.83	-3.072
739.15	-2.837
739.46	-3.061
739.78	1.534
740.09	0.287
740.41	4.082
740.72	-2.000
741.04	-4.531
741.35	-1.404
741.66	-1.569
741.98	-3.689
742.29	-0.418
742.61	-3.070
742.92	-2.692
743.23	2.166
743.55	-3.101
743.86	-3.600
744.18	-7.025
744.49	-6.751
744.80	-3.704
745.12	-5.907
745.43	-6.098
745.74	-4.310
746.06	-5.508
746.37	-3.376
746.68	-0.813
747.00	-6.250
747.31	-4.292
747.62	0.000
747.94	-5.263
748.25	-8.835
748.56	-8.163
748.88	-5.556
749.19	-0.862
749.50	-5.195
749.82	-0.803
750.13	-0.712
750.44	-6.667
750.75	-2.154
751.07	-0.923
751.38	0.000
751.69	-3.195
752.01	-4.531
752.32	-3.595
752.63	-0.680
752.94	-2.422
753.26	-3.717
753.57	-4.815
753.88	-5.993
754.19	-0.643
754.51	-4.823
754.82	-4.502
755.13	0.656
755.44	-1.706
755.75	-1.974
756.07	-1.194
756.38	-3.774
756.69	0.904
757.00	-3.601
757.31	-0.820
757.63	-1.279
757.94	-1.174
758.25	-0.903
758.56	-0.218
758.87	0.227
759.18	-1.067
759.50	-0.850
759.81	-1.401
760.12	-0.539
760.43	-1.042
760.74	0.246
761.05	-2.000
761.36	-3.133
761.67	-1.777
761.99	-0.541
762.30	-1.524
762.61	-2.970
762.92	-3.358
763.23	-3.745
763.54	-2.158
763.85	-4.467
764.16	-3.367
764.47	-2.113
764.78	1.917
765.10	-1.173
765.41	1.026
765.72	-0.265
766.03	-1.412
766.34	-2.821
766.65	-6.620
766.96	-8.765
767.27	-5.530
767.58	-7.463
767.89	-3.846
768.20	-4.225
768.51	-5.093
768.82	-3.213
769.13	-5.303
769.44	-5.385
769.75	-5.054
770.06	-3.462
770.37	0.000
770.68	-5.106
770.99	-10.121
771.30	0.000
771.61	-4.563
771.92	-4.444
772.23	-3.239
772.54	-10.185
772.85	0.000
773.16	-4.286
773.47	-12.169
773.78	-9.189
774.09	-9.091
774.39	-3.500
774.70	-10.383
775.01	-9.146
775.32	-9.412
775.63	-14.110
775.94	-17.834
776.25	-6.452
776.56	-12.179
776.87	-7.483
777.18	-9.655
777.48	-6.993
777.79	-14.189
778.10	-18.382
778.41	-13.889
778.72	-12.414
779.03	-10.494
779.34	-10.909
779.65	-7.772
779.95	-2.778
780.26	-5.682
780.57	-10.323
780.88	-13.768
781.19	-7.097
781.50	-2.941
781.80	-8.602
782.11	-9.524
782.42	-11.616
782.73	-8.383
783.04	-3.911
783.34	-9.697
783.65	-9.804
783.96	-16.149
784.27	-10.119
784.57	-3.974
784.88	-11.429
785.19	-22.835
785.50	-8.661
785.81	-10.526
786.11	-14.615
786.42	-20.144
786.73	-14.388
787.04	-5.263
787.34	-17.213
787.65	-19.200
787.96	-17.164
788.26	-6.993
788.57	-7.692
788.88	-11.184
789.19	-1.961
789.49	-12.329
789.80	-14.184
790.11	-7.087
790.41	-10.937
790.72	-13.559
791.03	-29.126
791.33	-13.043
791.64	-14.035
791.95	-16.964
792.25	-22.857
792.56	-12.500
792.87	-20.833
793.17	-11.607
793.48	-21.875
793.79	-38.554
794.09	-12.844
794.40	-17.431
794.70	-10.204
795.01	-9.740
795.32	-13.014
795.62	-8.451
795.93	-12.879
796.23	-21.311
796.54	-16.964
796.85	-22.340
797.15	-25.000
797.46	-35.616
797.76	-32.500
798.07	-23.913
798.37	-32.990
798.68	-46.753
798.99	-16.092
799.29	-19.101
799.60	-17.021
799.90	-26.506
800.21	-32.308
800.51	-46.269
800.82	-41.176
801.12	-28.767
801.43	-48.529
801.73	-47.458
802.04	-37.879
802.34	-56.667
802.65	-27.119
802.95	-41.791
803.26	-64.407
803.56	-23.288
803.87	-34.286
804.17	-38.356
804.48	-77.193
804.78	-25.000
805.09	-39.655
805.39	-25.676
805.70	-40.845
806.00	-20.732
806.30	-26.506
806.61	-34.247
806.91	-12.500
807.22	-18.889
807.52	-21.839
807.83	-26.389
808.13	-16.867
808.43	-16.854
808.74	-18.750
809.04	-38.235
809.35	-33.333
809.65	-25.714
809.95	-17.808
810.26	-52.632
810.56	-44.828
810.86	-30.882
811.17	-22.807
811.47	-42.623
811.77	-82.222
812.08	-37.288
812.38	-38.333
812.69	-31.034
812.99	-47.170
813.29	-71.795
813.59	-36.000
813.90	-8.772
814.20	-63.636
814.50	-22.535
814.81	-14.103
815.11	-26.230
815.41	-28.358
815.72	-43.103
816.02	-41.071
816.32	-46.667
816.62	-50.000
816.93	-60.000
817.23	-24.074
817.53	-42.553
817.84	-38.095
818.14	-70.588
818.44	-34.694
818.74	-46.667
819.04	-87.179
819.35	-88.571
819.65	-96.154
819.95	-41.509
820.25	-60.000
820.56	-47.619
820.86	-87.500
821.16	-69.231
821.46	-76.744
821.76	-52.000
822.07	-42.857
822.37	-65.217
822.67	-40.426
822.97	-78.378
823.27	-62.500
823.57	-30.612
823.88	-35.556
824.18	-40.000
824.48	-110.000
824.78	-92.000
825.08	-72.727
825.38	-46.667
825.69	-44.681
825.99	-77.778
826.29	-111.429
826.59	-61.538
826.89	-48.837
827.19	-54.000
827.49	-79.412
827.79	-33.333
828.09	-62.162
828.39	-110.000
828.70	-56.098
829.00	-46.512
829.30	-107.143
829.60	-67.647
829.90	-23.913
830.20	-60.000
830.50	-93.103
830.80	-155.556
831.10	-88.462
831.40	-85.294
831.70	-95.238
832.00	-48.387
832.30	-223.529
832.60	-116.667
832.90	-261.538
833.20	-105.263
833.50	-125.000
833.80	-126.316
834.10	-180.952
834.40	-50.000
834.70	-71.875
835.00	-82.857
835.30	-88.235
835.60	-86.667
835.90	-108.000
836.20	-159.091
836.50	-108.000
836.80	-81.818
837.10	-96.296
837.40	-100.000
837.70	-262.500
838.00	-110.714
838.30	-143.478
838.60	-72.414
838.90	-142.857
839.19	-178.261
839.49	-283.333
839.79	-121.739
840.09	-168.750
840.39	-120.000
840.69	-64.516
840.99	-107.143
841.29	-206.667
841.59	-152.632
841.88	-46.154
842.18	-103.846
842.48	-250.000
842.78	-130.000
843.08	-70.000
843.38	-58.065
843.68	-155.556
843.97	-61.765
844.27	-125.000
844.57	-168.421
844.87	-360.000
845.17	-226.667
845.47	-90.476
845.76	-147.619
846.06	-333.333
846.36	-200.000
846.66	-80.769
846.96	-240.000
847.25	-158.824
847.55	-113.043
847.85	-105.000
848.15	-152.941
848.44	-236.364
848.74	-76.190
849.04	-79.167
849.34	-125.000
849.63	-60.870
849.93	1450.000
850.23	-173.333
850.53	-107.692
850.82	-200.000
851.12	-77.273
851.42	-227.273
851.71	-207.692
852.01	-160.000
852.31	-207.692
852.61	-131.579
852.90	-200.000
853.20	-122.222
853.50	-400.000
853.79	-133.333
854.09	-127.273
854.39	-350.000
854.68	-45.161
854.98	-80.769
855.28	-144.444
855.57	-96.429
855.87	-72.000
856.17	-104.545
856.46	-81.481
856.76	-144.444
857.05	-91.304
857.35	-129.167
857.65	-238.462
857.94	-123.810
858.24	-55.556
858.53	-78.261
858.83	-88.235
859.13	-200.000
859.42	-123.529
859.72	-171.429
860.01	-100.000
860.31	-277.778
860.60	-190.000
860.90	-166.667
861.20	-172.222
861.49	-176.923
861.79	-73.333
862.08	-161.538
862.38	-46.875
862.67	-100.000
862.97	-162.500
863.26	-300.000
863.56	-210.000
863.85	-200.000
864.15	-72.222
864.44	-933.333
864.74	-178.571
865.03	-181.250
865.33	-300.000
865.62	-87.097
865.92	-59.091
866.21	-47.826
866.51	-157.143
866.80	-720.000
867.10	-216.667
867.39	-300.000
867.69	3200.000
867.98	-314.286
868.27	-82.353
868.57	-3000.000
868.86	-300.000
869.16	-95.238
869.45	-87.500
869.75	-227.273
870.04	-257.143
870.33	-158.333
870.63	-514.286
870.92	-600.000
871.22	-437.500
871.51	-263.636
871.80	-1100.000
872.10	-1650.000
>>>>>End Processed Spectral Data<<<<<
