SpectraSuite Data File
++++++++++++++++++++++++++++++++++++
Date: Thu May 14 15:24:54 PDT 2015
User: schluterlab
Dark Spectrum Present: Yes
Reference Spectrum Present: Yes
Number of Sampled Component Spectra: 1
Spectrometers: USB2E3373
Integration Time (usec): 3000 (USB2E3373)
Spectra Averaged: 3 (USB2E3373)
Boxcar Smoothing: 0 (USB2E3373)
Correct for Electrical Dark: No (USB2E3373)
Strobe/Lamp Enabled: No (USB2E3373)
Correct for Detector Non-linearity: No (USB2E3373)
Correct for Stray Light: No (USB2E3373)
Number of Pixels in Processed Spectrum: 2048
>>>>>Begin Processed Spectral Data<<<<<
178.53	0.000
178.91	628.571
179.29	-5600.000
179.67	-5100.000
180.04	471.429
180.42	450.000
180.80	960.000
181.18	-5100.000
181.56	-5000.000
181.94	1250.000
182.31	-1275.000
182.69	1633.333
183.07	-2300.000
183.45	1300.000
183.83	-666.667
184.20	-1700.000
184.58	4700.000
184.96	-1150.000
185.34	-577.778
185.72	-820.000
186.09	722.222
186.47	2250.000
186.85	980.000
187.23	-477.778
187.61	-5700.000
187.98	1040.000
188.36	1175.000
188.74	-1075.000
189.12	-1533.333
189.49	-256.250
189.87	-687.500
190.25	-444.444
190.63	-940.000
191.00	-544.444
191.38	0.000
191.76	-1175.000
192.14	-816.667
192.51	2150.000
192.89	-650.000
193.27	0.000
193.65	-642.857
194.02	-6300.000
194.40	-600.000
194.78	685.714
195.15	0.000
195.53	-390.909
195.91	0.000
196.29	-1225.000
196.66	-307.692
197.04	-5400.000
197.42	-785.714
197.79	-2050.000
198.17	-675.000
198.55	-814.286
198.92	-477.778
199.30	-650.000
199.68	-345.455
200.05	-307.143
200.43	-2650.000
200.81	757.143
201.18	0.000
201.56	566.667
201.94	0.000
202.31	1666.667
202.69	-533.333
203.07	4300.000
203.44	-500.000
203.82	-1175.000
204.19	-375.000
204.57	-800.000
204.95	-687.500
205.32	-5600.000
205.70	1225.000
206.08	-833.333
206.45	-800.000
206.83	1160.000
207.20	-683.333
207.58	-1020.000
207.96	-733.333
208.33	-733.333
208.71	475.000
209.08	-783.333
209.46	0.000
209.84	1066.667
210.21	2400.000
210.59	2600.000
210.96	1433.333
211.34	-1050.000
211.71	-625.000
212.09	-4500.000
212.46	0.000
212.84	2500.000
213.22	-1020.000
213.59	-1225.000
213.97	-440.000
214.34	-1600.000
214.72	900.000
215.09	-1250.000
215.47	0.000
215.84	671.429
216.22	2550.000
216.59	-820.000
216.97	-880.000
217.34	-1325.000
217.72	-487.500
218.09	-1200.000
218.47	-1425.000
218.84	0.000
219.22	920.000
219.59	-294.118
219.97	-230.000
220.34	2800.000
220.72	-577.778
221.09	-292.308
221.47	-1533.333
221.84	-340.000
222.22	-614.286
222.59	0.000
222.97	-625.000
223.34	-900.000
223.72	-4300.000
224.09	-1300.000
224.46	-1250.000
224.84	-720.000
225.21	-571.429
225.59	-1075.000
225.96	-1400.000
226.34	-142.308
226.71	950.000
227.08	-1950.000
227.46	-280.000
227.83	-1175.000
228.21	-205.263
228.58	662.500
228.95	2250.000
229.33	-316.667
229.70	-440.000
230.08	-173.684
230.45	560.000
230.82	-1600.000
231.20	-371.429
231.57	-375.000
231.95	-436.364
232.32	-409.091
232.69	-195.000
233.07	-1200.000
233.44	-264.706
233.81	-540.000
234.19	-233.333
234.56	-190.909
234.93	-103.448
235.31	-226.316
235.68	-255.556
236.05	-280.000
236.43	-157.692
236.80	-144.000
237.17	-166.667
237.55	-148.485
237.92	-480.000
238.29	-122.581
238.67	-88.636
239.04	-119.444
239.41	-116.667
239.79	-93.478
240.16	-61.111
240.53	-91.304
240.91	-96.078
241.28	-80.328
241.65	-62.687
242.02	-56.757
242.40	-70.769
242.77	-60.000
243.14	-65.854
243.51	-63.158
243.89	-52.564
244.26	-36.634
244.63	-31.373
245.00	-35.514
245.38	-36.842
245.75	-40.708
246.12	-23.016
246.49	-30.233
246.87	-25.714
247.24	-21.854
247.61	-24.342
247.98	-22.148
248.36	-28.395
248.73	-22.086
249.10	-18.579
249.47	-12.438
249.84	-14.660
250.22	-25.389
250.59	-24.444
250.96	-12.273
251.33	-22.449
251.70	-11.111
252.08	-12.083
252.45	-13.934
252.82	-12.397
253.19	-8.984
253.56	-10.646
253.94	-12.308
254.31	-12.500
254.68	-5.944
255.05	-2.280
255.42	-9.524
255.79	-8.091
256.16	-11.921
256.54	-12.914
256.91	-8.525
257.28	-10.164
257.65	-11.465
258.02	-8.555
258.39	-3.989
258.76	-2.752
259.14	-3.448
259.51	-5.476
259.88	-7.365
260.25	-6.389
260.62	-4.932
260.99	-1.639
261.36	-2.949
261.73	-6.101
262.10	-7.143
262.47	-6.702
262.85	-3.535
263.22	-3.896
263.59	-8.684
263.96	-3.325
264.33	-7.673
264.70	-3.704
265.07	-2.864
265.44	-2.268
265.81	-6.019
266.18	-3.628
266.55	-2.679
266.92	-3.417
267.29	-1.094
267.66	-2.217
268.03	-2.838
268.40	-3.549
268.77	-4.784
269.14	-3.304
269.51	-1.974
269.88	-0.820
270.25	0.402
270.62	-3.797
270.99	-1.212
271.36	-0.396
271.73	-1.768
272.10	-1.403
272.47	-2.605
272.84	-2.410
273.21	-0.401
273.58	0.605
273.95	-1.923
274.32	-3.232
274.69	-3.095
275.06	-1.282
275.43	-1.479
275.80	0.529
276.17	-4.259
276.54	-3.731
276.91	-0.358
277.28	-3.255
277.65	-2.334
278.02	-1.654
278.39	-2.717
278.76	-2.285
279.13	-0.887
279.50	-0.344
279.87	-1.073
280.23	-3.873
280.60	-1.017
280.97	-1.480
281.34	-3.905
281.71	-0.338
282.08	-0.498
282.45	-0.982
282.82	-0.471
283.19	-3.393
283.56	-0.820
283.92	1.051
284.29	1.106
284.66	0.000
285.03	-2.724
285.40	0.309
285.77	0.774
286.14	0.153
286.51	-0.457
286.87	-2.844
287.24	0.301
287.61	-0.448
287.98	-1.662
288.35	0.000
288.72	-1.331
289.08	-0.586
289.45	-1.479
289.82	-0.452
290.19	0.431
290.56	0.986
290.93	-0.856
291.29	0.000
291.66	-1.928
292.03	-3.121
292.40	1.088
292.77	-0.135
293.13	0.677
293.50	0.263
293.87	0.403
294.24	0.667
294.60	0.632
294.97	-1.611
295.34	1.793
295.71	-2.270
296.08	0.000
296.44	-0.245
296.81	0.122
297.18	0.249
297.55	0.000
297.91	-0.119
298.28	-0.592
298.65	-0.357
299.02	0.708
299.38	1.487
299.75	0.701
300.12	-0.231
300.48	-0.230
300.85	1.012
301.22	0.559
301.59	-0.457
301.95	-0.339
302.32	1.111
302.69	0.110
303.05	0.544
303.42	0.998
303.79	1.354
304.15	1.052
304.52	-0.211
304.89	0.628
305.25	1.035
305.62	0.104
305.99	0.103
306.35	-0.202
306.72	0.827
307.09	0.102
307.45	1.139
307.82	0.605
308.19	1.009
308.55	2.218
308.92	0.195
309.29	1.341
309.65	0.390
310.02	0.990
310.38	-0.295
310.75	0.874
311.12	1.246
311.48	0.391
311.85	1.330
312.22	0.759
312.58	1.315
312.95	0.000
313.31	1.716
313.68	2.289
314.05	2.620
314.41	1.730
314.78	0.817
315.14	1.633
315.51	1.662
315.87	1.980
316.24	1.644
316.61	1.687
316.97	0.000
317.34	0.353
317.70	2.795
318.07	1.235
318.43	1.616
318.80	2.676
319.16	1.288
319.53	-0.086
319.89	0.263
320.26	1.601
320.62	1.862
320.99	1.200
321.35	1.479
321.72	1.302
322.08	1.082
322.45	1.807
322.81	1.444
323.18	0.531
323.54	1.638
323.91	1.423
324.27	1.119
324.64	1.427
325.00	0.580
325.37	1.720
325.73	1.818
326.10	2.758
326.46	2.606
326.83	3.203
327.19	2.992
327.56	1.502
327.92	1.338
328.29	2.177
328.65	0.754
329.01	0.592
329.38	1.685
329.74	1.541
330.11	2.226
330.47	1.348
330.84	1.637
331.20	1.667
331.56	0.260
331.93	2.762
332.29	1.356
332.66	1.910
333.02	0.670
333.38	0.587
333.75	1.347
334.11	1.835
334.48	2.063
334.84	2.124
335.20	1.175
335.57	2.024
335.93	2.893
336.29	1.830
336.66	0.841
337.02	1.839
337.38	2.466
337.75	0.744
338.11	2.271
338.47	1.654
338.84	1.100
339.20	1.685
339.56	0.988
339.93	1.970
340.29	1.691
340.65	2.109
341.02	2.235
341.38	2.344
341.74	1.937
342.11	1.850
342.47	1.430
342.83	2.657
343.20	1.962
343.56	1.203
343.92	1.761
344.28	1.953
344.65	3.023
345.01	1.560
345.37	2.644
345.73	0.857
346.10	1.950
346.46	1.345
346.82	2.846
347.19	2.215
347.55	2.580
347.91	2.377
348.27	1.214
348.63	2.589
349.00	1.939
349.36	2.677
349.72	1.860
350.08	2.600
350.45	1.217
350.81	2.187
351.17	1.955
351.53	1.592
351.89	2.354
352.26	0.821
352.62	1.716
352.98	2.366
353.34	1.643
353.70	1.541
354.07	1.490
354.43	1.519
354.79	1.645
355.15	1.398
355.51	2.412
355.87	1.945
356.24	1.749
356.60	1.626
356.96	2.298
357.32	1.338
357.68	1.245
358.04	1.497
358.40	0.896
358.77	1.316
359.13	1.477
359.49	0.446
359.85	1.813
360.21	2.080
360.57	1.938
360.93	1.763
361.29	2.246
361.66	2.028
362.02	3.062
362.38	1.687
362.74	2.235
363.10	2.613
363.46	1.731
363.82	1.420
364.18	1.407
364.54	2.144
364.90	2.408
365.26	0.759
365.62	2.667
365.98	1.021
366.35	2.013
366.71	2.313
367.07	2.097
367.43	2.429
367.79	2.256
368.15	2.609
368.51	2.233
368.87	2.417
369.23	2.467
369.59	1.844
369.95	2.299
370.31	2.026
370.67	2.132
371.03	1.662
371.39	1.612
371.75	1.376
372.11	2.033
372.47	1.828
372.83	2.618
373.19	2.135
373.55	1.965
373.91	1.772
374.27	2.264
374.63	1.962
374.99	2.255
375.35	2.597
375.71	1.935
376.07	2.066
376.42	2.330
376.78	2.983
377.14	2.433
377.50	1.961
377.86	3.017
378.22	2.934
378.58	2.913
378.94	2.406
379.30	2.460
379.66	2.881
380.02	1.904
380.38	2.823
380.74	3.268
381.09	2.729
381.45	3.068
381.81	2.459
382.17	3.029
382.53	2.515
382.89	3.160
383.25	2.345
383.61	1.794
383.97	2.650
384.32	2.691
384.68	2.320
385.04	3.181
385.40	3.182
385.76	2.989
386.12	2.573
386.48	2.471
386.83	3.397
387.19	2.028
387.55	2.230
387.91	2.169
388.27	2.714
388.62	3.207
388.98	2.651
389.34	2.475
389.70	2.615
390.06	3.079
390.42	2.771
390.77	3.371
391.13	2.700
391.49	2.657
391.85	2.061
392.20	2.550
392.56	3.308
392.92	3.708
393.28	3.427
393.64	3.017
393.99	2.731
394.35	3.037
394.71	2.934
395.07	3.114
395.42	3.427
395.78	3.108
396.14	2.436
396.50	2.969
396.85	3.220
397.21	2.840
397.57	2.532
397.92	3.608
398.28	3.639
398.64	2.746
399.00	2.723
399.35	3.089
399.71	3.370
400.07	3.818
400.42	2.561
400.78	2.431
401.14	3.586
401.49	2.445
401.85	2.616
402.21	3.592
402.57	2.934
402.92	3.605
403.28	3.044
403.63	2.088
403.99	3.088
404.35	3.468
404.70	3.173
405.06	3.315
405.42	2.693
405.77	2.999
406.13	3.350
406.49	2.872
406.84	3.657
407.20	2.739
407.55	2.968
407.91	2.451
408.27	3.121
408.62	3.258
408.98	3.018
409.34	2.287
409.69	3.152
410.05	3.165
410.40	3.422
410.76	2.973
411.11	3.390
411.47	3.501
411.83	3.586
412.18	3.614
412.54	3.379
412.89	2.852
413.25	3.273
413.60	3.044
413.96	3.555
414.31	3.059
414.67	3.101
415.03	3.015
415.38	3.279
415.74	2.382
416.09	3.208
416.45	2.567
416.80	2.632
417.16	2.810
417.51	2.677
417.87	3.004
418.22	3.234
418.58	3.098
418.93	3.376
419.29	2.528
419.64	2.581
420.00	2.493
420.35	3.762
420.71	2.585
421.06	2.645
421.42	3.498
421.77	3.393
422.12	3.541
422.48	3.379
422.83	3.888
423.19	3.024
423.54	3.208
423.90	2.650
424.25	3.733
424.61	2.641
424.96	3.130
425.31	3.662
425.67	2.845
426.02	3.376
426.38	2.755
426.73	3.181
427.09	4.268
427.44	2.731
427.79	2.985
428.15	2.797
428.50	2.753
428.85	3.042
429.21	3.085
429.56	3.356
429.92	3.342
430.27	3.518
430.62	3.420
430.98	3.345
431.33	3.177
431.68	3.352
432.04	3.454
432.39	3.374
432.74	2.854
433.10	2.596
433.45	3.010
433.80	3.273
434.16	3.357
434.51	2.878
434.86	2.606
435.22	3.135
435.57	3.538
435.92	2.615
436.28	3.015
436.63	2.731
436.98	3.543
437.34	3.157
437.69	2.532
438.04	3.332
438.39	3.389
438.75	2.656
439.10	3.647
439.45	3.522
439.81	3.107
440.16	3.217
440.51	3.400
440.86	2.890
441.22	3.430
441.57	3.302
441.92	3.492
442.27	3.737
442.63	3.428
442.98	2.882
443.33	3.787
443.68	4.014
444.03	3.763
444.39	4.161
444.74	3.982
445.09	3.447
445.44	3.056
445.79	4.310
446.15	3.649
446.50	3.307
446.85	3.988
447.20	3.917
447.55	3.347
447.91	3.246
448.26	3.436
448.61	3.719
448.96	4.238
449.31	3.659
449.66	2.832
450.02	3.903
450.37	4.156
450.72	3.337
451.07	3.360
451.42	3.408
451.77	2.390
452.12	3.217
452.47	2.733
452.83	3.266
453.18	3.211
453.53	2.700
453.88	4.362
454.23	3.559
454.58	3.308
454.93	2.791
455.28	3.432
455.63	2.615
455.98	3.352
456.34	3.062
456.69	3.645
457.04	2.423
457.39	3.160
457.74	4.027
458.09	3.185
458.44	3.125
458.79	2.888
459.14	3.723
459.49	2.999
459.84	2.991
460.19	3.054
460.54	3.066
460.89	3.441
461.24	2.586
461.59	3.431
461.94	2.795
462.29	3.303
462.64	3.380
462.99	3.139
463.34	3.115
463.69	3.810
464.04	3.446
464.39	3.531
464.74	3.364
465.09	3.172
465.44	3.433
465.79	3.490
466.14	3.648
466.49	3.684
466.84	3.636
467.19	3.468
467.54	2.703
467.89	3.161
468.24	3.269
468.59	2.779
468.94	3.089
469.29	3.179
469.64	2.479
469.99	2.231
470.34	3.403
470.68	3.076
471.03	2.750
471.38	3.336
471.73	2.796
472.08	3.236
472.43	2.950
472.78	3.212
473.13	2.718
473.48	3.505
473.83	3.134
474.17	3.283
474.52	2.826
474.87	3.544
475.22	3.718
475.57	3.115
475.92	3.783
476.27	3.621
476.61	4.361
476.96	3.441
477.31	4.158
477.66	4.250
478.01	3.305
478.36	4.337
478.70	3.892
479.05	3.937
479.40	3.702
479.75	4.371
480.10	3.790
480.45	3.920
480.79	3.991
481.14	3.814
481.49	3.816
481.84	4.352
482.19	3.699
482.53	3.892
482.88	3.899
483.23	3.468
483.58	3.493
483.92	3.989
484.27	3.556
484.62	3.960
484.97	4.082
485.31	4.189
485.66	4.078
486.01	4.377
486.36	4.715
486.70	5.090
487.05	5.210
487.40	4.992
487.75	5.216
488.09	4.734
488.44	4.716
488.79	4.384
489.13	4.200
489.48	3.806
489.83	3.702
490.17	3.807
490.52	4.475
490.87	3.934
491.22	3.943
491.56	4.352
491.91	3.969
492.26	4.197
492.60	4.023
492.95	4.081
493.30	4.124
493.64	4.030
493.99	3.904
494.34	3.528
494.68	3.769
495.03	4.802
495.37	3.817
495.72	4.036
496.07	3.988
496.41	4.033
496.76	4.462
497.11	4.161
497.45	3.841
497.80	3.998
498.14	3.991
498.49	3.768
498.84	3.565
499.18	3.779
499.53	3.857
499.87	4.264
500.22	2.939
500.56	3.734
500.91	3.799
501.26	4.091
501.60	3.844
501.95	4.255
502.29	3.598
502.64	3.935
502.98	4.400
503.33	3.672
503.67	3.969
504.02	3.853
504.36	3.977
504.71	3.721
505.06	4.093
505.40	3.565
505.75	4.372
506.09	4.328
506.44	4.596
506.78	4.358
507.13	4.472
507.47	4.216
507.82	4.451
508.16	3.346
508.51	3.188
508.85	3.779
509.19	3.979
509.54	3.987
509.88	4.128
510.23	4.128
510.57	4.592
510.92	4.064
511.26	3.800
511.61	3.863
511.95	4.246
512.30	4.431
512.64	3.448
512.98	3.602
513.33	3.982
513.67	4.182
514.02	4.446
514.36	4.552
514.70	3.594
515.05	3.910
515.39	3.675
515.74	4.560
516.08	3.856
516.42	4.553
516.77	4.101
517.11	3.455
517.46	4.242
517.80	4.169
518.14	4.298
518.49	4.284
518.83	4.311
519.17	3.662
519.52	4.560
519.86	4.013
520.20	4.686
520.55	4.381
520.89	3.660
521.23	3.685
521.58	4.237
521.92	4.023
522.26	3.207
522.61	3.819
522.95	4.383
523.29	3.851
523.64	3.812
523.98	4.564
524.32	4.699
524.66	3.699
525.01	4.360
525.35	3.963
525.69	4.408
526.04	3.444
526.38	4.425
526.72	3.864
527.06	4.399
527.41	3.732
527.75	3.860
528.09	4.309
528.43	3.848
528.78	3.988
529.12	3.784
529.46	3.541
529.80	4.405
530.15	4.464
530.49	3.440
530.83	3.896
531.17	3.644
531.51	4.212
531.86	4.267
532.20	4.268
532.54	3.770
532.88	4.061
533.22	3.889
533.57	3.751
533.91	4.265
534.25	3.731
534.59	3.908
534.93	3.735
535.27	3.549
535.62	4.719
535.96	4.067
536.30	4.289
536.64	3.904
536.98	4.736
537.32	4.074
537.66	3.556
538.01	3.988
538.35	3.898
538.69	3.305
539.03	3.556
539.37	4.417
539.71	4.144
540.05	4.556
540.39	3.606
540.73	4.311
541.07	4.047
541.42	4.194
541.76	4.033
542.10	3.679
542.44	3.593
542.78	4.562
543.12	4.589
543.46	3.785
543.80	3.717
544.14	3.950
544.48	4.374
544.82	5.266
545.16	4.353
545.50	3.415
545.84	3.368
546.18	5.432
546.52	3.567
546.86	4.403
547.20	3.880
547.54	3.683
547.88	3.677
548.22	3.743
548.56	4.447
548.90	4.597
549.24	4.438
549.58	4.732
549.92	3.508
550.26	4.013
550.60	3.574
550.94	4.204
551.28	4.092
551.62	3.841
551.96	4.078
552.30	4.589
552.64	4.294
552.98	4.242
553.32	4.823
553.66	3.859
554.00	3.657
554.34	4.376
554.68	3.938
555.02	4.336
555.36	4.602
555.69	3.908
556.03	3.657
556.37	4.193
556.71	4.122
557.05	4.217
557.39	3.981
557.73	3.170
558.07	3.974
558.41	3.787
558.75	4.057
559.08	3.688
559.42	3.155
559.76	4.206
560.10	3.483
560.44	3.760
560.78	4.250
561.12	3.818
561.45	4.440
561.79	4.029
562.13	4.744
562.47	4.131
562.81	3.481
563.15	3.977
563.48	3.853
563.82	4.534
564.16	3.392
564.50	4.291
564.84	3.481
565.17	3.765
565.51	3.855
565.85	2.672
566.19	3.053
566.52	3.452
566.86	4.358
567.20	4.078
567.54	3.877
567.88	4.536
568.21	4.447
568.55	4.412
568.89	4.675
569.23	4.267
569.56	4.416
569.90	4.312
570.24	4.789
570.57	4.939
570.91	4.685
571.25	4.773
571.59	5.038
571.92	4.717
572.26	4.844
572.60	5.105
572.93	4.926
573.27	4.636
573.61	5.003
573.95	4.783
574.28	5.279
574.62	4.957
574.96	4.896
575.29	4.957
575.63	5.059
575.97	5.054
576.30	4.836
576.64	5.058
576.98	4.875
577.31	5.015
577.65	5.159
577.98	5.139
578.32	4.872
578.66	5.032
578.99	5.140
579.33	5.024
579.67	4.986
580.00	5.147
580.34	5.105
580.67	4.744
581.01	4.608
581.35	4.831
581.68	4.969
582.02	5.309
582.35	5.130
582.69	5.080
583.02	5.027
583.36	5.258
583.70	4.976
584.03	4.656
584.37	5.159
584.70	4.719
585.04	4.766
585.37	4.993
585.71	4.898
586.04	4.954
586.38	4.968
586.72	4.613
587.05	4.630
587.39	4.687
587.72	4.737
588.06	5.077
588.39	4.929
588.73	4.762
589.06	4.881
589.40	4.579
589.73	4.563
590.07	4.609
590.40	5.003
590.73	4.666
591.07	4.356
591.40	4.160
591.74	4.412
592.07	4.872
592.41	4.219
592.74	4.650
593.08	4.299
593.41	4.549
593.75	4.684
594.08	4.908
594.41	4.872
594.75	4.650
595.08	4.307
595.42	4.675
595.75	4.617
596.09	4.947
596.42	4.801
596.75	4.863
597.09	4.889
597.42	4.450
597.75	4.312
598.09	4.762
598.42	5.147
598.76	4.280
599.09	4.130
599.42	4.760
599.76	4.655
600.09	4.671
600.42	4.972
600.76	4.491
601.09	4.713
601.42	4.669
601.76	4.552
602.09	4.503
602.42	4.544
602.76	4.576
603.09	4.552
603.42	4.335
603.76	5.109
604.09	5.429
604.42	4.844
604.76	4.680
605.09	4.787
605.42	4.904
605.75	4.615
606.09	4.367
606.42	4.086
606.75	4.348
607.09	4.109
607.42	4.933
607.75	4.103
608.08	4.499
608.42	3.748
608.75	4.934
609.08	4.032
609.41	4.102
609.75	4.598
610.08	4.617
610.41	4.121
610.74	4.664
611.07	4.041
611.41	4.978
611.74	4.157
612.07	4.021
612.40	4.325
612.73	4.108
613.07	4.254
613.40	4.812
613.73	4.237
614.06	4.367
614.39	4.130
614.72	4.318
615.06	4.187
615.39	3.528
615.72	4.171
616.05	4.128
616.38	4.440
616.71	4.336
617.05	4.100
617.38	4.601
617.71	4.320
618.04	4.533
618.37	4.536
618.70	4.129
619.03	3.226
619.36	4.069
619.69	4.036
620.03	4.206
620.36	3.374
620.69	3.578
621.02	3.609
621.35	3.411
621.68	4.411
622.01	3.416
622.34	2.859
622.67	2.887
623.00	2.159
623.33	3.583
623.66	3.891
623.99	3.489
624.32	4.613
624.65	3.218
624.99	3.381
625.32	4.050
625.65	3.844
625.98	3.593
626.31	4.040
626.64	3.736
626.97	3.151
627.30	2.278
627.63	3.376
627.96	3.679
628.29	3.891
628.62	2.267
628.95	2.717
629.28	2.889
629.61	3.367
629.94	2.594
630.26	2.203
630.59	2.332
630.92	2.338
631.25	4.025
631.58	3.107
631.91	2.156
632.24	2.402
632.57	2.562
632.90	2.608
633.23	2.653
633.56	2.857
633.89	1.860
634.22	2.183
634.55	3.340
634.88	1.407
635.20	2.476
635.53	1.243
635.86	2.059
636.19	3.818
636.52	3.165
636.85	2.043
637.18	1.663
637.51	0.860
637.83	2.658
638.16	2.995
638.49	1.174
638.82	2.706
639.15	1.604
639.48	3.349
639.81	2.771
640.13	3.651
640.46	1.091
640.79	1.961
641.12	3.478
641.45	0.376
641.77	4.493
642.10	1.312
642.43	2.527
642.76	2.168
643.09	2.877
643.41	1.681
643.74	0.552
644.07	1.103
644.40	0.707
644.73	1.306
645.05	-0.734
645.38	1.727
645.71	1.466
646.04	2.439
646.36	-0.146
646.69	-0.460
647.02	1.682
647.35	2.290
647.67	0.483
648.00	0.637
648.33	1.652
648.66	1.427
648.98	0.952
649.31	0.271
649.64	1.594
649.96	1.459
650.29	-0.834
650.62	0.990
650.94	0.450
651.27	-0.299
651.60	1.023
651.92	0.000
652.25	2.460
652.58	1.238
652.90	-1.453
653.23	0.563
653.56	-0.428
653.88	1.685
654.21	0.845
654.54	1.012
654.86	2.266
655.19	0.878
655.52	3.671
655.84	5.406
656.17	6.294
656.49	9.159
656.82	10.053
657.15	7.868
657.47	5.903
657.80	4.402
658.13	3.469
658.45	4.308
658.78	5.274
659.10	4.286
659.43	4.518
659.75	3.202
660.08	2.297
660.41	2.399
660.73	0.798
661.06	-0.147
661.38	-1.116
661.71	0.000
662.03	-1.764
662.36	1.252
662.68	0.000
663.01	1.062
663.33	0.189
663.66	2.381
663.98	-0.192
664.31	-0.563
664.63	-2.312
664.96	0.907
665.28	-1.996
665.61	0.874
665.93	-2.679
666.26	1.254
666.58	-1.292
666.91	-0.935
667.23	-1.333
667.56	-3.156
667.88	-1.400
668.21	-4.492
668.53	-3.668
668.86	-1.179
669.18	-3.259
669.50	-0.596
669.83	-2.400
670.15	-3.346
670.48	-0.794
670.80	-1.721
671.13	-0.567
671.45	0.394
671.77	1.507
672.10	-1.667
672.42	-2.104
672.75	-0.461
673.07	-1.045
673.39	-1.233
673.72	-0.168
674.04	-0.172
674.37	-1.968
674.69	1.940
675.01	-4.571
675.34	-3.244
675.66	-0.749
675.98	0.000
676.31	-0.586
676.63	1.521
676.95	1.149
677.28	-1.210
677.60	-4.724
677.92	-2.879
678.25	-1.280
678.57	-1.423
678.89	-0.341
679.22	-0.697
679.54	-1.709
679.86	-2.542
680.18	-2.819
680.51	1.101
680.83	1.146
681.15	-1.897
681.48	-0.518
681.80	-1.554
682.12	0.175
682.44	-0.167
682.77	0.887
683.09	-3.788
683.41	-3.101
683.73	-1.518
684.06	-0.923
684.38	-2.147
684.70	-2.154
685.02	-1.377
685.34	-0.998
685.67	-1.893
685.99	-0.613
686.31	0.000
686.63	-0.948
686.96	-0.631
687.28	-1.466
687.60	-3.030
687.92	-2.412
688.24	0.501
688.56	-1.379
688.89	-1.270
689.21	-2.153
689.53	-4.118
689.85	-2.959
690.17	-3.519
690.49	-2.390
690.82	-0.990
691.14	-3.239
691.46	-0.765
691.78	0.184
692.10	-1.101
692.42	-3.036
692.74	0.000
693.06	-2.222
693.39	-0.380
693.71	-3.383
694.03	-0.558
694.35	-0.952
694.67	-3.491
694.99	-3.617
695.31	-3.091
695.63	-3.247
695.95	-2.692
696.27	-3.736
696.59	-1.991
696.91	-2.703
697.23	-2.637
697.56	-3.259
697.88	-2.652
698.20	-2.260
698.52	1.894
698.84	-1.247
699.16	1.837
699.48	-0.628
699.80	-2.340
700.12	-1.310
700.44	-2.765
700.76	-2.375
701.08	-4.600
701.40	-4.922
701.72	-3.980
702.04	-2.674
702.36	-8.377
702.68	-3.912
703.00	-7.335
703.32	-6.650
703.64	-3.667
703.96	-1.671
704.28	-2.457
704.60	-2.532
704.91	-1.786
705.23	-5.205
705.55	-4.457
705.87	-5.758
706.19	-2.454
706.51	-8.434
706.83	-8.934
707.15	-7.672
707.47	-5.374
707.79	-4.803
708.11	-5.932
708.43	-1.075
708.74	-5.580
709.06	-5.104
709.38	-1.643
709.70	-1.985
710.02	-4.651
710.34	-3.723
710.66	-7.542
710.98	-6.011
711.29	-4.396
711.61	-6.780
711.93	-7.977
712.25	-4.324
712.57	-3.540
712.89	-4.706
713.20	-5.030
713.52	-6.358
713.84	-5.014
714.16	-3.947
714.48	-3.093
714.80	-3.636
715.11	-8.136
715.43	-6.631
715.75	-5.263
716.07	-5.801
716.39	-6.831
716.70	-7.530
717.02	-8.197
717.34	-11.498
717.66	-8.725
717.97	-10.274
718.29	-10.997
718.61	-9.211
718.93	-7.120
719.24	-9.006
719.56	-6.748
719.88	-4.805
720.20	-9.032
720.51	-8.075
720.83	-9.375
721.15	-11.513
721.46	-11.301
721.78	-10.667
722.10	-11.974
722.42	-12.081
722.73	-9.355
723.05	-9.123
723.37	-9.375
723.68	-7.885
724.00	-9.025
724.32	-10.563
724.63	-8.392
724.95	-6.028
725.27	-6.620
725.58	-12.014
725.90	-8.621
726.22	-6.270
726.53	-7.468
726.85	-5.031
727.16	-4.532
727.48	-3.670
727.80	-8.609
728.11	-12.367
728.43	-10.438
728.74	-12.040
729.06	-10.927
729.38	-7.792
729.69	-7.047
730.01	-3.274
730.32	-9.394
730.64	-6.918
730.96	-9.938
731.27	-4.469
731.59	-4.396
731.90	-6.753
732.22	-5.729
732.53	-8.840
732.85	-5.714
733.16	-6.452
733.48	-9.451
733.80	-7.242
734.11	-7.407
734.43	-7.027
734.74	-2.025
735.06	-5.528
735.37	-7.027
735.69	-6.757
736.00	-6.215
736.32	-6.739
736.63	-6.667
736.95	-9.195
737.26	-8.485
737.58	-11.212
737.89	-6.765
738.21	-12.232
738.52	-10.492
738.83	-9.898
739.15	-11.702
739.46	-8.503
739.78	-8.589
740.09	-5.158
740.41	-4.373
740.72	-11.000
741.04	-9.385
741.35	-8.772
741.66	-10.980
741.98	-12.705
742.29	-14.226
742.61	-11.404
742.92	-12.308
743.23	-6.859
743.55	-14.341
743.86	-12.000
744.18	-16.116
744.49	-17.722
744.80	-12.757
745.12	-14.346
745.43	-10.163
745.74	-12.931
746.06	-13.136
746.37	-11.392
746.68	-9.756
747.00	-12.917
747.31	-16.738
747.62	-8.077
747.94	-10.121
748.25	-9.237
748.56	-12.653
748.88	-16.667
749.19	-12.069
749.50	-15.152
749.82	-9.237
750.13	-5.338
750.44	-10.333
750.75	-10.154
751.07	-8.923
751.38	-11.041
751.69	-10.224
752.01	-10.356
752.32	-8.497
752.63	-11.905
752.94	-12.457
753.26	-13.755
753.57	-13.333
753.88	-15.730
754.19	-8.039
754.51	-9.968
754.82	-7.395
755.13	-6.557
755.44	-11.604
755.75	-8.553
756.07	-4.179
756.38	-7.547
756.69	-4.518
757.00	-8.587
757.31	-6.557
757.63	-5.371
757.94	-5.164
758.25	-4.063
758.56	-4.139
758.87	-3.409
759.18	-6.667
759.50	-6.516
759.81	-5.602
760.12	-6.739
760.43	-9.115
760.74	-4.433
761.05	-7.500
761.36	-7.470
761.67	-6.091
761.99	-5.946
762.30	-8.841
762.61	-8.581
762.92	-11.194
763.23	-8.240
763.54	-13.669
763.85	-9.278
764.16	-8.418
764.47	-10.915
764.78	-8.307
765.10	-9.384
765.41	-4.615
765.72	-7.407
766.03	-6.780
766.34	-9.718
766.65	-10.105
766.96	-11.952
767.27	-18.433
767.58	-17.910
767.89	-6.250
768.20	-13.615
768.51	-13.889
768.82	-10.040
769.13	-12.121
769.44	-14.615
769.75	-6.498
770.06	-11.538
770.37	-9.055
770.68	-18.298
770.99	-18.219
771.30	-6.296
771.61	-11.407
771.92	-11.481
772.23	-13.360
772.54	-19.907
772.85	-12.903
773.16	-10.952
773.47	-20.635
773.78	-19.459
774.09	-22.159
774.39	-9.500
774.70	-12.568
775.01	-24.390
775.32	-23.529
775.63	-20.859
775.94	-29.936
776.25	-21.290
776.56	-24.359
776.87	-21.769
777.18	-25.517
777.48	-27.972
777.79	-25.000
778.10	-35.294
778.41	-20.833
778.72	-25.517
779.03	-24.691
779.34	-24.242
779.65	-20.207
779.95	-16.111
780.26	-19.886
780.57	-23.226
780.88	-28.261
781.19	-25.161
781.50	-14.118
781.80	-20.968
782.11	-21.164
782.42	-19.192
782.73	-25.749
783.04	-19.553
783.34	-23.636
783.65	-31.373
783.96	-19.255
784.27	-21.429
784.57	-27.815
784.88	-27.857
785.19	-36.220
785.50	-25.197
785.81	-27.820
786.11	-29.231
786.42	-32.374
786.73	-33.813
787.04	-23.308
787.34	-31.967
787.65	-39.200
787.96	-31.343
788.26	-18.881
788.57	-16.084
788.88	-22.368
789.19	-20.915
789.49	-28.082
789.80	-29.787
790.11	-32.283
790.41	-24.219
790.72	-36.441
791.03	-45.631
791.33	-27.826
791.64	-27.193
791.95	-39.286
792.25	-35.238
792.56	-30.357
792.87	-43.750
793.17	-33.929
793.48	-42.708
793.79	-71.084
794.09	-38.532
794.40	-40.367
794.70	-23.810
795.01	-25.325
795.32	-27.397
795.62	-22.535
795.93	-24.242
796.23	-24.590
796.54	-39.286
796.85	-43.617
797.15	-48.913
797.46	-63.014
797.76	-55.000
798.07	-40.217
798.37	-49.485
798.68	-68.831
798.99	-55.172
799.29	-42.697
799.60	-39.362
799.90	-49.398
800.21	-67.692
800.51	-65.672
800.82	-72.059
801.12	-72.603
801.43	-75.000
801.73	-84.746
802.04	-69.697
802.34	-93.333
802.65	-66.102
802.95	-53.731
803.26	-83.051
803.56	-65.753
803.87	-61.429
804.17	-49.315
804.48	-89.474
804.78	-52.778
805.09	-91.379
805.39	-50.000
805.70	-63.380
806.00	-58.537
806.30	-57.831
806.61	-65.753
806.91	-33.654
807.22	-44.444
807.52	-57.471
807.83	-47.222
808.13	-37.349
808.43	-46.067
808.74	-55.000
809.04	-76.471
809.35	-45.333
809.65	-64.286
809.95	-54.795
810.26	-94.737
810.56	-81.034
810.86	-54.412
811.17	-77.193
811.47	-77.049
811.77	-128.889
812.08	-74.576
812.38	-78.333
812.69	-67.241
812.99	-90.566
813.29	-130.769
813.59	-78.000
813.90	-77.193
814.20	-98.182
814.50	-46.479
814.81	-51.282
815.11	-62.295
815.41	-62.687
815.72	-53.448
816.02	-83.929
816.32	-75.556
816.62	-97.727
816.93	-91.111
817.23	-72.222
817.53	-91.489
817.84	-100.000
818.14	-141.176
818.44	-69.388
818.74	-104.444
819.04	-135.897
819.35	-131.429
819.65	-200.000
819.95	-84.906
820.25	-75.556
820.56	-107.143
820.86	-143.750
821.16	-110.256
821.46	-123.256
821.76	-106.000
822.07	-69.643
822.37	-100.000
822.67	-97.872
822.97	-164.865
823.27	-115.000
823.57	-77.551
823.88	-91.111
824.18	-82.500
824.48	-133.333
824.78	-192.000
825.08	-163.636
825.38	-86.667
825.69	-87.234
825.99	-125.000
826.29	-162.857
826.59	-115.385
826.89	-123.256
827.19	-96.000
827.49	-117.647
827.79	-97.917
828.09	-154.054
828.39	-173.333
828.70	-100.000
829.00	-100.000
829.30	-189.286
829.60	-111.765
829.90	-97.826
830.20	-154.286
830.50	-148.276
830.80	-244.444
831.10	-142.308
831.40	-123.529
831.70	-223.810
832.00	-116.129
832.30	-358.824
832.60	-225.000
832.90	-415.385
833.20	-257.895
833.50	-275.000
833.80	-300.000
834.10	-290.476
834.40	-122.222
834.70	-125.000
835.00	-160.000
835.30	-126.471
835.60	-150.000
835.90	-184.000
836.20	-250.000
836.50	-188.000
836.80	-136.364
837.10	-159.259
837.40	-181.481
837.70	-387.500
838.00	-153.571
838.30	-221.739
838.60	-155.172
838.90	-321.429
839.19	-221.739
839.49	-466.667
839.79	-182.609
840.09	-275.000
840.39	-250.000
840.69	-106.452
840.99	-157.143
841.29	-333.333
841.59	-278.947
841.88	-84.615
842.18	-173.077
842.48	-420.000
842.78	-215.000
843.08	-133.333
843.38	-132.258
843.68	-327.778
843.97	-120.588
844.27	-243.750
844.57	-289.474
844.87	-520.000
845.17	-260.000
845.47	-185.714
845.76	-238.095
846.06	-577.778
846.36	-329.412
846.66	-173.077
846.96	-386.667
847.25	-258.824
847.55	-156.522
847.85	-250.000
848.15	-188.235
848.44	-481.818
848.74	-204.762
849.04	-225.000
849.34	-375.000
849.63	-156.522
849.93	2250.000
850.23	-280.000
850.53	-150.000
850.82	-463.636
851.12	-213.636
851.42	-445.455
851.71	-269.231
852.01	-295.000
852.31	-361.538
852.61	-257.895
852.90	-375.000
853.20	-266.667
853.50	-577.778
853.79	-204.762
854.09	-236.364
854.39	-491.667
854.68	-138.710
854.98	-184.615
855.28	-244.444
855.57	-185.714
855.87	-168.000
856.17	-190.909
856.46	-151.852
856.76	-255.556
857.05	-200.000
857.35	-200.000
857.65	-415.385
857.94	-209.524
858.24	-170.370
858.53	-178.261
858.83	-229.412
859.13	-288.235
859.42	-252.941
859.72	-350.000
860.01	-240.000
860.31	-544.444
860.60	-450.000
860.90	-306.667
861.20	-233.333
861.49	-330.769
861.79	-140.000
862.08	-369.231
862.38	-93.750
862.67	-211.765
862.97	-293.750
863.26	-544.444
863.56	-480.000
863.85	-454.545
864.15	-216.667
864.44	-1666.667
864.74	-307.143
865.03	-293.750
865.33	-560.000
865.62	-148.387
865.92	-209.091
866.21	-234.783
866.51	-342.857
866.80	-1260.000
867.10	-450.000
867.39	-425.000
867.69	5300.000
867.98	-600.000
868.27	-270.588
868.57	-6300.000
868.86	-620.000
869.16	-247.619
869.45	-187.500
869.75	-445.455
870.04	-828.571
870.33	-391.667
870.63	-728.571
870.92	-1100.000
871.22	-625.000
871.51	-490.909
871.80	-1733.333
872.10	-2750.000
>>>>>End Processed Spectral Data<<<<<
