SpectraSuite Data File
++++++++++++++++++++++++++++++++++++
Date: Wed May 13 21:25:41 PDT 2015
User: schluterlab
Dark Spectrum Present: Yes
Reference Spectrum Present: Yes
Number of Sampled Component Spectra: 1
Spectrometers: USB2E3373
Integration Time (usec): 3000 (USB2E3373)
Spectra Averaged: 3 (USB2E3373)
Boxcar Smoothing: 0 (USB2E3373)
Correct for Electrical Dark: No (USB2E3373)
Strobe/Lamp Enabled: No (USB2E3373)
Correct for Detector Non-linearity: No (USB2E3373)
Correct for Stray Light: No (USB2E3373)
Number of Pixels in Processed Spectrum: 2048
>>>>>Begin Processed Spectral Data<<<<<
178.53	0.000
178.91	750.000
179.29	175.000
179.67	-900.000
180.04	-366.667
180.42	180.000
180.80	1600.000
181.18	450.000
181.56	-500.000
181.94	-375.000
182.31	-81.818
182.69	192.308
183.07	-200.000
183.45	333.333
183.83	88.889
184.20	285.714
184.58	-233.333
184.96	233.333
185.34	214.286
185.72	0.000
186.09	-1600.000
186.47	-240.000
186.85	260.000
187.23	-500.000
187.61	500.000
187.98	1300.000
188.36	-137.500
188.74	0.000
189.12	-72.727
189.49	-10.000
189.87	125.000
190.25	440.000
190.63	900.000
191.00	-120.000
191.38	140.000
191.76	650.000
192.14	175.000
192.51	-63.158
192.89	800.000
193.27	675.000
193.65	-320.000
194.02	172.727
194.40	200.000
194.78	100.000
195.15	140.000
195.53	-200.000
195.91	-125.000
196.29	166.667
196.66	0.000
197.04	750.000
197.42	-260.000
197.79	-140.000
198.17	-137.500
198.55	-300.000
198.92	200.000
199.30	-500.000
199.68	-60.000
200.05	500.000
200.43	250.000
200.81	-500.000
201.18	-220.000
201.56	-250.000
201.94	775.000
202.31	-8.696
202.69	-100.000
203.07	-566.667
203.44	-220.000
203.82	-566.667
204.19	-160.000
204.57	0.000
204.95	-233.333
205.32	0.000
205.70	100.000
206.08	-100.000
206.45	-133.333
206.83	475.000
207.20	-466.667
207.58	-110.000
207.96	-1600.000
208.33	-171.429
208.71	-1900.000
209.08	150.000
209.46	450.000
209.84	0.000
210.21	160.000
210.59	1500.000
210.96	160.000
211.34	1000.000
211.71	-1200.000
212.09	-266.667
212.46	-250.000
212.84	0.000
213.22	-175.000
213.59	-1400.000
213.97	-100.000
214.34	-500.000
214.72	-100.000
215.09	175.000
215.47	33.333
215.84	600.000
216.22	-87.500
216.59	-150.000
216.97	466.667
217.34	188.889
217.72	0.000
218.09	233.333
218.47	-300.000
218.84	-242.857
219.22	-150.000
219.59	-366.667
219.97	-225.000
220.34	-87.500
220.72	-200.000
221.09	0.000
221.47	-133.333
221.84	-700.000
222.22	0.000
222.59	1500.000
222.97	-333.333
223.34	-83.333
223.72	-1800.000
224.09	-1000.000
224.46	-81.818
224.84	-62.500
225.21	-171.429
225.59	-350.000
225.96	-300.000
226.34	-30.000
226.71	-157.143
227.08	350.000
227.46	-25.000
227.83	0.000
228.21	-106.250
228.58	-500.000
228.95	5.882
229.33	-6.250
229.70	-125.000
230.08	-30.769
230.45	-150.000
230.82	-83.333
231.20	371.429
231.57	-225.000
231.95	800.000
232.32	-16.667
232.69	-17.647
233.07	-1200.000
233.44	-52.174
233.81	-1050.000
234.19	-12.500
234.56	-140.000
234.93	-86.667
235.31	-5.263
235.68	-76.923
236.05	-76.923
236.43	-16.667
236.80	-15.152
237.17	-93.333
237.55	-76.471
237.92	-68.966
238.29	-29.630
238.67	-41.667
239.04	-64.516
239.41	-25.532
239.79	-10.638
240.16	-18.605
240.53	-28.571
240.91	-19.643
241.28	-19.643
241.65	-6.452
242.02	-10.526
242.40	4.348
242.77	-27.536
243.14	-19.231
243.51	-14.894
243.89	-10.577
244.26	2.830
244.63	-5.769
245.00	-6.250
245.38	-7.563
245.75	-14.754
246.12	-9.023
246.49	-14.634
246.87	-21.008
247.24	-0.676
247.61	-5.298
247.98	-12.179
248.36	-8.284
248.73	-4.494
249.10	-4.040
249.47	-8.065
249.84	-3.158
250.22	-4.478
250.59	-6.542
250.96	-1.364
251.33	-9.091
251.70	-1.674
252.08	-7.950
252.45	-4.115
252.82	-1.141
253.19	-3.891
253.56	-1.079
253.94	-1.068
254.31	-5.282
254.68	-2.013
255.05	0.000
255.42	-3.497
255.79	-1.840
256.16	-0.315
256.54	-5.397
256.91	-6.329
257.28	0.000
257.65	-5.414
258.02	-4.106
258.39	-1.462
258.76	-2.907
259.14	-4.830
259.51	-4.494
259.88	-4.065
260.25	-4.722
260.62	-4.775
260.99	-0.796
261.36	1.036
261.73	-4.444
262.10	-4.071
262.47	-3.951
262.85	-3.980
263.22	-1.538
263.59	-2.078
263.96	-2.920
264.33	-5.769
264.70	-0.930
265.07	-1.852
265.44	-0.230
265.81	-3.432
266.18	-0.228
266.55	-4.585
266.92	-3.390
267.29	-2.469
267.66	-0.849
268.03	1.029
268.40	-3.178
268.77	-2.273
269.14	-0.612
269.51	0.205
269.88	-1.833
270.25	-2.542
270.62	-5.533
270.99	-0.591
271.36	-0.595
271.73	-2.209
272.10	-0.190
272.47	-2.303
272.84	-0.787
273.21	-1.370
273.58	-2.459
273.95	-4.340
274.32	-2.612
274.69	-1.821
275.06	0.883
275.43	-2.260
275.80	-2.482
276.17	-1.473
276.54	-1.421
276.91	0.348
277.28	-2.708
277.65	-1.573
278.02	0.357
278.39	-3.020
278.76	0.000
279.13	-1.372
279.50	-1.552
279.87	-1.812
280.23	-1.982
280.60	-2.941
280.97	-0.325
281.34	-0.315
281.71	-2.439
282.08	-2.222
282.45	0.000
282.82	-1.757
283.19	-0.305
283.56	-1.875
283.92	-1.376
284.29	-2.808
284.66	-3.295
285.03	-3.094
285.40	-0.302
285.77	-1.351
286.14	-1.216
286.51	-0.600
286.87	-1.538
287.24	-1.327
287.61	-2.560
287.98	-1.029
288.35	-2.683
288.72	0.000
289.08	0.712
289.45	-0.881
289.82	0.151
290.19	-0.701
290.56	-2.131
290.93	-2.348
291.29	-0.821
291.66	-0.820
292.03	-1.771
292.40	-1.346
292.77	-0.134
293.13	-0.139
293.50	-0.261
293.87	0.267
294.24	-1.852
294.60	-0.260
294.97	-0.926
295.34	-2.111
295.71	-3.154
296.08	-1.963
296.44	-1.913
296.81	-1.096
297.18	-0.625
297.55	-1.651
297.91	-1.366
298.28	-0.726
298.65	-1.108
299.02	-0.488
299.38	-1.718
299.75	-1.322
300.12	-1.860
300.48	-1.053
300.85	-0.231
301.22	-1.394
301.59	-1.643
301.95	-1.626
302.32	-2.450
302.69	-2.486
303.05	-2.104
303.42	-0.682
303.79	-0.421
304.15	-1.095
304.52	-0.108
304.89	-1.772
305.25	-2.195
305.62	-0.434
305.99	-1.088
306.35	0.627
306.72	-1.017
307.09	-1.043
307.45	-0.532
307.82	-1.789
308.19	-2.821
308.55	-1.945
308.92	0.295
309.29	-0.601
309.65	-1.199
310.02	-0.795
310.38	-1.118
310.75	-1.085
311.12	-0.680
311.48	-1.088
311.85	-1.280
312.22	0.967
312.58	-1.449
312.95	-0.995
313.31	-0.184
313.68	-2.290
314.05	-0.284
314.41	-1.441
314.78	-0.095
315.14	0.278
315.51	-1.047
315.87	0.278
316.24	-0.826
316.61	0.183
316.97	-0.278
317.34	-0.624
317.70	-0.089
318.07	0.000
318.43	-1.265
318.80	-0.524
319.16	-0.442
319.53	0.179
319.89	-1.355
320.26	-0.462
320.62	0.185
320.99	-0.678
321.35	-1.590
321.72	-0.962
322.08	-0.830
322.45	0.278
322.81	0.277
323.18	0.268
323.54	0.090
323.91	1.265
324.27	1.170
324.64	-1.307
325.00	-1.050
325.37	-0.256
325.73	-0.926
326.10	-0.589
326.46	0.000
326.83	-0.405
327.19	1.057
327.56	0.725
327.92	-0.644
328.29	1.336
328.65	1.227
329.01	-1.583
329.38	0.261
329.74	0.086
330.11	-0.631
330.47	-0.608
330.84	-0.361
331.20	0.598
331.56	-0.906
331.93	0.345
332.29	0.695
332.66	-0.169
333.02	0.261
333.38	-0.789
333.75	0.512
334.11	1.042
334.48	-0.262
334.84	-0.088
335.20	0.772
335.57	-0.261
335.93	-0.859
336.29	-0.876
336.66	0.171
337.02	0.261
337.38	0.348
337.75	0.517
338.11	0.256
338.47	-0.685
338.84	0.515
339.20	0.265
339.56	0.512
339.93	0.000
340.29	0.598
340.65	-0.342
341.02	0.499
341.38	-0.422
341.74	-0.756
342.11	0.743
342.47	-1.172
342.83	0.408
343.20	0.508
343.56	-0.654
343.92	0.406
344.28	0.487
344.65	-0.653
345.01	0.081
345.37	-0.164
345.73	-0.327
346.10	0.642
346.46	0.000
346.82	-0.241
347.19	-0.554
347.55	0.727
347.91	-0.468
348.27	0.079
348.63	0.000
349.00	0.393
349.36	0.863
349.72	0.000
350.08	0.156
350.45	-0.470
350.81	0.861
351.17	1.309
351.53	0.550
351.89	-0.477
352.26	-1.158
352.62	0.000
352.98	-0.958
353.34	-1.047
353.70	0.234
354.07	0.235
354.43	0.078
354.79	0.401
355.15	0.388
355.51	-0.152
355.87	0.235
356.24	-0.803
356.60	0.078
356.96	0.230
357.32	0.464
357.68	0.688
358.04	0.465
358.40	0.543
358.77	0.765
359.13	0.778
359.49	-0.379
359.85	0.076
360.21	0.308
360.57	0.304
360.93	-0.152
361.29	0.888
361.66	0.228
362.02	-0.667
362.38	0.222
362.74	0.000
363.10	-0.217
363.46	-0.648
363.82	-0.296
364.18	-0.290
364.54	-0.292
364.90	-0.279
365.26	0.283
365.62	-0.142
365.98	0.000
366.35	-0.071
366.71	-0.143
367.07	-0.213
367.43	0.418
367.79	0.000
368.15	0.070
368.51	-0.492
368.87	0.279
369.23	-0.569
369.59	-0.352
369.95	-0.581
370.31	0.070
370.67	-0.652
371.03	0.223
371.39	0.000
371.75	-0.214
372.11	-0.427
372.47	0.433
372.83	-0.069
373.19	0.216
373.55	-0.361
373.91	0.495
374.27	0.069
374.63	-0.071
374.99	-0.557
375.35	-0.137
375.71	-0.340
376.07	0.206
376.42	0.267
376.78	0.594
377.14	0.136
377.50	0.522
377.86	-0.531
378.22	0.190
378.58	-0.441
378.94	0.500
379.30	-0.375
379.66	-0.617
380.02	-0.184
380.38	-0.542
380.74	0.299
381.09	0.181
381.45	0.242
381.81	0.062
382.17	-0.504
382.53	-0.185
382.89	0.362
383.25	-0.370
383.61	0.424
383.97	-0.312
384.32	-0.441
384.68	0.247
385.04	-0.550
385.40	0.560
385.76	0.487
386.12	0.129
386.48	-0.690
386.83	0.313
387.19	-0.617
387.55	0.307
387.91	-0.246
388.27	-0.863
388.62	-0.312
388.98	-0.939
389.34	0.439
389.70	0.122
390.06	0.750
390.42	0.387
390.77	0.128
391.13	0.126
391.49	-0.253
391.85	-0.511
392.20	-0.376
392.56	-0.317
392.92	0.234
393.28	-0.232
393.64	-0.612
393.99	-0.428
394.35	0.370
394.71	0.000
395.07	-0.440
395.42	0.183
395.78	-0.965
396.14	0.190
396.50	-0.761
396.85	0.637
397.21	-0.062
397.57	-0.062
397.92	-0.419
398.28	0.451
398.64	0.546
399.00	0.391
399.35	0.624
399.71	0.175
400.07	0.241
400.42	-0.125
400.78	-0.363
401.14	-0.490
401.49	-0.120
401.85	0.184
402.21	-0.433
402.57	0.245
402.92	0.688
403.28	0.125
403.63	-0.124
403.99	-0.512
404.35	-0.312
404.70	-0.242
405.06	0.176
405.42	-0.251
405.77	-0.634
406.13	-0.686
406.49	-0.240
406.84	0.244
407.20	-0.414
407.55	-1.429
407.91	-0.596
408.27	-0.062
408.62	0.982
408.98	-0.617
409.34	-0.309
409.69	0.390
410.05	0.000
410.40	-0.426
410.76	0.421
411.11	0.435
411.47	0.199
411.83	0.749
412.18	-0.504
412.54	0.376
412.89	-0.188
413.25	0.354
413.60	-0.063
413.96	0.125
414.31	-0.123
414.67	0.381
415.03	-0.541
415.38	-0.462
415.74	-0.065
416.09	0.000
416.45	0.273
416.80	0.201
417.16	0.742
417.51	0.000
417.87	-0.463
418.22	-0.517
418.58	-0.394
418.93	0.063
419.29	0.000
419.64	-0.064
420.00	-0.127
420.35	-0.179
420.71	-0.122
421.06	0.431
421.42	0.000
421.77	0.751
422.12	0.229
422.48	-0.055
422.83	0.118
423.19	-0.058
423.54	0.059
423.90	-0.416
424.25	-0.058
424.61	-0.678
424.96	0.000
425.31	0.841
425.67	0.353
426.02	1.237
426.38	-0.187
426.73	-0.122
427.09	0.313
427.44	0.705
427.79	-0.059
428.15	-0.306
428.50	-0.604
428.85	0.615
429.21	0.506
429.56	0.425
429.92	0.260
430.27	0.307
430.62	-0.052
430.98	0.899
431.33	0.161
431.68	0.426
432.04	0.394
432.39	0.000
432.74	0.123
433.10	0.291
433.45	0.533
433.80	0.172
434.16	-0.273
434.51	0.326
434.86	0.118
435.22	0.226
435.57	0.246
435.92	0.362
436.28	-0.180
436.63	0.000
436.98	0.176
437.34	0.427
437.69	0.059
438.04	-0.226
438.39	-0.187
438.75	0.000
439.10	-0.463
439.45	0.000
439.81	0.123
440.16	0.696
440.51	0.178
440.86	0.474
441.22	0.115
441.57	0.054
441.92	0.778
442.27	0.162
442.63	-0.215
442.98	-0.463
443.33	0.282
443.68	-0.158
444.03	0.000
444.39	0.545
444.74	0.276
445.09	-0.055
445.44	0.169
445.79	0.258
446.15	0.666
446.50	0.441
446.85	0.053
447.20	0.680
447.55	0.336
447.91	0.281
448.26	0.629
448.61	0.230
448.96	0.114
449.31	0.800
449.66	0.174
450.02	0.455
450.37	0.059
450.72	0.057
451.07	0.627
451.42	-0.811
451.77	0.609
452.12	0.594
452.47	0.323
452.83	0.413
453.18	-0.700
453.53	0.126
453.88	0.422
454.23	0.927
454.58	0.061
454.93	0.770
455.28	0.450
455.63	-0.561
455.98	-0.365
456.34	-0.445
456.69	0.319
457.04	0.372
457.39	0.120
457.74	-0.598
458.09	-0.415
458.44	-0.294
458.79	0.494
459.14	-0.281
459.49	-0.244
459.84	0.169
460.19	0.120
460.54	0.000
460.89	0.169
461.24	-0.432
461.59	0.060
461.94	0.190
462.29	-0.551
462.64	-0.198
462.99	0.604
463.34	0.345
463.69	0.387
464.04	-0.180
464.39	-0.610
464.74	0.430
465.09	-0.124
465.44	0.281
465.79	0.690
466.14	0.000
466.49	-0.235
466.84	0.359
467.19	-0.318
467.54	0.259
467.89	0.126
468.24	0.307
468.59	0.191
468.94	0.319
469.29	0.066
469.64	-0.279
469.99	0.828
470.34	0.000
470.68	-0.297
471.03	-0.212
471.38	0.348
471.73	-0.137
472.08	0.550
472.43	0.462
472.78	1.487
473.13	-0.594
473.48	0.130
473.83	0.188
474.17	-0.521
474.52	1.100
474.87	0.121
475.22	0.604
475.57	0.335
475.92	0.109
476.27	0.058
476.61	-0.170
476.96	-0.171
477.31	0.647
477.66	0.395
478.01	0.055
478.36	0.054
478.70	-0.161
479.05	0.055
479.40	0.520
479.75	0.053
480.10	0.561
480.45	0.441
480.79	0.548
481.14	0.709
481.49	0.543
481.84	0.377
482.19	0.371
482.53	0.190
482.88	0.767
483.23	0.289
483.58	0.378
483.92	0.195
484.27	0.091
484.62	0.311
484.97	0.166
485.31	0.143
485.66	0.955
486.01	0.846
486.36	0.642
486.70	0.572
487.05	0.666
487.40	0.447
487.75	0.488
488.09	0.282
488.44	0.666
488.79	0.643
489.13	0.239
489.48	0.128
489.83	0.447
490.17	0.000
490.52	0.374
490.87	-0.093
491.22	0.377
491.56	0.479
491.91	0.384
492.26	0.629
492.60	-0.048
492.95	0.826
493.30	0.581
493.64	-0.384
493.99	0.676
494.34	0.723
494.68	0.668
495.03	-0.049
495.37	0.243
495.72	0.451
496.07	0.195
496.41	-0.281
496.76	0.823
497.11	0.376
497.45	0.000
497.80	0.303
498.14	0.554
498.49	-0.050
498.84	0.000
499.18	0.149
499.53	0.049
499.87	-0.388
500.22	0.747
500.56	0.602
500.91	0.905
501.26	0.887
501.60	0.000
501.95	0.671
502.29	0.243
502.64	0.482
502.98	0.193
503.33	0.292
503.67	0.438
504.02	0.245
504.36	0.000
504.71	-0.356
505.06	0.560
505.40	0.206
505.75	0.916
506.09	0.460
506.44	0.101
506.78	0.406
507.13	0.000
507.47	0.000
507.82	0.576
508.16	1.055
508.51	0.517
508.85	0.674
509.19	0.317
509.54	1.019
509.88	0.914
510.23	0.684
510.57	0.742
510.92	0.377
511.26	0.165
511.61	-0.110
511.95	0.772
512.30	0.056
512.64	0.738
512.98	0.720
513.33	0.113
513.67	0.625
514.02	1.311
514.36	0.112
514.70	0.924
515.05	0.644
515.39	0.413
515.74	0.474
516.08	-0.059
516.42	0.749
516.77	0.117
517.11	0.470
517.46	0.660
517.80	1.029
518.14	-0.122
518.49	0.542
518.83	0.597
519.17	0.422
519.52	0.121
519.86	0.182
520.20	-0.303
520.55	-0.311
520.89	0.506
521.23	0.449
521.58	0.506
521.92	0.251
522.26	-0.130
522.61	0.776
522.95	0.194
523.29	0.571
523.64	0.572
523.98	0.762
524.32	0.378
524.66	-0.455
525.01	0.262
525.35	0.263
525.69	0.795
526.04	0.261
526.38	1.020
526.72	0.986
527.06	0.451
527.41	0.331
527.75	0.401
528.09	0.749
528.43	0.611
528.78	0.711
529.12	0.712
529.46	0.512
529.80	0.259
530.15	0.386
530.49	0.472
530.83	0.542
531.17	0.342
531.51	0.539
531.86	0.203
532.20	0.207
532.54	0.069
532.88	0.817
533.22	0.673
533.57	0.530
533.91	1.613
534.25	0.260
534.59	0.000
534.93	1.212
535.27	0.637
535.62	-0.066
535.96	1.561
536.30	0.332
536.64	0.342
536.98	-0.070
537.32	0.641
537.66	0.564
538.01	0.485
538.35	-0.276
538.69	0.067
539.03	0.336
539.37	0.469
539.71	0.409
540.05	0.540
540.39	0.757
540.73	0.209
541.07	0.816
541.42	1.347
541.76	0.880
542.10	0.068
542.44	0.485
542.78	0.139
543.12	0.606
543.46	0.415
543.80	0.136
544.14	0.688
544.48	0.199
544.82	0.538
545.16	-0.609
545.50	1.823
545.84	0.912
546.18	0.000
546.52	0.494
546.86	-0.071
547.20	0.357
547.54	0.214
547.88	1.080
548.22	1.498
548.56	0.000
548.90	0.068
549.24	1.736
549.58	-0.071
549.92	-0.440
550.26	0.812
550.60	0.300
550.94	0.149
551.28	0.908
551.62	0.902
551.96	0.732
552.30	-0.801
552.64	0.000
552.98	0.781
553.32	0.721
553.66	0.220
554.00	-0.072
554.34	-0.586
554.68	0.746
555.02	0.674
555.36	0.076
555.69	0.218
556.03	0.071
556.37	-0.142
556.71	0.911
557.05	-0.148
557.39	-1.281
557.73	0.605
558.07	0.452
558.41	0.681
558.75	0.924
559.08	-0.401
559.42	0.000
559.76	0.459
560.10	-0.077
560.44	0.958
560.78	-0.791
561.12	0.350
561.45	-0.136
561.79	-0.069
562.13	0.211
562.47	0.643
562.81	-0.289
563.15	0.425
563.48	0.206
563.82	0.479
564.16	0.677
564.50	1.018
564.84	-0.608
565.17	0.795
565.51	0.201
565.85	0.000
566.19	0.331
566.52	0.262
566.86	-0.063
567.20	0.305
567.54	1.094
567.88	0.224
568.21	0.435
568.55	0.782
568.89	0.100
569.23	0.367
569.56	0.960
569.90	0.652
570.24	0.181
570.57	1.092
570.91	0.699
571.25	0.541
571.59	0.842
571.92	0.763
572.26	0.564
572.60	0.585
572.93	0.656
573.27	0.759
573.61	1.152
573.95	1.031
574.28	1.005
574.62	0.864
574.96	0.984
575.29	0.853
575.63	0.764
575.97	0.815
576.30	0.964
576.64	0.681
576.98	0.832
577.31	1.132
577.65	0.839
577.98	0.621
578.32	0.879
578.66	0.711
578.99	0.915
579.33	0.800
579.67	0.687
580.00	0.671
580.34	0.776
580.67	0.833
581.01	0.793
581.35	0.960
581.68	0.928
582.02	0.937
582.35	0.974
582.69	0.928
583.02	1.034
583.36	0.872
583.70	1.078
584.03	1.105
584.37	0.738
584.70	0.772
585.04	0.849
585.37	0.535
585.71	1.013
586.04	0.677
586.38	0.605
586.72	0.927
587.05	1.043
587.39	1.086
587.72	0.718
588.06	0.711
588.39	0.700
588.73	0.782
589.06	0.614
589.40	0.585
589.73	0.719
590.07	0.911
590.40	0.682
590.73	0.648
591.07	0.585
591.40	0.696
591.74	0.445
592.07	0.685
592.41	0.858
592.74	0.965
593.08	0.615
593.41	0.835
593.75	0.743
594.08	0.829
594.41	0.841
594.75	0.937
595.08	0.709
595.42	0.429
595.75	0.795
596.09	0.731
596.42	0.531
596.75	1.185
597.09	1.046
597.42	0.942
597.75	0.800
598.09	0.774
598.42	0.984
598.76	0.420
599.09	0.960
599.42	0.718
599.76	0.789
600.09	0.602
600.42	0.942
600.76	0.776
601.09	0.829
601.42	0.510
601.76	1.351
602.09	1.257
602.42	0.784
602.76	0.755
603.09	0.616
603.42	0.840
603.76	0.546
604.09	1.067
604.42	0.251
604.76	0.087
605.09	1.042
605.42	0.720
605.75	0.343
606.09	0.497
606.42	0.956
606.75	0.563
607.09	0.754
607.42	1.007
607.75	0.306
608.08	0.857
608.42	0.187
608.75	0.669
609.08	0.049
609.41	0.944
609.75	0.202
610.08	0.888
610.41	0.826
610.74	0.529
611.07	1.002
611.41	0.716
611.74	1.087
612.07	1.146
612.40	0.865
612.73	0.549
613.07	0.831
613.40	0.991
613.73	0.758
614.06	0.608
614.39	0.445
614.72	1.943
615.06	0.111
615.39	0.828
615.72	0.324
616.05	0.394
616.38	0.916
616.71	0.000
617.05	0.983
617.38	0.863
617.71	0.245
618.04	0.488
618.37	0.694
618.70	1.229
619.03	0.481
619.36	0.285
619.69	0.877
620.03	0.777
620.36	0.626
620.69	-0.500
621.02	0.000
621.35	-0.654
621.68	0.815
622.01	0.809
622.34	-0.079
622.67	-0.157
623.00	0.836
623.33	-0.150
623.66	-0.892
623.99	1.125
624.32	0.587
624.65	0.074
624.99	0.661
625.32	1.120
625.65	0.543
625.98	-0.553
626.31	0.898
626.64	-0.086
626.97	0.000
627.30	0.684
627.63	0.260
627.96	-0.606
628.29	-0.186
628.62	0.967
628.95	0.601
629.28	-0.099
629.61	1.435
629.94	-0.387
630.26	0.788
630.59	0.500
630.92	0.402
631.25	-0.618
631.58	0.535
631.91	-0.424
632.24	-0.220
632.57	-0.444
632.90	0.350
633.23	-0.839
633.56	0.839
633.89	0.718
634.22	2.945
634.55	0.853
634.88	0.000
635.20	0.250
635.53	-0.517
635.86	-1.282
636.19	0.248
636.52	-0.366
636.85	-0.724
637.18	-0.853
637.51	0.250
637.83	0.783
638.16	-1.200
638.49	-1.068
638.82	0.000
639.15	-0.133
639.48	-0.134
639.81	-1.389
640.13	0.563
640.46	0.565
640.79	0.000
641.12	-2.071
641.45	1.164
641.77	-1.178
642.10	0.454
642.43	-0.472
642.76	-0.631
643.09	-0.479
643.41	-0.319
643.74	-0.808
644.07	-0.809
644.40	-0.829
644.73	-2.203
645.05	-2.618
645.38	-1.495
645.71	-0.850
646.04	-3.030
646.36	-1.736
646.69	0.524
647.02	-1.821
647.35	-0.183
647.67	-1.848
648.00	-2.717
648.33	1.356
648.66	-1.836
648.98	-0.776
649.31	-0.767
649.64	-1.878
649.96	0.948
650.29	-2.288
650.62	-0.659
650.94	-0.690
651.27	-0.883
651.60	-0.524
651.92	-1.613
652.25	0.503
652.58	0.660
652.90	-1.178
653.23	-1.358
653.56	0.000
653.88	-1.877
654.21	-2.218
654.54	-2.159
654.86	-0.976
655.19	-1.401
655.52	1.096
655.84	0.962
656.17	1.402
656.49	1.600
656.82	1.651
657.15	1.148
657.47	0.850
657.80	0.655
658.13	0.606
658.45	0.956
658.78	0.910
659.10	1.049
659.43	0.701
659.75	0.587
660.08	0.483
660.41	0.101
660.73	0.275
661.06	-0.510
661.38	-2.132
661.71	-0.615
662.03	-0.846
662.36	-2.876
662.68	-1.505
663.01	-0.424
663.33	-2.376
663.66	-3.991
663.98	0.899
664.31	-2.418
664.63	-5.180
664.96	-1.751
665.28	-0.429
665.61	-1.512
665.93	-2.141
666.26	1.899
666.58	-2.998
666.91	1.794
667.23	-0.230
667.56	-2.069
667.88	0.000
668.21	0.446
668.53	-0.690
668.86	-0.959
669.18	-1.891
669.50	1.382
669.83	-0.716
670.15	-2.381
670.48	-2.299
670.80	3.282
671.13	-0.686
671.45	-2.055
671.77	0.000
672.10	-1.754
672.42	-1.718
672.75	-3.036
673.07	-3.091
673.39	-0.187
673.72	0.599
674.04	-0.615
674.37	1.016
674.69	0.412
675.01	0.855
675.34	0.875
675.66	-1.307
675.98	-2.212
676.31	-0.452
676.63	0.000
676.95	-1.176
677.28	-2.523
677.60	-0.735
677.92	2.217
678.25	-0.217
678.57	1.018
678.89	-2.559
679.22	-1.449
679.54	-1.224
679.86	-1.172
680.18	-3.269
680.51	-3.654
680.83	-1.949
681.15	0.786
681.48	-1.403
681.80	-0.204
682.12	-2.917
682.44	-1.811
682.77	-2.737
683.09	-2.009
683.41	-3.023
683.73	-2.902
684.06	0.221
684.38	-1.923
684.70	-1.629
685.02	-1.240
685.34	-0.978
685.67	-1.876
685.99	-0.890
686.31	1.207
686.63	0.551
686.96	1.670
687.28	-1.796
687.60	2.268
687.92	-1.362
688.24	0.600
688.56	2.412
688.89	-2.227
689.21	-1.570
689.53	-2.477
689.85	0.225
690.17	-1.538
690.49	-2.174
690.82	-2.387
691.14	-3.140
691.46	-1.856
691.78	-0.659
692.10	-1.062
692.42	-2.857
692.74	-2.391
693.06	-2.697
693.39	-2.108
693.71	-0.444
694.03	1.591
694.35	0.450
694.67	-2.000
694.99	-1.031
695.31	-2.067
695.63	-0.732
695.95	-3.562
696.27	-4.110
696.59	-1.344
696.91	-5.866
697.23	-5.076
697.56	-1.199
697.88	1.247
698.20	0.216
698.52	-3.037
698.84	-2.153
699.16	-1.418
699.48	2.963
699.80	0.517
700.12	-1.072
700.44	-4.507
700.76	-2.809
701.08	1.813
701.40	-1.198
701.72	-3.077
702.04	-3.459
702.36	-1.524
702.68	-1.220
703.00	-2.632
703.32	-3.900
703.64	0.000
703.96	-1.466
704.28	-3.614
704.60	0.000
704.91	-4.075
705.23	-2.532
705.55	-3.103
705.87	-1.056
706.19	-4.396
706.51	-5.282
706.83	-5.732
707.15	-1.829
707.47	-3.857
707.79	-0.508
708.11	-3.085
708.43	0.761
708.74	-1.862
709.06	-2.406
709.38	-2.594
709.70	-1.802
710.02	-0.312
710.34	-2.667
710.66	-1.629
710.98	-2.477
711.29	-1.299
711.61	-2.258
711.93	-4.516
712.25	-6.993
712.57	-4.211
712.89	0.000
713.20	-4.965
713.52	-6.204
713.84	-1.935
714.16	0.971
714.48	-2.848
714.80	-3.514
715.11	2.326
715.43	-5.590
715.75	-2.174
716.07	1.506
716.39	-1.347
716.70	0.719
717.02	-7.059
717.34	-0.758
717.66	-5.603
717.97	-3.571
718.29	1.181
718.61	-6.867
718.93	-6.977
719.24	-0.738
719.56	-0.749
719.88	-6.343
720.20	-6.324
720.51	-4.297
720.83	-3.891
721.15	-8.943
721.46	-2.672
721.78	-1.195
722.10	-0.797
722.42	-5.645
722.73	-1.158
723.05	-1.633
723.37	0.420
723.68	-2.800
724.00	-7.234
724.32	-7.531
724.63	-2.469
724.95	-8.547
725.27	-0.844
725.58	1.235
725.90	-6.695
726.22	0.000
726.53	-10.196
726.85	-0.730
727.16	-4.815
727.48	-2.299
727.80	-0.391
728.11	-4.508
728.43	0.000
728.74	-3.571
729.06	-3.200
729.38	-0.395
729.69	-1.068
730.01	-2.974
730.32	1.845
730.64	-3.409
730.96	1.399
731.27	-6.355
731.59	-0.635
731.90	-1.942
732.22	-1.923
732.53	-5.743
732.85	-3.691
733.16	2.970
733.48	-2.703
733.80	-4.730
734.11	3.041
734.43	-2.477
734.74	0.300
735.06	0.576
735.37	0.608
735.69	-0.971
736.00	-5.941
736.32	-3.546
736.63	-3.793
736.95	-1.712
737.26	-4.483
737.58	-1.736
737.89	-2.062
738.21	-6.050
738.52	-5.323
738.83	-2.857
739.15	-4.219
739.46	-3.891
739.78	-3.169
740.09	-1.027
740.41	-7.857
740.72	-4.610
741.04	-5.200
741.35	-10.088
741.66	0.444
741.98	0.962
742.29	1.980
742.61	-1.951
742.92	0.439
743.23	-4.717
743.55	-4.955
743.86	-5.830
744.18	-3.431
744.49	-7.107
744.80	-4.592
745.12	-1.869
745.43	-1.896
745.74	0.000
746.06	0.000
746.37	-2.752
746.68	-5.769
747.00	0.000
747.31	0.000
747.62	-5.505
747.94	0.437
748.25	-1.835
748.56	0.889
748.88	0.469
749.19	2.381
749.50	-7.767
749.82	-7.981
750.13	-9.167
750.44	-4.615
750.75	-1.107
751.07	0.000
751.38	3.191
751.69	-6.564
752.01	-3.125
752.32	-5.769
752.63	1.493
752.94	-1.200
753.26	0.837
753.57	-2.083
753.88	-8.502
754.19	-5.578
754.51	-1.880
754.82	-4.762
755.13	-7.826
755.44	-2.439
755.75	-6.000
756.07	-5.535
756.38	-3.237
756.69	3.072
757.00	0.623
757.31	-2.913
757.63	-6.173
757.94	-1.977
758.25	0.794
758.56	-4.076
758.87	-1.786
759.18	0.000
759.50	-2.020
759.81	-1.672
760.12	-0.615
760.43	-3.274
760.74	-0.847
761.05	-0.829
761.36	-4.011
761.67	-5.740
761.99	-4.467
762.30	-3.650
762.61	-4.115
762.92	0.427
763.23	2.049
763.54	-0.866
763.85	-3.673
764.16	-4.065
764.47	-6.400
764.78	-4.643
765.10	1.311
765.41	-2.128
765.72	-0.932
766.03	0.660
766.34	1.923
766.65	-2.929
766.96	-8.920
767.27	0.000
767.58	-10.112
767.89	-1.852
768.20	-7.735
768.51	-0.503
768.82	0.481
769.13	1.770
769.44	2.510
769.75	-10.684
770.06	-7.175
770.37	-5.882
770.68	-5.340
770.99	-8.252
771.30	-2.101
771.61	1.633
771.92	3.320
772.23	-4.955
772.54	-7.182
772.85	-5.814
773.16	3.175
773.47	-10.059
773.78	-2.299
774.09	-5.625
774.39	-6.832
774.70	-5.442
775.01	-2.759
775.32	-7.857
775.63	-4.511
775.94	-5.263
776.25	-12.000
776.56	2.479
776.87	-3.175
777.18	-6.306
777.48	-7.207
777.79	-3.937
778.10	-1.835
778.41	-9.649
778.72	-5.042
779.03	-13.380
779.34	1.351
779.65	-5.634
779.95	-7.947
780.26	-2.158
780.57	-8.633
780.88	-12.676
781.19	-19.328
781.50	2.685
781.80	0.000
782.11	-6.977
782.42	0.629
782.73	1.961
783.04	-5.517
783.34	-9.924
783.65	-6.711
783.96	-13.846
784.27	-3.571
784.57	-4.255
784.88	-25.000
785.19	-7.273
785.50	-4.545
785.81	-5.714
786.11	-7.563
786.42	-7.080
786.73	-11.321
787.04	-20.183
787.34	-13.861
787.65	-2.500
787.96	-4.132
788.26	-1.449
788.57	-2.381
788.88	-3.252
789.19	-6.400
789.49	-10.687
789.80	-0.758
790.11	-7.547
790.41	-7.921
790.72	-13.830
791.03	-11.957
791.33	-21.176
791.64	-2.469
791.95	-3.261
792.25	2.273
792.56	-7.692
792.87	-14.103
793.17	-32.051
793.48	-13.095
793.79	-16.250
794.09	2.885
794.40	-11.458
794.70	-7.207
795.01	-7.813
795.32	-8.696
795.62	-21.739
795.93	-12.264
796.23	-5.051
796.54	-12.195
796.85	-8.333
797.15	-22.727
797.46	0.000
797.76	-15.789
798.07	-14.773
798.37	-7.317
798.68	-24.194
798.99	-28.378
799.29	2.410
799.60	-8.974
799.90	-23.077
800.21	-7.576
800.51	-22.667
800.82	-9.333
801.12	-29.167
801.43	-41.667
801.73	-9.459
802.04	-4.286
802.34	-26.230
802.65	-20.896
802.95	-3.636
803.26	-20.690
803.56	0.000
803.87	-1.887
804.17	-8.065
804.48	-4.412
804.78	-31.707
805.09	-5.797
805.39	-8.824
805.70	-38.298
806.00	-14.035
806.30	-6.410
806.61	-7.895
806.91	-16.216
807.22	-5.263
807.52	-2.273
807.83	-32.203
808.13	-25.758
808.43	-5.000
808.74	-37.931
809.04	-19.048
809.35	-26.531
809.65	-21.667
809.95	-24.490
810.26	8.451
810.56	-33.333
810.86	-18.367
811.17	15.385
811.47	-27.660
811.77	-37.500
812.08	-9.434
812.38	-59.375
812.69	-3.636
812.99	-17.073
813.29	-29.730
813.59	-29.730
813.90	-18.182
814.20	-14.545
814.50	-6.667
814.81	-7.273
815.11	-7.018
815.41	6.977
815.72	-30.000
816.02	-22.857
816.32	-27.027
816.62	-12.500
816.93	-22.222
817.23	-31.111
817.53	-58.333
817.84	-21.622
818.14	-24.390
818.44	-12.000
818.74	-18.367
819.04	-41.463
819.35	-22.222
819.65	-22.727
819.95	-133.333
820.25	-51.515
820.56	-57.143
820.86	-47.222
821.16	-31.818
821.46	-26.087
821.76	-22.414
822.07	-2.174
822.37	-3.030
822.67	14.634
822.97	-35.135
823.27	-48.571
823.57	-24.138
823.88	-61.765
824.18	-38.889
824.48	-5.714
824.78	-61.905
825.08	-25.000
825.38	-37.037
825.69	-9.677
825.99	-48.780
826.29	-40.741
826.59	-56.250
826.89	-48.387
827.19	-113.043
827.49	-50.000
827.79	-86.957
828.09	0.000
828.39	-14.583
828.70	-40.625
829.00	-24.138
829.30	-18.919
829.60	-62.500
829.90	-11.111
830.20	-15.625
830.50	13.636
830.80	-123.529
831.10	-68.182
831.40	-47.059
831.70	-53.846
832.00	-30.303
832.30	-47.059
832.60	-13.514
832.90	1900.000
833.20	-39.286
833.50	-80.000
833.80	2.632
834.10	-70.833
834.40	-77.273
834.70	-140.000
835.00	-70.000
835.30	-66.667
835.60	-47.619
835.90	-23.810
836.20	-48.000
836.50	-16.667
836.80	-78.947
837.10	-13.514
837.40	-30.000
837.70	-30.435
838.00	12.500
838.30	-42.105
838.60	-290.000
838.90	-260.000
839.19	-108.333
839.49	-84.615
839.79	-10.526
840.09	-333.333
840.39	-100.000
840.69	-22.727
840.99	-61.905
841.29	-79.167
841.59	-130.769
841.88	-140.000
842.18	-107.143
842.48	0.000
842.78	-271.429
843.08	-50.000
843.38	-125.000
843.68	-87.500
843.97	-21.429
844.27	-177.778
844.57	-145.455
844.87	-86.667
845.17	-18.182
845.47	700.000
845.76	-93.333
846.06	-116.667
846.36	-800.000
846.66	-63.158
846.96	-13.636
847.25	-72.222
847.55	-144.444
847.85	-100.000
848.15	-53.846
848.44	-316.667
848.74	-175.000
849.04	-69.231
849.34	-375.000
849.63	-100.000
849.93	-150.000
850.23	-25.000
850.53	-150.000
850.82	-50.000
851.12	-46.667
851.42	-94.118
851.71	-150.000
852.01	11.765
852.31	-100.000
852.61	600.000
852.90	5.882
853.20	-80.000
853.50	-62.500
853.79	-150.000
854.09	-525.000
854.39	-60.000
854.68	-40.000
854.98	-57.143
855.28	-28.000
855.57	-37.500
855.87	-75.000
856.17	-24.000
856.46	-12.500
856.76	15.000
857.05	-12.000
857.35	-91.667
857.65	-23.529
857.94	-100.000
858.24	-75.000
858.53	-25.000
858.83	-163.636
859.13	-12.000
859.42	-28.571
859.72	-212.500
860.01	-8.333
860.31	-212.500
860.60	0.000
860.90	-216.667
861.20	-50.000
861.49	-26.667
861.79	-56.250
862.08	200.000
862.38	-141.667
862.67	400.000
862.97	525.000
863.26	-54.545
863.56	-100.000
863.85	5.263
864.15	-58.824
864.44	-360.000
864.74	-100.000
865.03	-144.444
865.33	-7.143
865.62	157.143
865.92	-36.842
866.21	0.000
866.51	-145.455
866.80	-133.333
867.10	-175.000
867.39	-25.000
867.69	-80.000
867.98	-210.000
868.27	-23.529
868.57	0.000
868.86	900.000
869.16	-425.000
869.45	-114.286
869.75	250.000
870.04	-60.000
870.33	-700.000
870.63	-26.316
870.92	-58.333
871.22	-2000.000
871.51	-114.286
871.80	-133.333
872.10	-300.000
>>>>>End Processed Spectral Data<<<<<
