SpectraSuite Data File
++++++++++++++++++++++++++++++++++++
Date: Wed May 13 13:34:39 PDT 2015
User: schluterlab
Dark Spectrum Present: Yes
Reference Spectrum Present: No
Number of Sampled Component Spectra: 1
Spectrometers: USB2E3373
Integration Time (usec): 2200000 (USB2E3373)
Spectra Averaged: 3 (USB2E3373)
Boxcar Smoothing: 0 (USB2E3373)
Correct for Electrical Dark: No (USB2E3373)
Strobe/Lamp Enabled: No (USB2E3373)
Correct for Detector Non-linearity: No (USB2E3373)
Correct for Stray Light: No (USB2E3373)
Number of Pixels in Processed Spectrum: 2048
>>>>>Begin Processed Spectral Data<<<<<
178.53	0.0000E00
178.91	0.0000E00
179.29	0.0000E00
179.67	0.0000E00
180.04	0.0000E00
180.42	0.0000E00
180.80	0.0000E00
181.18	0.0000E00
181.56	0.0000E00
181.94	0.0000E00
182.31	0.0000E00
182.69	0.0000E00
183.07	0.0000E00
183.45	0.0000E00
183.83	0.0000E00
184.20	0.0000E00
184.58	0.0000E00
184.96	0.0000E00
185.34	0.0000E00
185.72	0.0000E00
186.09	0.0000E00
186.47	0.0000E00
186.85	0.0000E00
187.23	0.0000E00
187.61	0.0000E00
187.98	0.0000E00
188.36	0.0000E00
188.74	0.0000E00
189.12	0.0000E00
189.49	0.0000E00
189.87	0.0000E00
190.25	0.0000E00
190.63	0.0000E00
191.00	0.0000E00
191.38	0.0000E00
191.76	0.0000E00
192.14	0.0000E00
192.51	0.0000E00
192.89	0.0000E00
193.27	0.0000E00
193.65	0.0000E00
194.02	0.0000E00
194.40	0.0000E00
194.78	0.0000E00
195.15	0.0000E00
195.53	-0.0000E00
195.91	0.0000E00
196.29	0.0000E00
196.66	0.0000E00
197.04	0.0000E00
197.42	0.0000E00
197.79	0.0000E00
198.17	0.0000E00
198.55	0.0000E00
198.92	0.0000E00
199.30	0.0000E00
199.68	0.0000E00
200.05	0.0000E00
200.43	0.0000E00
200.81	0.0000E00
201.18	0.0000E00
201.56	0.0000E00
201.94	0.0000E00
202.31	-0.0000E00
202.69	0.0000E00
203.07	0.0000E00
203.44	0.0000E00
203.82	0.0000E00
204.19	0.0000E00
204.57	0.0000E00
204.95	0.0000E00
205.32	0.0000E00
205.70	0.0000E00
206.08	0.0000E00
206.45	0.0000E00
206.83	0.0000E00
207.20	0.0000E00
207.58	0.0000E00
207.96	0.0000E00
208.33	0.0000E00
208.71	0.0000E00
209.08	0.0000E00
209.46	0.0000E00
209.84	0.0000E00
210.21	0.0000E00
210.59	0.0000E00
210.96	0.0000E00
211.34	0.0000E00
211.71	0.0000E00
212.09	0.0000E00
212.46	0.0000E00
212.84	0.0000E00
213.22	0.0000E00
213.59	0.0000E00
213.97	0.0000E00
214.34	0.0000E00
214.72	0.0000E00
215.09	0.0000E00
215.47	0.0000E00
215.84	0.0000E00
216.22	0.0000E00
216.59	0.0000E00
216.97	0.0000E00
217.34	0.0000E00
217.72	0.0000E00
218.09	0.0000E00
218.47	0.0000E00
218.84	0.0000E00
219.22	0.0000E00
219.59	0.0000E00
219.97	0.0000E00
220.34	0.0000E00
220.72	0.0000E00
221.09	0.0000E00
221.47	0.0000E00
221.84	0.0000E00
222.22	0.0000E00
222.59	0.0000E00
222.97	0.0000E00
223.34	0.0000E00
223.72	0.0000E00
224.09	0.0000E00
224.46	0.0000E00
224.84	0.0000E00
225.21	0.0000E00
225.59	0.0000E00
225.96	0.0000E00
226.34	0.0000E00
226.71	0.0000E00
227.08	0.0000E00
227.46	0.0000E00
227.83	0.0000E00
228.21	0.0000E00
228.58	0.0000E00
228.95	0.0000E00
229.33	0.0000E00
229.70	0.0000E00
230.08	0.0000E00
230.45	0.0000E00
230.82	0.0000E00
231.20	0.0000E00
231.57	0.0000E00
231.95	0.0000E00
232.32	0.0000E00
232.69	0.0000E00
233.07	0.0000E00
233.44	0.0000E00
233.81	0.0000E00
234.19	0.0000E00
234.56	0.0000E00
234.93	0.0000E00
235.31	0.0000E00
235.68	0.0000E00
236.05	0.0000E00
236.43	0.0000E00
236.80	0.0000E00
237.17	0.0000E00
237.55	0.0000E00
237.92	0.0000E00
238.29	0.0000E00
238.67	0.0000E00
239.04	0.0000E00
239.41	0.0000E00
239.79	0.0000E00
240.16	0.0000E00
240.53	0.0000E00
240.91	0.0000E00
241.28	0.0000E00
241.65	0.0000E00
242.02	0.0000E00
242.40	0.0000E00
242.77	0.0000E00
243.14	0.0000E00
243.51	0.0000E00
243.89	0.0000E00
244.26	0.0000E00
244.63	0.0000E00
245.00	0.0000E00
245.38	0.0000E00
245.75	0.0000E00
246.12	0.0000E00
246.49	0.0000E00
246.87	0.0000E00
247.24	0.0000E00
247.61	0.0000E00
247.98	0.0000E00
248.36	0.0000E00
248.73	0.0000E00
249.10	0.0000E00
249.47	0.0000E00
249.84	0.0000E00
250.22	0.0000E00
250.59	0.0000E00
250.96	0.0000E00
251.33	0.0000E00
251.70	0.0000E00
252.08	0.0000E00
252.45	0.0000E00
252.82	0.0000E00
253.19	0.0000E00
253.56	0.0000E00
253.94	0.0000E00
254.31	0.0000E00
254.68	0.0000E00
255.05	0.0000E00
255.42	0.0000E00
255.79	0.0000E00
256.16	0.0000E00
256.54	0.0000E00
256.91	0.0000E00
257.28	0.0000E00
257.65	0.0000E00
258.02	0.0000E00
258.39	0.0000E00
258.76	0.0000E00
259.14	0.0000E00
259.51	0.0000E00
259.88	0.0000E00
260.25	0.0000E00
260.62	0.0000E00
260.99	0.0000E00
261.36	0.0000E00
261.73	0.0000E00
262.10	0.0000E00
262.47	0.0000E00
262.85	0.0000E00
263.22	0.0000E00
263.59	0.0000E00
263.96	0.0000E00
264.33	0.0000E00
264.70	0.0000E00
265.07	0.0000E00
265.44	0.0000E00
265.81	0.0000E00
266.18	0.0000E00
266.55	0.0000E00
266.92	0.0000E00
267.29	0.0000E00
267.66	0.0000E00
268.03	0.0000E00
268.40	0.0000E00
268.77	0.0000E00
269.14	0.0000E00
269.51	0.0000E00
269.88	0.0000E00
270.25	0.0000E00
270.62	0.0000E00
270.99	0.0000E00
271.36	0.0000E00
271.73	0.0000E00
272.10	0.0000E00
272.47	0.0000E00
272.84	0.0000E00
273.21	0.0000E00
273.58	0.0000E00
273.95	0.0000E00
274.32	0.0000E00
274.69	0.0000E00
275.06	0.0000E00
275.43	0.0000E00
275.80	0.0000E00
276.17	0.0000E00
276.54	0.0000E00
276.91	0.0000E00
277.28	0.0000E00
277.65	0.0000E00
278.02	0.0000E00
278.39	0.0000E00
278.76	0.0000E00
279.13	0.0000E00
279.50	0.0000E00
279.87	0.0000E00
280.23	0.0000E00
280.60	0.0000E00
280.97	0.0000E00
281.34	0.0000E00
281.71	0.0000E00
282.08	0.0000E00
282.45	0.0000E00
282.82	0.0000E00
283.19	0.0000E00
283.56	0.0000E00
283.92	0.0000E00
284.29	0.0000E00
284.66	0.0000E00
285.03	0.0000E00
285.40	0.0000E00
285.77	0.0000E00
286.14	0.0000E00
286.51	0.0000E00
286.87	0.0000E00
287.24	0.0000E00
287.61	0.0000E00
287.98	0.0000E00
288.35	0.0000E00
288.72	0.0000E00
289.08	0.0000E00
289.45	0.0000E00
289.82	0.0000E00
290.19	0.0000E00
290.56	0.0000E00
290.93	0.0000E00
291.29	0.0000E00
291.66	0.0000E00
292.03	0.0000E00
292.40	0.0000E00
292.77	0.0000E00
293.13	0.0000E00
293.50	0.0000E00
293.87	0.0000E00
294.24	0.0000E00
294.60	0.0000E00
294.97	0.0000E00
295.34	0.0000E00
295.71	0.0000E00
296.08	0.0000E00
296.44	0.0000E00
296.81	0.0000E00
297.18	0.0000E00
297.55	0.0000E00
297.91	0.0000E00
298.28	0.0000E00
298.65	0.0000E00
299.02	0.0000E00
299.38	0.0000E00
299.75	0.0000E00
300.12	2.6179E-01
300.48	6.7622E-01
300.85	2.7693E-01
301.22	7.6457E-01
301.59	2.3303E-01
301.95	2.7807E-01
302.32	4.2082E-01
302.69	4.3084E-01
303.05	2.7251E-01
303.42	3.7987E-01
303.79	4.4324E-01
304.15	2.8307E-01
304.52	3.4281E-01
304.89	3.2654E-01
305.25	6.6767E-01
305.62	4.4319E-01
305.99	5.4117E-01
306.35	3.3779E-01
306.72	4.6296E-01
307.09	4.1200E-01
307.45	4.3202E-01
307.82	3.2494E-01
308.19	4.2132E-01
308.55	5.0306E-01
308.92	5.9694E-01
309.29	4.9537E-01
309.65	6.0683E-01
310.02	4.6839E-01
310.38	5.1332E-01
310.75	7.2307E-01
311.12	7.3021E-01
311.48	1.2910E00
311.85	8.4641E-01
312.22	5.9853E-01
312.58	1.4062E00
312.95	8.7859E-01
313.31	8.7176E-01
313.68	1.1474E00
314.05	1.9438E00
314.41	1.0885E00
314.78	6.6188E-01
315.14	1.1656E00
315.51	2.3274E00
315.87	1.0225E00
316.24	1.5101E00
316.61	1.4484E00
316.97	1.0038E00
317.34	1.5533E00
317.70	1.2145E00
318.07	1.2184E00
318.43	1.4382E00
318.80	1.0747E00
319.16	1.3447E00
319.53	9.4145E-01
319.89	1.9002E00
320.26	1.4375E00
320.62	1.7398E00
320.99	1.5249E00
321.35	8.8466E-01
321.72	1.1893E00
322.08	1.8939E00
322.45	1.0357E00
322.81	1.2184E00
323.18	3.6842E00
323.54	1.9532E00
323.91	1.4958E00
324.27	2.8974E00
324.64	2.1061E00
325.00	1.5267E00
325.37	2.5628E00
325.73	9.4210E-01
326.10	3.2401E00
326.46	1.5022E00
326.83	1.2267E00
327.19	2.6276E00
327.56	1.0144E00
327.92	1.4698E00
328.29	1.1729E00
328.65	1.5366E00
329.01	1.8196E00
329.38	1.1798E00
329.74	1.0579E00
330.11	1.5449E00
330.47	1.0316E00
330.84	1.4890E00
331.20	1.4892E00
331.56	1.3840E00
331.93	1.5417E00
332.29	1.4296E00
332.66	9.9915E-01
333.02	1.2077E00
333.38	1.8086E00
333.75	8.4385E-01
334.11	1.3202E00
334.48	1.3173E00
334.84	1.2328E00
335.20	1.5132E00
335.57	2.8028E00
335.93	1.8665E00
336.29	1.4488E00
336.66	1.3962E00
337.02	9.7638E-01
337.38	1.2201E00
337.75	1.1825E00
338.11	1.0014E00
338.47	1.3956E00
338.84	1.1517E00
339.20	9.5746E-01
339.56	2.8148E00
339.93	8.7903E-01
340.29	1.0443E00
340.65	1.1406E00
341.02	1.9126E00
341.38	1.3048E00
341.74	1.4037E00
342.11	1.3687E00
342.47	1.3784E00
342.83	7.5832E-01
343.20	1.7538E00
343.56	1.0623E00
343.92	1.4776E00
344.28	9.8355E-01
344.65	1.5624E00
345.01	9.1927E-01
345.37	1.4847E00
345.73	1.3230E00
346.10	1.1356E00
346.46	1.3487E00
346.82	1.0277E00
347.19	2.3339E00
347.55	9.6108E-01
347.91	9.6972E-01
348.27	1.0882E00
348.63	9.4763E-01
349.00	9.3579E-01
349.36	1.8838E00
349.72	1.1748E00
350.08	1.7126E00
350.45	9.8000E-01
350.81	9.1370E-01
351.17	1.2022E00
351.53	1.3014E00
351.89	1.0615E00
352.26	1.2179E00
352.62	1.0067E00
352.98	1.1722E00
353.34	1.0353E00
353.70	1.3661E00
354.07	1.0027E00
354.43	9.5171E-01
354.79	1.1174E00
355.15	8.9354E-01
355.51	8.5387E-01
355.87	9.6589E-01
356.24	1.0067E00
356.60	9.7384E-01
356.96	1.0554E00
357.32	9.4990E-01
357.68	8.9149E-01
358.04	8.0481E-01
358.40	8.8735E-01
358.77	8.2657E-01
359.13	9.7777E-01
359.49	1.0399E00
359.85	1.0107E00
360.21	7.6118E-01
360.57	9.2868E-01
360.93	9.2203E-01
361.29	9.7753E-01
361.66	8.1128E-01
362.02	7.4802E-01
362.38	9.7564E-01
362.74	8.4924E-01
363.10	8.9576E-01
363.46	1.0418E00
363.82	8.9052E-01
364.18	1.0663E00
364.54	1.0120E00
364.90	9.6386E-01
365.26	9.4792E-01
365.62	1.0829E00
365.98	9.4343E-01
366.35	7.5573E-01
366.71	9.1554E-01
367.07	1.1730E00
367.43	7.4228E-01
367.79	1.0592E00
368.15	9.7241E-01
368.51	1.1523E00
368.87	1.0075E00
369.23	1.0772E00
369.59	8.4686E-01
369.95	9.1753E-01
370.31	8.7590E-01
370.67	1.0357E00
371.03	8.7272E-01
371.39	8.5356E-01
371.75	8.6222E-01
372.11	8.8992E-01
372.47	8.1792E-01
372.83	8.2626E-01
373.19	6.9011E-01
373.55	9.0464E-01
373.91	9.2146E-01
374.27	9.9438E-01
374.63	9.7024E-01
374.99	8.8128E-01
375.35	8.4689E-01
375.71	8.6325E-01
376.07	8.7077E-01
376.42	8.6112E-01
376.78	7.8109E-01
377.14	8.8552E-01
377.50	9.6700E-01
377.86	8.2342E-01
378.22	7.7669E-01
378.58	7.7769E-01
378.94	7.5417E-01
379.30	7.9218E-01
379.66	7.8000E-01
380.02	7.6334E-01
380.38	7.4254E-01
380.74	7.7786E-01
381.09	8.1681E-01
381.45	7.5229E-01
381.81	7.2858E-01
382.17	7.6754E-01
382.53	7.9737E-01
382.89	7.1453E-01
383.25	7.5154E-01
383.61	7.4297E-01
383.97	7.2136E-01
384.32	7.1862E-01
384.68	6.8610E-01
385.04	7.6219E-01
385.40	7.8551E-01
385.76	7.8188E-01
386.12	7.3575E-01
386.48	7.4765E-01
386.83	6.9762E-01
387.19	6.9556E-01
387.55	7.7904E-01
387.91	7.5243E-01
388.27	7.0317E-01
388.62	7.9062E-01
388.98	7.1737E-01
389.34	7.9526E-01
389.70	7.2216E-01
390.06	7.4438E-01
390.42	7.5119E-01
390.77	7.3334E-01
391.13	7.4746E-01
391.49	7.3375E-01
391.85	7.7390E-01
392.20	6.8344E-01
392.56	6.9254E-01
392.92	7.0193E-01
393.28	7.0517E-01
393.64	7.3767E-01
393.99	7.5153E-01
394.35	7.3888E-01
394.71	7.3079E-01
395.07	7.1525E-01
395.42	7.1767E-01
395.78	7.3108E-01
396.14	6.5957E-01
396.50	6.6267E-01
396.85	7.2854E-01
397.21	7.0160E-01
397.57	7.2115E-01
397.92	6.7432E-01
398.28	6.5206E-01
398.64	7.7508E-01
399.00	6.2469E-01
399.35	6.5003E-01
399.71	6.9725E-01
400.07	6.7992E-01
400.42	6.6482E-01
400.78	6.8204E-01
401.14	6.8402E-01
401.49	6.3422E-01
401.85	6.3048E-01
402.21	6.4008E-01
402.57	6.3694E-01
402.92	6.7112E-01
403.28	6.3816E-01
403.63	6.3530E-01
403.99	6.4941E-01
404.35	6.3008E-01
404.70	6.1875E-01
405.06	6.2835E-01
405.42	6.4241E-01
405.77	5.9786E-01
406.13	5.9762E-01
406.49	5.9306E-01
406.84	6.0049E-01
407.20	5.8601E-01
407.55	6.3127E-01
407.91	6.4357E-01
408.27	6.0271E-01
408.62	6.0621E-01
408.98	6.1378E-01
409.34	6.2437E-01
409.69	5.9725E-01
410.05	6.2922E-01
410.40	6.0107E-01
410.76	5.5633E-01
411.11	5.6100E-01
411.47	6.0855E-01
411.83	5.7685E-01
412.18	5.8760E-01
412.54	5.7604E-01
412.89	5.7244E-01
413.25	5.9385E-01
413.60	6.1976E-01
413.96	5.8155E-01
414.31	5.8470E-01
414.67	6.1719E-01
415.03	6.0543E-01
415.38	6.1996E-01
415.74	6.1301E-01
416.09	6.0860E-01
416.45	6.1713E-01
416.80	6.0572E-01
417.16	6.0002E-01
417.51	5.9649E-01
417.87	5.7445E-01
418.22	5.6740E-01
418.58	5.7971E-01
418.93	5.5522E-01
419.29	5.9476E-01
419.64	5.7792E-01
420.00	5.4610E-01
420.35	5.3612E-01
420.71	5.6277E-01
421.06	5.6525E-01
421.42	5.7921E-01
421.77	5.7105E-01
422.12	5.7012E-01
422.48	5.3998E-01
422.83	5.7639E-01
423.19	5.4537E-01
423.54	5.4508E-01
423.90	5.5182E-01
424.25	5.2093E-01
424.61	5.7483E-01
424.96	5.3775E-01
425.31	5.3465E-01
425.67	5.1232E-01
426.02	5.3565E-01
426.38	5.3494E-01
426.73	5.0717E-01
427.09	5.3076E-01
427.44	5.0835E-01
427.79	5.1433E-01
428.15	5.2965E-01
428.50	5.2635E-01
428.85	5.3909E-01
429.21	4.9734E-01
429.56	4.8646E-01
429.92	4.9568E-01
430.27	5.1240E-01
430.62	5.1206E-01
430.98	5.1845E-01
431.33	5.0650E-01
431.68	4.8972E-01
432.04	4.8608E-01
432.39	4.9368E-01
432.74	5.1127E-01
433.10	4.7922E-01
433.45	5.0754E-01
433.80	5.0487E-01
434.16	5.1624E-01
434.51	4.9127E-01
434.86	5.1119E-01
435.22	4.9274E-01
435.57	5.2643E-01
435.92	5.1637E-01
436.28	5.1371E-01
436.63	4.7684E-01
436.98	5.0935E-01
437.34	5.0582E-01
437.69	4.8120E-01
438.04	4.6810E-01
438.39	5.0069E-01
438.75	5.1256E-01
439.10	4.6272E-01
439.45	5.0269E-01
439.81	4.9733E-01
440.16	4.6749E-01
440.51	4.8882E-01
440.86	4.8691E-01
441.22	4.7555E-01
441.57	4.8052E-01
441.92	4.6661E-01
442.27	4.8947E-01
442.63	4.7902E-01
442.98	5.1216E-01
443.33	5.0107E-01
443.68	4.6598E-01
444.03	4.3948E-01
444.39	4.4172E-01
444.74	4.7985E-01
445.09	4.8612E-01
445.44	4.8792E-01
445.79	4.3059E-01
446.15	4.6266E-01
446.50	4.7792E-01
446.85	4.4928E-01
447.20	4.3751E-01
447.55	4.7312E-01
447.91	4.5531E-01
448.26	4.6676E-01
448.61	4.6205E-01
448.96	4.5275E-01
449.31	4.5916E-01
449.66	4.6365E-01
450.02	4.5745E-01
450.37	4.5768E-01
450.72	4.5101E-01
451.07	4.8675E-01
451.42	4.8391E-01
451.77	4.5680E-01
452.12	4.5615E-01
452.47	4.7735E-01
452.83	4.3884E-01
453.18	4.6427E-01
453.53	4.5922E-01
453.88	4.3227E-01
454.23	4.2658E-01
454.58	4.2726E-01
454.93	4.5833E-01
455.28	4.5543E-01
455.63	4.4234E-01
455.98	4.3212E-01
456.34	4.5544E-01
456.69	4.4138E-01
457.04	4.4511E-01
457.39	4.1760E-01
457.74	4.2633E-01
458.09	4.1491E-01
458.44	4.1437E-01
458.79	4.0519E-01
459.14	4.1866E-01
459.49	4.3637E-01
459.84	4.1195E-01
460.19	4.3843E-01
460.54	4.3534E-01
460.89	4.0136E-01
461.24	4.3921E-01
461.59	4.2033E-01
461.94	4.2593E-01
462.29	3.9798E-01
462.64	4.2128E-01
462.99	4.2535E-01
463.34	4.4961E-01
463.69	4.2138E-01
464.04	3.9333E-01
464.39	4.0875E-01
464.74	4.1397E-01
465.09	4.2528E-01
465.44	4.0064E-01
465.79	4.1365E-01
466.14	4.1542E-01
466.49	4.0856E-01
466.84	4.0473E-01
467.19	4.1874E-01
467.54	4.2009E-01
467.89	3.9947E-01
468.24	3.7854E-01
468.59	3.9142E-01
468.94	3.8371E-01
469.29	3.8536E-01
469.64	3.9823E-01
469.99	3.8353E-01
470.34	3.7165E-01
470.68	3.9549E-01
471.03	3.8160E-01
471.38	3.8243E-01
471.73	3.6469E-01
472.08	3.5978E-01
472.43	3.4788E-01
472.78	3.6689E-01
473.13	3.6295E-01
473.48	3.5685E-01
473.83	3.5022E-01
474.17	3.5512E-01
474.52	3.5128E-01
474.87	3.3700E-01
475.22	3.4413E-01
475.57	3.2721E-01
475.92	3.1905E-01
476.27	3.2848E-01
476.61	3.1984E-01
476.96	3.1185E-01
477.31	3.0220E-01
477.66	3.0790E-01
478.01	3.0617E-01
478.36	3.0463E-01
478.70	3.0022E-01
479.05	3.0478E-01
479.40	2.9081E-01
479.75	2.8748E-01
480.10	2.8956E-01
480.45	2.8264E-01
480.79	2.8141E-01
481.14	2.8553E-01
481.49	2.7848E-01
481.84	2.7344E-01
482.19	2.7166E-01
482.53	2.7101E-01
482.88	2.6862E-01
483.23	2.6401E-01
483.58	2.5880E-01
483.92	2.6526E-01
484.27	2.5676E-01
484.62	2.5537E-01
484.97	2.4972E-01
485.31	2.4836E-01
485.66	2.5407E-01
486.01	2.5389E-01
486.36	2.4172E-01
486.70	2.4816E-01
487.05	2.4681E-01
487.40	2.4719E-01
487.75	2.3976E-01
488.09	2.3998E-01
488.44	2.4208E-01
488.79	2.3859E-01
489.13	2.3577E-01
489.48	2.3864E-01
489.83	2.3910E-01
490.17	2.3255E-01
490.52	2.3245E-01
490.87	2.3371E-01
491.22	2.3707E-01
491.56	2.3373E-01
491.91	2.3659E-01
492.26	2.3384E-01
492.60	2.3413E-01
492.95	2.3605E-01
493.30	2.3557E-01
493.64	2.3279E-01
493.99	2.3416E-01
494.34	2.3125E-01
494.68	2.2868E-01
495.03	2.3438E-01
495.37	2.3212E-01
495.72	2.3459E-01
496.07	2.2961E-01
496.41	2.3109E-01
496.76	2.2940E-01
497.11	2.3164E-01
497.45	2.3077E-01
497.80	2.3116E-01
498.14	2.3113E-01
498.49	2.3139E-01
498.84	2.3204E-01
499.18	2.3148E-01
499.53	2.3157E-01
499.87	2.2914E-01
500.22	2.3198E-01
500.56	2.3163E-01
500.91	2.3123E-01
501.26	2.3083E-01
501.60	2.3047E-01
501.95	2.2869E-01
502.29	2.3149E-01
502.64	2.2747E-01
502.98	2.3104E-01
503.33	2.2901E-01
503.67	2.2951E-01
504.02	2.2912E-01
504.36	2.2871E-01
504.71	2.2942E-01
505.06	2.2725E-01
505.40	2.2744E-01
505.75	2.2881E-01
506.09	2.2890E-01
506.44	2.2880E-01
506.78	2.2641E-01
507.13	2.2772E-01
507.47	2.2587E-01
507.82	2.2584E-01
508.16	2.2802E-01
508.51	2.2580E-01
508.85	2.2315E-01
509.19	2.2594E-01
509.54	2.2567E-01
509.88	2.2571E-01
510.23	2.2262E-01
510.57	2.2353E-01
510.92	2.2287E-01
511.26	2.2326E-01
511.61	2.2301E-01
511.95	2.2308E-01
512.30	2.2197E-01
512.64	2.2359E-01
512.98	2.1950E-01
513.33	2.2103E-01
513.67	2.2174E-01
514.02	2.2093E-01
514.36	2.1888E-01
514.70	2.2052E-01
515.05	2.1793E-01
515.39	2.1964E-01
515.74	2.1740E-01
516.08	2.1640E-01
516.42	2.1821E-01
516.77	2.1884E-01
517.11	2.1878E-01
517.46	2.1998E-01
517.80	2.1675E-01
518.14	2.1829E-01
518.49	2.1621E-01
518.83	2.1718E-01
519.17	2.1713E-01
519.52	2.1747E-01
519.86	2.1634E-01
520.20	2.1555E-01
520.55	2.1613E-01
520.89	2.1484E-01
521.23	2.1690E-01
521.58	2.1665E-01
521.92	2.1830E-01
522.26	2.1947E-01
522.61	2.1596E-01
522.95	2.1756E-01
523.29	2.1457E-01
523.64	2.1480E-01
523.98	2.1575E-01
524.32	2.1641E-01
524.66	2.1808E-01
525.01	2.1819E-01
525.35	2.1895E-01
525.69	2.1937E-01
526.04	2.1870E-01
526.38	2.1576E-01
526.72	2.2015E-01
527.06	2.1863E-01
527.41	2.2050E-01
527.75	2.2254E-01
528.09	2.2056E-01
528.43	2.2419E-01
528.78	2.2148E-01
529.12	2.2383E-01
529.46	2.2567E-01
529.80	2.2467E-01
530.15	2.2537E-01
530.49	2.2531E-01
530.83	2.2654E-01
531.17	2.2653E-01
531.51	2.2586E-01
531.86	2.2767E-01
532.20	2.2884E-01
532.54	2.2830E-01
532.88	2.3000E-01
533.22	2.3166E-01
533.57	2.3300E-01
533.91	2.3225E-01
534.25	2.3425E-01
534.59	2.3305E-01
534.93	2.3491E-01
535.27	2.3385E-01
535.62	2.3829E-01
535.96	2.3739E-01
536.30	2.3792E-01
536.64	2.3840E-01
536.98	2.4039E-01
537.32	2.3962E-01
537.66	2.3956E-01
538.01	2.4215E-01
538.35	2.4402E-01
538.69	2.4118E-01
539.03	2.4687E-01
539.37	2.4441E-01
539.71	2.4629E-01
540.05	2.4672E-01
540.39	2.4754E-01
540.73	2.4658E-01
541.07	2.4731E-01
541.42	2.4765E-01
541.76	2.4788E-01
542.10	2.4938E-01
542.44	2.5022E-01
542.78	2.5069E-01
543.12	2.4984E-01
543.46	2.5550E-01
543.80	2.5226E-01
544.14	2.5215E-01
544.48	2.5115E-01
544.82	2.5391E-01
545.16	2.5398E-01
545.50	2.5282E-01
545.84	2.5537E-01
546.18	2.5361E-01
546.52	2.5654E-01
546.86	2.5442E-01
547.20	2.5768E-01
547.54	2.6073E-01
547.88	2.5618E-01
548.22	2.5702E-01
548.56	2.5839E-01
548.90	2.5640E-01
549.24	2.5866E-01
549.58	2.5939E-01
549.92	2.5745E-01
550.26	2.6194E-01
550.60	2.5829E-01
550.94	2.5707E-01
551.28	2.6067E-01
551.62	2.5884E-01
551.96	2.6111E-01
552.30	2.6236E-01
552.64	2.6130E-01
552.98	2.6163E-01
553.32	2.6193E-01
553.66	2.6052E-01
554.00	2.6112E-01
554.34	2.6186E-01
554.68	2.6283E-01
555.02	2.6315E-01
555.36	2.6432E-01
555.69	2.6289E-01
556.03	2.6294E-01
556.37	2.6395E-01
556.71	2.6178E-01
557.05	2.6136E-01
557.39	2.6200E-01
557.73	2.6243E-01
558.07	2.6458E-01
558.41	2.6313E-01
558.75	2.6374E-01
559.08	2.6367E-01
559.42	2.6131E-01
559.76	2.6555E-01
560.10	2.6504E-01
560.44	2.6504E-01
560.78	2.6238E-01
561.12	2.6411E-01
561.45	2.6360E-01
561.79	2.6492E-01
562.13	2.6480E-01
562.47	2.6490E-01
562.81	2.6522E-01
563.15	2.6529E-01
563.48	2.6558E-01
563.82	2.6262E-01
564.16	2.6474E-01
564.50	2.6474E-01
564.84	2.6557E-01
565.17	2.6569E-01
565.51	2.6535E-01
565.85	2.6722E-01
566.19	2.6399E-01
566.52	2.6776E-01
566.86	2.6458E-01
567.20	2.6735E-01
567.54	2.6619E-01
567.88	2.6678E-01
568.21	2.6650E-01
568.55	2.6813E-01
568.89	2.6817E-01
569.23	2.6794E-01
569.56	2.6725E-01
569.90	2.6840E-01
570.24	2.7013E-01
570.57	2.7021E-01
570.91	2.7073E-01
571.25	2.6673E-01
571.59	2.7004E-01
571.92	2.6967E-01
572.26	2.7091E-01
572.60	2.7331E-01
572.93	2.7185E-01
573.27	2.7428E-01
573.61	2.7464E-01
573.95	2.7064E-01
574.28	2.7512E-01
574.62	2.7533E-01
574.96	2.7544E-01
575.29	2.7475E-01
575.63	2.7932E-01
575.97	2.7845E-01
576.30	2.8493E-01
576.64	2.8125E-01
576.98	2.8082E-01
577.31	2.8219E-01
577.65	2.8504E-01
577.98	2.8280E-01
578.32	2.8532E-01
578.66	2.8703E-01
578.99	2.8724E-01
579.33	2.8853E-01
579.67	2.8679E-01
580.00	2.9027E-01
580.34	2.8977E-01
580.67	2.9117E-01
581.01	2.9362E-01
581.35	2.9468E-01
581.68	2.9570E-01
582.02	2.9474E-01
582.35	2.9723E-01
582.69	2.9701E-01
583.02	3.0161E-01
583.36	2.9853E-01
583.70	2.9783E-01
584.03	3.0024E-01
584.37	2.9868E-01
584.70	3.0500E-01
585.04	3.0477E-01
585.37	3.0282E-01
585.71	3.0782E-01
586.04	3.0701E-01
586.38	3.0485E-01
586.72	3.0906E-01
587.05	3.1049E-01
587.39	3.1202E-01
587.72	3.0960E-01
588.06	3.1231E-01
588.39	3.1155E-01
588.73	3.1496E-01
589.06	3.1273E-01
589.40	3.1752E-01
589.73	3.1939E-01
590.07	3.1982E-01
590.40	3.2004E-01
590.73	3.2383E-01
591.07	3.2032E-01
591.40	3.2738E-01
591.74	3.2013E-01
592.07	3.2468E-01
592.41	3.2614E-01
592.74	3.2733E-01
593.08	3.2514E-01
593.41	3.2729E-01
593.75	3.2494E-01
594.08	3.2996E-01
594.41	3.2839E-01
594.75	3.2955E-01
595.08	3.2931E-01
595.42	3.2555E-01
595.75	3.3080E-01
596.09	3.3099E-01
596.42	3.2927E-01
596.75	3.3346E-01
597.09	3.3503E-01
597.42	3.3156E-01
597.75	3.3549E-01
598.09	3.3634E-01
598.42	3.3392E-01
598.76	3.3586E-01
599.09	3.4036E-01
599.42	3.3985E-01
599.76	3.3824E-01
600.09	3.3699E-01
600.42	3.4262E-01
600.76	3.3600E-01
601.09	3.3996E-01
601.42	3.4350E-01
601.76	3.3915E-01
602.09	3.3856E-01
602.42	3.4079E-01
602.76	3.3963E-01
603.09	3.3892E-01
603.42	3.4499E-01
603.76	3.4112E-01
604.09	3.4090E-01
604.42	3.4379E-01
604.76	3.4118E-01
605.09	3.4606E-01
605.42	3.4281E-01
605.75	3.4433E-01
606.09	3.4280E-01
606.42	3.4390E-01
606.75	3.4574E-01
607.09	3.4644E-01
607.42	3.4680E-01
607.75	3.4732E-01
608.08	3.4617E-01
608.42	3.4873E-01
608.75	3.4493E-01
609.08	3.4912E-01
609.41	3.4823E-01
609.75	3.4682E-01
610.08	3.4854E-01
610.41	3.5071E-01
610.74	3.4968E-01
611.07	3.4981E-01
611.41	3.4938E-01
611.74	3.5068E-01
612.07	3.5272E-01
612.40	3.4749E-01
612.73	3.5113E-01
613.07	3.5293E-01
613.40	3.4909E-01
613.73	3.4815E-01
614.06	3.5111E-01
614.39	3.5227E-01
614.72	3.5404E-01
615.06	3.5326E-01
615.39	3.5761E-01
615.72	3.5165E-01
616.05	3.5505E-01
616.38	3.5580E-01
616.71	3.5657E-01
617.05	3.5489E-01
617.38	3.5667E-01
617.71	3.5477E-01
618.04	3.5648E-01
618.37	3.5450E-01
618.70	3.5576E-01
619.03	3.5720E-01
619.36	3.5159E-01
619.69	3.5897E-01
620.03	3.5470E-01
620.36	3.5533E-01
620.69	3.5424E-01
621.02	3.5697E-01
621.35	3.5611E-01
621.68	3.5273E-01
622.01	3.5179E-01
622.34	3.5349E-01
622.67	3.5297E-01
623.00	3.5432E-01
623.33	3.5507E-01
623.66	3.5249E-01
623.99	3.5350E-01
624.32	3.5229E-01
624.65	3.5329E-01
624.99	3.5270E-01
625.32	3.5436E-01
625.65	3.5402E-01
625.98	3.4878E-01
626.31	3.5343E-01
626.64	3.5424E-01
626.97	3.5461E-01
627.30	3.5155E-01
627.63	3.5322E-01
627.96	3.5044E-01
628.29	3.5035E-01
628.62	3.5396E-01
628.95	3.5367E-01
629.28	3.4796E-01
629.61	3.5912E-01
629.94	3.5385E-01
630.26	3.5470E-01
630.59	3.5657E-01
630.92	3.5461E-01
631.25	3.5621E-01
631.58	3.6046E-01
631.91	3.5510E-01
632.24	3.6250E-01
632.57	3.5877E-01
632.90	3.5928E-01
633.23	3.6004E-01
633.56	3.6212E-01
633.89	3.6277E-01
634.22	3.6380E-01
634.55	3.6482E-01
634.88	3.6900E-01
635.20	3.6774E-01
635.53	3.7079E-01
635.86	3.7109E-01
636.19	3.7513E-01
636.52	3.7624E-01
636.85	3.7306E-01
637.18	3.7779E-01
637.51	3.7498E-01
637.83	3.7890E-01
638.16	3.7508E-01
638.49	3.8627E-01
638.82	3.8461E-01
639.15	3.8729E-01
639.48	3.9047E-01
639.81	3.9234E-01
640.13	3.8889E-01
640.46	3.9460E-01
640.79	3.9440E-01
641.12	3.9804E-01
641.45	3.9749E-01
641.77	3.9517E-01
642.10	4.0409E-01
642.43	4.0479E-01
642.76	4.0719E-01
643.09	4.0474E-01
643.41	4.0791E-01
643.74	4.0820E-01
644.07	4.0801E-01
644.40	4.1164E-01
644.73	4.1595E-01
645.05	4.1775E-01
645.38	4.2036E-01
645.71	4.2137E-01
646.04	4.2146E-01
646.36	4.2088E-01
646.69	4.2716E-01
647.02	4.2762E-01
647.35	4.2500E-01
647.67	4.3061E-01
648.00	4.2924E-01
648.33	4.3441E-01
648.66	4.3181E-01
648.98	4.3764E-01
649.31	4.3664E-01
649.64	4.3855E-01
649.96	4.4303E-01
650.29	4.4522E-01
650.62	4.4588E-01
650.94	4.4520E-01
651.27	4.4476E-01
651.60	4.4574E-01
651.92	4.5330E-01
652.25	4.5448E-01
652.58	4.5368E-01
652.90	4.5551E-01
653.23	4.5587E-01
653.56	4.5781E-01
653.88	4.5933E-01
654.21	4.5944E-01
654.54	4.6148E-01
654.86	4.6729E-01
655.19	4.6193E-01
655.52	4.6914E-01
655.84	4.6779E-01
656.17	4.7033E-01
656.49	4.7557E-01
656.82	4.7007E-01
657.15	4.7541E-01
657.47	4.7545E-01
657.80	4.7550E-01
658.13	4.7751E-01
658.45	4.8014E-01
658.78	4.7925E-01
659.10	4.8569E-01
659.43	4.8468E-01
659.75	4.8332E-01
660.08	4.8144E-01
660.41	4.8794E-01
660.73	4.8843E-01
661.06	4.9164E-01
661.38	4.9016E-01
661.71	4.9225E-01
662.03	4.9204E-01
662.36	4.9851E-01
662.68	4.9715E-01
663.01	4.9137E-01
663.33	4.9567E-01
663.66	4.9934E-01
663.98	4.9671E-01
664.31	4.9704E-01
664.63	5.0699E-01
664.96	5.0352E-01
665.28	5.0729E-01
665.61	5.0612E-01
665.93	5.0692E-01
666.26	5.0976E-01
666.58	5.1083E-01
666.91	5.0698E-01
667.23	5.1253E-01
667.56	5.0673E-01
667.88	5.1461E-01
668.21	5.1374E-01
668.53	5.1220E-01
668.86	5.2207E-01
669.18	5.1438E-01
669.50	5.2580E-01
669.83	5.2419E-01
670.15	5.2571E-01
670.48	5.2449E-01
670.80	5.2261E-01
671.13	5.2044E-01
671.45	5.2658E-01
671.77	5.2934E-01
672.10	5.2557E-01
672.42	5.3356E-01
672.75	5.3024E-01
673.07	5.3476E-01
673.39	5.2935E-01
673.72	5.3291E-01
674.04	5.3679E-01
674.37	5.4042E-01
674.69	5.3712E-01
675.01	5.4181E-01
675.34	5.4331E-01
675.66	5.4468E-01
675.98	5.3881E-01
676.31	5.4754E-01
676.63	5.4960E-01
676.95	5.4655E-01
677.28	5.5025E-01
677.60	5.5040E-01
677.92	5.4890E-01
678.25	5.5462E-01
678.57	5.5542E-01
678.89	5.5411E-01
679.22	5.6242E-01
679.54	5.5956E-01
679.86	5.6033E-01
680.18	5.6188E-01
680.51	5.6354E-01
680.83	5.6924E-01
681.15	5.6289E-01
681.48	5.6728E-01
681.80	5.7069E-01
682.12	5.6785E-01
682.44	5.7686E-01
682.77	5.7762E-01
683.09	5.8115E-01
683.41	5.7793E-01
683.73	5.8342E-01
684.06	5.8273E-01
684.38	5.8434E-01
684.70	5.8310E-01
685.02	5.8904E-01
685.34	5.9507E-01
685.67	5.8994E-01
685.99	5.9777E-01
686.31	5.9237E-01
686.63	6.0316E-01
686.96	5.9935E-01
687.28	6.0642E-01
687.60	5.9837E-01
687.92	6.0456E-01
688.24	6.1074E-01
688.56	6.1291E-01
688.89	6.1460E-01
689.21	6.1125E-01
689.53	6.1444E-01
689.85	6.2345E-01
690.17	6.1935E-01
690.49	6.2894E-01
690.82	6.2860E-01
691.14	6.2852E-01
691.46	6.3247E-01
691.78	6.3629E-01
692.10	6.2942E-01
692.42	6.3600E-01
692.74	6.4210E-01
693.06	6.4249E-01
693.39	6.5333E-01
693.71	6.5371E-01
694.03	6.5415E-01
694.35	6.5678E-01
694.67	6.5765E-01
694.99	6.6456E-01
695.31	6.6703E-01
695.63	6.6573E-01
695.95	6.7163E-01
696.27	6.7014E-01
696.59	6.7602E-01
696.91	6.8567E-01
697.23	6.8426E-01
697.56	6.8217E-01
697.88	6.9034E-01
698.20	6.8913E-01
698.52	6.9614E-01
698.84	7.0110E-01
699.16	7.0576E-01
699.48	6.9928E-01
699.80	7.0848E-01
700.12	7.1474E-01
700.44	7.1633E-01
700.76	7.1770E-01
701.08	7.2182E-01
701.40	7.2540E-01
701.72	7.3354E-01
702.04	7.3240E-01
702.36	7.3900E-01
702.68	7.4204E-01
703.00	7.4683E-01
703.32	7.5059E-01
703.64	7.5208E-01
703.96	7.4435E-01
704.28	7.5585E-01
704.60	7.6478E-01
704.91	7.6756E-01
705.23	7.6847E-01
705.55	7.7670E-01
705.87	7.7091E-01
706.19	7.7410E-01
706.51	7.7954E-01
706.83	7.8229E-01
707.15	8.0330E-01
707.47	7.8667E-01
707.79	8.0075E-01
708.11	8.0284E-01
708.43	8.0704E-01
708.74	8.1372E-01
709.06	8.2595E-01
709.38	8.2009E-01
709.70	8.1453E-01
710.02	8.2637E-01
710.34	8.2320E-01
710.66	8.4396E-01
710.98	8.3960E-01
711.29	8.3840E-01
711.61	8.5377E-01
711.93	8.5915E-01
712.25	8.5160E-01
712.57	8.6287E-01
712.89	8.6656E-01
713.20	8.6748E-01
713.52	8.7573E-01
713.84	8.8409E-01
714.16	8.7697E-01
714.48	8.7971E-01
714.80	8.9383E-01
715.11	8.9228E-01
715.43	9.0449E-01
715.75	9.0883E-01
716.07	9.1850E-01
716.39	9.0187E-01
716.70	9.1342E-01
717.02	9.0834E-01
717.34	9.3615E-01
717.66	9.2601E-01
717.97	9.3732E-01
718.29	9.4347E-01
718.61	9.5566E-01
718.93	9.5515E-01
719.24	9.5755E-01
719.56	9.7950E-01
719.88	9.6943E-01
720.20	9.8232E-01
720.51	9.9506E-01
720.83	9.8991E-01
721.15	1.0105E00
721.46	1.0073E00
721.78	1.0139E00
722.10	1.0278E00
722.42	1.0369E00
722.73	1.0439E00
723.05	1.0315E00
723.37	1.0455E00
723.68	1.0571E00
724.00	1.0566E00
724.32	1.0741E00
724.63	1.0717E00
724.95	1.0672E00
725.27	1.0778E00
725.58	1.0842E00
725.90	1.0842E00
726.22	1.1030E00
726.53	1.0796E00
726.85	1.0952E00
727.16	1.1170E00
727.48	1.0984E00
727.80	1.1109E00
728.11	1.1152E00
728.43	1.1121E00
728.74	1.1068E00
729.06	1.1281E00
729.38	1.1240E00
729.69	1.1291E00
730.01	1.1359E00
730.32	1.1447E00
730.64	1.1436E00
730.96	1.1327E00
731.27	1.1638E00
731.59	1.1362E00
731.90	1.1505E00
732.22	1.1597E00
732.53	1.1569E00
732.85	1.1715E00
733.16	1.1670E00
733.48	1.1745E00
733.80	1.1690E00
734.11	1.1907E00
734.43	1.1888E00
734.74	1.1875E00
735.06	1.2026E00
735.37	1.2125E00
735.69	1.1964E00
736.00	1.2104E00
736.32	1.2129E00
736.63	1.2200E00
736.95	1.2184E00
737.26	1.2405E00
737.58	1.2401E00
737.89	1.2486E00
738.21	1.2367E00
738.52	1.2439E00
738.83	1.2487E00
739.15	1.2474E00
739.46	1.2643E00
739.78	1.2613E00
740.09	1.2764E00
740.41	1.2682E00
740.72	1.2639E00
741.04	1.2658E00
741.35	1.2684E00
741.66	1.2890E00
741.98	1.2823E00
742.29	1.2903E00
742.61	1.2826E00
742.92	1.2878E00
743.23	1.2881E00
743.55	1.2967E00
743.86	1.2854E00
744.18	1.2939E00
744.49	1.2951E00
744.80	1.2937E00
745.12	1.2950E00
745.43	1.2992E00
745.74	1.2982E00
746.06	1.2896E00
746.37	1.2886E00
746.68	1.2986E00
747.00	1.2960E00
747.31	1.2854E00
747.62	1.2775E00
747.94	1.2977E00
748.25	1.2994E00
748.56	1.3007E00
748.88	1.2827E00
749.19	1.2923E00
749.50	1.2962E00
749.82	1.2863E00
750.13	1.2938E00
750.44	1.2967E00
750.75	1.2812E00
751.07	1.2990E00
751.38	1.3056E00
751.69	1.2808E00
752.01	1.2988E00
752.32	1.2979E00
752.63	1.2997E00
752.94	1.3074E00
753.26	1.3126E00
753.57	1.2994E00
753.88	1.3078E00
754.19	1.3088E00
754.51	1.3125E00
754.82	1.3078E00
755.13	1.3234E00
755.44	1.3221E00
755.75	1.3258E00
756.07	1.3254E00
756.38	1.3404E00
756.69	1.3372E00
757.00	1.3460E00
757.31	1.3614E00
757.63	1.3690E00
757.94	1.3714E00
758.25	1.3855E00
758.56	1.3524E00
758.87	1.3996E00
759.18	1.4021E00
759.50	1.3996E00
759.81	1.3936E00
760.12	1.4031E00
760.43	1.4137E00
760.74	1.4100E00
761.05	1.4383E00
761.36	1.4414E00
761.67	1.4515E00
761.99	1.4627E00
762.30	1.4409E00
762.61	1.4759E00
762.92	1.4731E00
763.23	1.4741E00
763.54	1.4884E00
763.85	1.5141E00
764.16	1.5167E00
764.47	1.5352E00
764.78	1.5462E00
765.10	1.5478E00
765.41	1.5491E00
765.72	1.5590E00
766.03	1.5938E00
766.34	1.6064E00
766.65	1.6161E00
766.96	1.6498E00
767.27	1.6383E00
767.58	1.6373E00
767.89	1.6571E00
768.20	1.6817E00
768.51	1.6819E00
768.82	1.6858E00
769.13	1.7192E00
769.44	1.7400E00
769.75	1.7385E00
770.06	1.7421E00
770.37	1.7405E00
770.68	1.7847E00
770.99	1.7967E00
771.30	1.8068E00
771.61	1.8595E00
771.92	1.8188E00
772.23	1.8428E00
772.54	1.8859E00
772.85	1.8658E00
773.16	1.8830E00
773.47	1.9407E00
773.78	1.9260E00
774.09	1.9585E00
774.39	1.9614E00
774.70	1.9670E00
775.01	2.0057E00
775.32	2.0160E00
775.63	2.0395E00
775.94	2.0592E00
776.25	2.0489E00
776.56	2.0672E00
776.87	2.1225E00
777.18	2.1156E00
777.48	2.1357E00
777.79	2.1533E00
778.10	2.1765E00
778.41	2.1931E00
778.72	2.2175E00
779.03	2.2279E00
779.34	2.2756E00
779.65	2.2768E00
779.95	2.3161E00
780.26	2.2992E00
780.57	2.3394E00
780.88	2.3339E00
781.19	2.3756E00
781.50	2.3793E00
781.80	2.4007E00
782.11	2.4028E00
782.42	2.4640E00
782.73	2.4149E00
783.04	2.5120E00
783.34	2.5088E00
783.65	2.5284E00
783.96	2.5375E00
784.27	2.5520E00
784.57	2.5719E00
784.88	2.6013E00
785.19	2.6134E00
785.50	2.6455E00
785.81	2.6793E00
786.11	2.6406E00
786.42	2.6747E00
786.73	2.7005E00
787.04	2.7332E00
787.34	2.7831E00
787.65	2.7948E00
787.96	2.8576E00
788.26	2.8360E00
788.57	2.8943E00
788.88	2.8617E00
789.19	2.9535E00
789.49	2.9226E00
789.80	2.9763E00
790.11	2.9829E00
790.41	3.0135E00
790.72	3.0447E00
791.03	3.0601E00
791.33	3.0895E00
791.64	3.1574E00
791.95	3.1019E00
792.25	3.2031E00
792.56	3.1715E00
792.87	3.2195E00
793.17	3.2395E00
793.48	3.2574E00
793.79	3.2843E00
794.09	3.3505E00
794.40	3.3023E00
794.70	3.3125E00
795.01	3.3250E00
795.32	3.3719E00
795.62	3.4383E00
795.93	3.4455E00
796.23	3.4577E00
796.54	3.5006E00
796.85	3.4875E00
797.15	3.5294E00
797.46	3.5590E00
797.76	3.6500E00
798.07	3.6343E00
798.37	3.6445E00
798.68	3.6982E00
798.99	3.6972E00
799.29	3.7387E00
799.60	3.8034E00
799.90	3.7980E00
800.21	3.8545E00
800.51	3.8851E00
800.82	3.8788E00
801.12	3.9508E00
801.43	3.9394E00
801.73	4.0229E00
802.04	4.0133E00
802.34	4.0091E00
802.65	4.0546E00
802.95	4.1918E00
803.26	4.1616E00
803.56	4.0876E00
803.87	4.1569E00
804.17	4.1851E00
804.48	4.1807E00
804.78	4.2590E00
805.09	4.3324E00
805.39	4.3032E00
805.70	4.3252E00
806.00	4.3959E00
806.30	4.3889E00
806.61	4.4512E00
806.91	4.4771E00
807.22	4.5262E00
807.52	4.5480E00
807.83	4.5724E00
808.13	4.6217E00
808.43	4.5290E00
808.74	4.6588E00
809.04	4.6992E00
809.35	4.6723E00
809.65	4.7853E00
809.95	4.8112E00
810.26	4.8638E00
810.56	4.8862E00
810.86	4.9547E00
811.17	4.9840E00
811.47	4.9795E00
811.77	4.9791E00
812.08	4.9784E00
812.38	5.1264E00
812.69	5.0230E00
812.99	5.1926E00
813.29	5.2165E00
813.59	5.2578E00
813.90	5.2783E00
814.20	5.2831E00
814.50	5.3562E00
814.81	5.2934E00
815.11	5.4181E00
815.41	5.5545E00
815.72	5.4833E00
816.02	5.5217E00
816.32	5.5369E00
816.62	5.4952E00
816.93	5.5993E00
817.23	5.7702E00
817.53	5.6618E00
817.84	5.7822E00
818.14	5.7747E00
818.44	5.7616E00
818.74	5.9269E00
819.04	6.0348E00
819.35	5.9623E00
819.65	6.0091E00
819.95	6.1699E00
820.25	6.1745E00
820.56	6.1632E00
820.86	6.2393E00
821.16	6.2922E00
821.46	6.2889E00
821.76	6.3187E00
822.07	6.2820E00
822.37	6.3878E00
822.67	6.4988E00
822.97	6.5366E00
823.27	6.5205E00
823.57	6.6258E00
823.88	6.5904E00
824.18	6.7026E00
824.48	6.6849E00
824.78	6.7731E00
825.08	6.7454E00
825.38	6.8607E00
825.69	6.8580E00
825.99	6.9686E00
826.29	6.9973E00
826.59	6.9748E00
826.89	7.1023E00
827.19	6.9200E00
827.49	7.3784E00
827.79	7.2736E00
828.09	7.2042E00
828.39	7.3743E00
828.70	7.3573E00
829.00	7.3450E00
829.30	7.4792E00
829.60	7.5892E00
829.90	7.4840E00
830.20	7.4324E00
830.50	7.7673E00
830.80	7.8091E00
831.10	7.6569E00
831.40	7.9330E00
831.70	7.8387E00
832.00	7.8843E00
832.30	8.1084E00
832.60	7.9960E00
832.90	8.1399E00
833.20	8.3087E00
833.50	8.1201E00
833.80	8.2633E00
834.10	8.3503E00
834.40	8.2012E00
834.70	8.3886E00
835.00	8.4332E00
835.30	8.3970E00
835.60	8.5310E00
835.90	8.6121E00
836.20	8.8175E00
836.50	8.8024E00
836.80	8.8149E00
837.10	8.7665E00
837.40	8.9246E00
837.70	8.9777E00
838.00	8.9856E00
838.30	8.9496E00
838.60	9.3112E00
838.90	9.2965E00
839.19	9.1995E00
839.49	9.5557E00
839.79	9.4253E00
840.09	9.5261E00
840.39	9.3807E00
840.69	9.5659E00
840.99	1.0092E01
841.29	9.9378E00
841.59	9.9513E00
841.88	1.0006E01
842.18	1.0071E01
842.48	1.0319E01
842.78	1.0265E01
843.08	1.0378E01
843.38	1.0236E01
843.68	1.0562E01
843.97	1.0597E01
844.27	1.0633E01
844.57	1.0824E01
844.87	1.0880E01
845.17	1.0772E01
845.47	1.0642E01
845.76	1.0955E01
846.06	1.1138E01
846.36	1.1032E01
846.66	1.1275E01
846.96	1.1201E01
847.25	1.1242E01
847.55	1.1333E01
847.85	1.1611E01
848.15	1.1424E01
848.44	1.1775E01
848.74	1.1497E01
849.04	1.1808E01
849.34	1.1888E01
849.63	1.2127E01
849.93	1.2083E01
850.23	1.2572E01
850.53	1.2051E01
850.82	1.2366E01
851.12	1.2348E01
851.42	1.2215E01
851.71	1.2539E01
852.01	1.2804E01
852.31	1.3034E01
852.61	1.3107E01
852.90	1.3117E01
853.20	1.3247E01
853.50	1.3445E01
853.79	1.3783E01
854.09	1.3296E01
854.39	1.3492E01
854.68	1.4232E01
854.98	1.4025E01
855.28	1.4000E01
855.57	1.4146E01
855.87	1.4210E01
856.17	1.4273E01
856.46	1.4262E01
856.76	1.4390E01
857.05	1.4659E01
857.35	1.4750E01
857.65	1.4566E01
857.94	1.4951E01
858.24	1.4916E01
858.53	1.5284E01
858.83	1.5219E01
859.13	1.5478E01
859.42	1.5308E01
859.72	1.5856E01
860.01	1.6434E01
860.31	1.6030E01
860.60	1.6397E01
860.90	1.6358E01
861.20	1.6606E01
861.49	1.6310E01
861.79	1.7057E01
862.08	1.7100E01
862.38	1.7421E01
862.67	1.7354E01
862.97	1.7498E01
863.26	1.7343E01
863.56	1.8296E01
863.85	1.8170E01
864.15	1.7933E01
864.44	1.8572E01
864.74	1.8363E01
865.03	1.8508E01
865.33	1.8671E01
865.62	1.9129E01
865.92	1.8918E01
866.21	2.0180E01
866.51	2.0039E01
866.80	1.9991E01
867.10	2.0459E01
867.39	2.0163E01
867.69	2.1028E01
867.98	2.0187E01
868.27	1.9926E01
868.57	1.8763E01
868.86	1.9155E01
869.16	1.8789E01
869.45	1.8626E01
869.75	1.8301E01
870.04	1.9106E01
870.33	1.9357E01
870.63	1.8770E01
870.92	1.9882E01
871.22	2.0566E01
871.51	1.9263E01
871.80	1.9385E01
872.10	1.9385E01
>>>>>End Processed Spectral Data<<<<<
