SpectraSuite Data File
++++++++++++++++++++++++++++++++++++
Date: Wed May 13 13:45:11 PDT 2015
User: schluterlab
Dark Spectrum Present: Yes
Reference Spectrum Present: No
Number of Sampled Component Spectra: 1
Spectrometers: USB2E3373
Integration Time (usec): 2200000 (USB2E3373)
Spectra Averaged: 3 (USB2E3373)
Boxcar Smoothing: 0 (USB2E3373)
Correct for Electrical Dark: No (USB2E3373)
Strobe/Lamp Enabled: No (USB2E3373)
Correct for Detector Non-linearity: No (USB2E3373)
Correct for Stray Light: No (USB2E3373)
Number of Pixels in Processed Spectrum: 2048
>>>>>Begin Processed Spectral Data<<<<<
178.53	0.0000E00
178.91	0.0000E00
179.29	0.0000E00
179.67	0.0000E00
180.04	0.0000E00
180.42	0.0000E00
180.80	0.0000E00
181.18	0.0000E00
181.56	0.0000E00
181.94	0.0000E00
182.31	0.0000E00
182.69	0.0000E00
183.07	0.0000E00
183.45	0.0000E00
183.83	0.0000E00
184.20	0.0000E00
184.58	0.0000E00
184.96	0.0000E00
185.34	0.0000E00
185.72	0.0000E00
186.09	0.0000E00
186.47	0.0000E00
186.85	0.0000E00
187.23	0.0000E00
187.61	0.0000E00
187.98	0.0000E00
188.36	0.0000E00
188.74	0.0000E00
189.12	0.0000E00
189.49	0.0000E00
189.87	0.0000E00
190.25	0.0000E00
190.63	0.0000E00
191.00	0.0000E00
191.38	0.0000E00
191.76	0.0000E00
192.14	0.0000E00
192.51	0.0000E00
192.89	0.0000E00
193.27	0.0000E00
193.65	0.0000E00
194.02	0.0000E00
194.40	0.0000E00
194.78	0.0000E00
195.15	0.0000E00
195.53	-0.0000E00
195.91	0.0000E00
196.29	0.0000E00
196.66	0.0000E00
197.04	0.0000E00
197.42	0.0000E00
197.79	0.0000E00
198.17	0.0000E00
198.55	0.0000E00
198.92	0.0000E00
199.30	0.0000E00
199.68	0.0000E00
200.05	0.0000E00
200.43	0.0000E00
200.81	0.0000E00
201.18	0.0000E00
201.56	0.0000E00
201.94	0.0000E00
202.31	-0.0000E00
202.69	0.0000E00
203.07	0.0000E00
203.44	0.0000E00
203.82	0.0000E00
204.19	0.0000E00
204.57	0.0000E00
204.95	0.0000E00
205.32	0.0000E00
205.70	0.0000E00
206.08	0.0000E00
206.45	0.0000E00
206.83	0.0000E00
207.20	0.0000E00
207.58	0.0000E00
207.96	0.0000E00
208.33	0.0000E00
208.71	0.0000E00
209.08	0.0000E00
209.46	0.0000E00
209.84	0.0000E00
210.21	0.0000E00
210.59	0.0000E00
210.96	0.0000E00
211.34	0.0000E00
211.71	0.0000E00
212.09	0.0000E00
212.46	0.0000E00
212.84	0.0000E00
213.22	0.0000E00
213.59	0.0000E00
213.97	0.0000E00
214.34	0.0000E00
214.72	0.0000E00
215.09	0.0000E00
215.47	0.0000E00
215.84	0.0000E00
216.22	0.0000E00
216.59	0.0000E00
216.97	0.0000E00
217.34	0.0000E00
217.72	0.0000E00
218.09	0.0000E00
218.47	0.0000E00
218.84	0.0000E00
219.22	0.0000E00
219.59	0.0000E00
219.97	0.0000E00
220.34	0.0000E00
220.72	0.0000E00
221.09	0.0000E00
221.47	0.0000E00
221.84	0.0000E00
222.22	0.0000E00
222.59	0.0000E00
222.97	0.0000E00
223.34	0.0000E00
223.72	0.0000E00
224.09	0.0000E00
224.46	0.0000E00
224.84	0.0000E00
225.21	0.0000E00
225.59	0.0000E00
225.96	0.0000E00
226.34	0.0000E00
226.71	0.0000E00
227.08	0.0000E00
227.46	0.0000E00
227.83	0.0000E00
228.21	0.0000E00
228.58	0.0000E00
228.95	0.0000E00
229.33	0.0000E00
229.70	0.0000E00
230.08	0.0000E00
230.45	0.0000E00
230.82	0.0000E00
231.20	0.0000E00
231.57	0.0000E00
231.95	0.0000E00
232.32	0.0000E00
232.69	0.0000E00
233.07	0.0000E00
233.44	0.0000E00
233.81	0.0000E00
234.19	0.0000E00
234.56	0.0000E00
234.93	0.0000E00
235.31	0.0000E00
235.68	0.0000E00
236.05	0.0000E00
236.43	0.0000E00
236.80	0.0000E00
237.17	0.0000E00
237.55	0.0000E00
237.92	0.0000E00
238.29	0.0000E00
238.67	0.0000E00
239.04	0.0000E00
239.41	0.0000E00
239.79	0.0000E00
240.16	0.0000E00
240.53	0.0000E00
240.91	0.0000E00
241.28	0.0000E00
241.65	0.0000E00
242.02	0.0000E00
242.40	0.0000E00
242.77	0.0000E00
243.14	0.0000E00
243.51	0.0000E00
243.89	0.0000E00
244.26	0.0000E00
244.63	0.0000E00
245.00	0.0000E00
245.38	0.0000E00
245.75	0.0000E00
246.12	0.0000E00
246.49	0.0000E00
246.87	0.0000E00
247.24	0.0000E00
247.61	0.0000E00
247.98	0.0000E00
248.36	0.0000E00
248.73	0.0000E00
249.10	0.0000E00
249.47	0.0000E00
249.84	0.0000E00
250.22	0.0000E00
250.59	0.0000E00
250.96	0.0000E00
251.33	0.0000E00
251.70	0.0000E00
252.08	0.0000E00
252.45	0.0000E00
252.82	0.0000E00
253.19	0.0000E00
253.56	0.0000E00
253.94	0.0000E00
254.31	0.0000E00
254.68	0.0000E00
255.05	0.0000E00
255.42	0.0000E00
255.79	0.0000E00
256.16	0.0000E00
256.54	0.0000E00
256.91	0.0000E00
257.28	0.0000E00
257.65	0.0000E00
258.02	0.0000E00
258.39	0.0000E00
258.76	0.0000E00
259.14	0.0000E00
259.51	0.0000E00
259.88	0.0000E00
260.25	0.0000E00
260.62	0.0000E00
260.99	0.0000E00
261.36	0.0000E00
261.73	0.0000E00
262.10	0.0000E00
262.47	0.0000E00
262.85	0.0000E00
263.22	0.0000E00
263.59	0.0000E00
263.96	0.0000E00
264.33	0.0000E00
264.70	0.0000E00
265.07	0.0000E00
265.44	0.0000E00
265.81	0.0000E00
266.18	0.0000E00
266.55	0.0000E00
266.92	0.0000E00
267.29	0.0000E00
267.66	0.0000E00
268.03	0.0000E00
268.40	0.0000E00
268.77	0.0000E00
269.14	0.0000E00
269.51	0.0000E00
269.88	0.0000E00
270.25	0.0000E00
270.62	0.0000E00
270.99	0.0000E00
271.36	0.0000E00
271.73	0.0000E00
272.10	0.0000E00
272.47	0.0000E00
272.84	0.0000E00
273.21	0.0000E00
273.58	0.0000E00
273.95	0.0000E00
274.32	0.0000E00
274.69	0.0000E00
275.06	0.0000E00
275.43	0.0000E00
275.80	0.0000E00
276.17	0.0000E00
276.54	0.0000E00
276.91	0.0000E00
277.28	0.0000E00
277.65	0.0000E00
278.02	0.0000E00
278.39	0.0000E00
278.76	0.0000E00
279.13	0.0000E00
279.50	0.0000E00
279.87	0.0000E00
280.23	0.0000E00
280.60	0.0000E00
280.97	0.0000E00
281.34	0.0000E00
281.71	0.0000E00
282.08	0.0000E00
282.45	0.0000E00
282.82	0.0000E00
283.19	0.0000E00
283.56	0.0000E00
283.92	0.0000E00
284.29	0.0000E00
284.66	0.0000E00
285.03	0.0000E00
285.40	0.0000E00
285.77	0.0000E00
286.14	0.0000E00
286.51	0.0000E00
286.87	0.0000E00
287.24	0.0000E00
287.61	0.0000E00
287.98	0.0000E00
288.35	0.0000E00
288.72	0.0000E00
289.08	0.0000E00
289.45	0.0000E00
289.82	0.0000E00
290.19	0.0000E00
290.56	0.0000E00
290.93	0.0000E00
291.29	0.0000E00
291.66	0.0000E00
292.03	0.0000E00
292.40	0.0000E00
292.77	0.0000E00
293.13	0.0000E00
293.50	0.0000E00
293.87	0.0000E00
294.24	0.0000E00
294.60	0.0000E00
294.97	0.0000E00
295.34	0.0000E00
295.71	0.0000E00
296.08	0.0000E00
296.44	0.0000E00
296.81	0.0000E00
297.18	0.0000E00
297.55	0.0000E00
297.91	0.0000E00
298.28	0.0000E00
298.65	0.0000E00
299.02	0.0000E00
299.38	0.0000E00
299.75	0.0000E00
300.12	8.0156E-02
300.48	2.2010E-01
300.85	8.3398E-02
301.22	2.2802E-01
301.59	7.3486E-02
301.95	8.4780E-02
302.32	1.1829E-01
302.69	1.1827E-01
303.05	7.0200E-02
303.42	9.7289E-02
303.79	1.1730E-01
304.15	7.7114E-02
304.52	7.8934E-02
304.89	7.6281E-02
305.25	1.6207E-01
305.62	9.8717E-02
305.99	1.2841E-01
306.35	7.2841E-02
306.72	9.7421E-02
307.09	1.0892E-01
307.45	9.7431E-02
307.82	6.6500E-02
308.19	8.7089E-02
308.55	9.5377E-02
308.92	1.1741E-01
309.29	9.1729E-02
309.65	1.7939E-01
310.02	9.0281E-02
310.38	9.1043E-02
310.75	1.2420E-01
311.12	1.2170E-01
311.48	2.1223E-01
311.85	1.4860E-01
312.22	1.0819E-01
312.58	2.2942E-01
312.95	1.4481E-01
313.31	1.3904E-01
313.68	1.7998E-01
314.05	3.0720E-01
314.41	1.7167E-01
314.78	1.0839E-01
315.14	2.4926E-01
315.51	3.6842E-01
315.87	1.6165E-01
316.24	2.3904E-01
316.61	2.2706E-01
316.97	1.6137E-01
317.34	2.9197E-01
317.70	2.1946E-01
318.07	2.3195E-01
318.43	2.7128E-01
318.80	2.0124E-01
319.16	2.5829E-01
319.53	1.8505E-01
319.89	3.8524E-01
320.26	3.0787E-01
320.62	3.7099E-01
320.99	3.3665E-01
321.35	1.9644E-01
321.72	2.7557E-01
322.08	4.1184E-01
322.45	2.7663E-01
322.81	2.6777E-01
323.18	8.7258E-01
323.54	4.6306E-01
323.91	3.5154E-01
324.27	7.4933E-01
324.64	5.8943E-01
325.00	4.6038E-01
325.37	7.6767E-01
325.73	2.9532E-01
326.10	1.1310E00
326.46	5.3506E-01
326.83	4.7702E-01
327.19	1.0084E00
327.56	4.0759E-01
327.92	5.8292E-01
328.29	4.5493E-01
328.65	5.7304E-01
329.01	7.1652E-01
329.38	4.8477E-01
329.74	4.4441E-01
330.11	6.8954E-01
330.47	4.5494E-01
330.84	6.2512E-01
331.20	6.2998E-01
331.56	5.7404E-01
331.93	6.6582E-01
332.29	6.3865E-01
332.66	4.4280E-01
333.02	5.3065E-01
333.38	8.0918E-01
333.75	3.8394E-01
334.11	6.8118E-01
334.48	6.0713E-01
334.84	5.6844E-01
335.20	7.1921E-01
335.57	1.3458E00
335.93	8.8953E-01
336.29	6.7012E-01
336.66	6.2669E-01
337.02	4.6207E-01
337.38	5.3821E-01
337.75	5.5376E-01
338.11	4.8148E-01
338.47	6.9900E-01
338.84	5.9416E-01
339.20	5.0393E-01
339.56	1.5103E00
339.93	5.1948E-01
340.29	6.0325E-01
340.65	6.5834E-01
341.02	1.1252E00
341.38	7.5730E-01
341.74	8.2597E-01
342.11	8.1857E-01
342.47	8.3838E-01
342.83	5.1592E-01
343.20	1.0804E00
343.56	6.6903E-01
343.92	9.6991E-01
344.28	5.7191E-01
344.65	8.8587E-01
345.01	5.3772E-01
345.37	9.0928E-01
345.73	8.5896E-01
346.10	7.3399E-01
346.46	8.8746E-01
346.82	6.8924E-01
347.19	1.5854E00
347.55	6.5056E-01
347.91	6.7302E-01
348.27	7.4666E-01
348.63	6.4747E-01
349.00	6.6795E-01
349.36	1.3297E00
349.72	8.4744E-01
350.08	1.2800E00
350.45	7.8437E-01
350.81	7.4387E-01
351.17	1.0042E00
351.53	1.0730E00
351.89	8.5907E-01
352.26	1.0118E00
352.62	8.1888E-01
352.98	9.3005E-01
353.34	8.5205E-01
353.70	1.1927E00
354.07	9.4159E-01
354.43	9.3756E-01
354.79	1.0814E00
355.15	8.6649E-01
355.51	8.2290E-01
355.87	9.2020E-01
356.24	9.2498E-01
356.60	8.7716E-01
356.96	9.2302E-01
357.32	7.6782E-01
357.68	7.3296E-01
358.04	6.3442E-01
358.40	6.8752E-01
358.77	6.3487E-01
359.13	7.8353E-01
359.49	9.2184E-01
359.85	9.8494E-01
360.21	7.6105E-01
360.57	9.3275E-01
360.93	9.2480E-01
361.29	9.7778E-01
361.66	8.0172E-01
362.02	7.4480E-01
362.38	9.7690E-01
362.74	8.5530E-01
363.10	8.9945E-01
363.46	1.0442E00
363.82	8.9105E-01
364.18	1.0643E00
364.54	1.0081E00
364.90	9.5980E-01
365.26	9.4410E-01
365.62	1.0793E00
365.98	9.3873E-01
366.35	7.5280E-01
366.71	9.1153E-01
367.07	1.1680E00
367.43	7.3935E-01
367.79	1.0549E00
368.15	9.6857E-01
368.51	1.1476E00
368.87	1.0034E00
369.23	1.0729E00
369.59	8.4322E-01
369.95	9.1383E-01
370.31	8.7146E-01
370.67	1.0311E00
371.03	8.6964E-01
371.39	8.5004E-01
371.75	8.5895E-01
372.11	8.8618E-01
372.47	8.1441E-01
372.83	8.2236E-01
373.19	6.8768E-01
373.55	9.0076E-01
373.91	9.1805E-01
374.27	9.8994E-01
374.63	9.6616E-01
374.99	8.7795E-01
375.35	8.4289E-01
375.71	8.5932E-01
376.07	8.6718E-01
376.42	8.5734E-01
376.78	7.7813E-01
377.14	8.8217E-01
377.50	9.6310E-01
377.86	8.2045E-01
378.22	7.7309E-01
378.58	7.7422E-01
378.94	7.5080E-01
379.30	7.8878E-01
379.66	7.7719E-01
380.02	7.6026E-01
380.38	7.3916E-01
380.74	7.7419E-01
381.09	8.1309E-01
381.45	7.4932E-01
381.81	7.2495E-01
382.17	7.6412E-01
382.53	7.9387E-01
382.89	7.1146E-01
383.25	7.4805E-01
383.61	7.3939E-01
383.97	7.1807E-01
384.32	7.1535E-01
384.68	6.8268E-01
385.04	7.5852E-01
385.40	7.8173E-01
385.76	7.7859E-01
386.12	7.3164E-01
386.48	7.4393E-01
386.83	6.9444E-01
387.19	6.9251E-01
387.55	7.7523E-01
387.91	7.4888E-01
388.27	6.9990E-01
388.62	7.8709E-01
388.98	7.1392E-01
389.34	7.9246E-01
389.70	7.1869E-01
390.06	7.4195E-01
390.42	7.4880E-01
390.77	7.3006E-01
391.13	7.4489E-01
391.49	7.3072E-01
391.85	7.7104E-01
392.20	6.8057E-01
392.56	6.9009E-01
392.92	6.9993E-01
393.28	7.0269E-01
393.64	7.3444E-01
393.99	7.4837E-01
394.35	7.3539E-01
394.71	7.2728E-01
395.07	7.1249E-01
395.42	7.1533E-01
395.78	7.2801E-01
396.14	6.5707E-01
396.50	6.6011E-01
396.85	7.2503E-01
397.21	6.9864E-01
397.57	7.1762E-01
397.92	6.7125E-01
398.28	6.4932E-01
398.64	7.7202E-01
399.00	6.2259E-01
399.35	6.4819E-01
399.71	6.9503E-01
400.07	6.7758E-01
400.42	6.6254E-01
400.78	6.7935E-01
401.14	6.8178E-01
401.49	6.3193E-01
401.85	6.2832E-01
402.21	6.3816E-01
402.57	6.3464E-01
402.92	6.6951E-01
403.28	6.3613E-01
403.63	6.3322E-01
403.99	6.4773E-01
404.35	6.2835E-01
404.70	6.1715E-01
405.06	6.2662E-01
405.42	6.4092E-01
405.77	5.9559E-01
406.13	5.9572E-01
406.49	5.9128E-01
406.84	5.9853E-01
407.20	5.8385E-01
407.55	6.2943E-01
407.91	6.4163E-01
408.27	6.0105E-01
408.62	6.0428E-01
408.98	6.1199E-01
409.34	6.2260E-01
409.69	5.9524E-01
410.05	6.2721E-01
410.40	5.9957E-01
410.76	5.5471E-01
411.11	5.5922E-01
411.47	6.0651E-01
411.83	5.7496E-01
412.18	5.8599E-01
412.54	5.7426E-01
412.89	5.7086E-01
413.25	5.9211E-01
413.60	6.1752E-01
413.96	5.7980E-01
414.31	5.8360E-01
414.67	6.1528E-01
415.03	6.0350E-01
415.38	6.1809E-01
415.74	6.1079E-01
416.09	6.0672E-01
416.45	6.1543E-01
416.80	6.0364E-01
417.16	5.9852E-01
417.51	5.9485E-01
417.87	5.7257E-01
418.22	5.6603E-01
418.58	5.7836E-01
418.93	5.5346E-01
419.29	5.9317E-01
419.64	5.7628E-01
420.00	5.4487E-01
420.35	5.3515E-01
420.71	5.6107E-01
421.06	5.6369E-01
421.42	5.7792E-01
421.77	5.6943E-01
422.12	5.6841E-01
422.48	5.3826E-01
422.83	5.7535E-01
423.19	5.4344E-01
423.54	5.4330E-01
423.90	5.5059E-01
424.25	5.1968E-01
424.61	5.7320E-01
424.96	5.3664E-01
425.31	5.3308E-01
425.67	5.1104E-01
426.02	5.3426E-01
426.38	5.3366E-01
426.73	5.0595E-01
427.09	5.2898E-01
427.44	5.0713E-01
427.79	5.1288E-01
428.15	5.2810E-01
428.50	5.2490E-01
428.85	5.3760E-01
429.21	4.9601E-01
429.56	4.8504E-01
429.92	4.9461E-01
430.27	5.1112E-01
430.62	5.1065E-01
430.98	5.1729E-01
431.33	5.0537E-01
431.68	4.8867E-01
432.04	4.8490E-01
432.39	4.9182E-01
432.74	5.0999E-01
433.10	4.7803E-01
433.45	5.0606E-01
433.80	5.0392E-01
434.16	5.1478E-01
434.51	4.8967E-01
434.86	5.1001E-01
435.22	4.9130E-01
435.57	5.2562E-01
435.92	5.1504E-01
436.28	5.1287E-01
436.63	4.7541E-01
436.98	5.0821E-01
437.34	5.0486E-01
437.69	4.8034E-01
438.04	4.6657E-01
438.39	4.9966E-01
438.75	5.1137E-01
439.10	4.6185E-01
439.45	5.0165E-01
439.81	4.9601E-01
440.16	4.6648E-01
440.51	4.8751E-01
440.86	4.8565E-01
441.22	4.7473E-01
441.57	4.7932E-01
441.92	4.6545E-01
442.27	4.8817E-01
442.63	4.7819E-01
442.98	5.1066E-01
443.33	4.9969E-01
443.68	4.6502E-01
444.03	4.3872E-01
444.39	4.4066E-01
444.74	4.7841E-01
445.09	4.8541E-01
445.44	4.8666E-01
445.79	4.2940E-01
446.15	4.6182E-01
446.50	4.7680E-01
446.85	4.4870E-01
447.20	4.3680E-01
447.55	4.7230E-01
447.91	4.5429E-01
448.26	4.6600E-01
448.61	4.6137E-01
448.96	4.5170E-01
449.31	4.5837E-01
449.66	4.6269E-01
450.02	4.5643E-01
450.37	4.5693E-01
450.72	4.5035E-01
451.07	4.8571E-01
451.42	4.8270E-01
451.77	4.5597E-01
452.12	4.5520E-01
452.47	4.7648E-01
452.83	4.3782E-01
453.18	4.6347E-01
453.53	4.5827E-01
453.88	4.3172E-01
454.23	4.2596E-01
454.58	4.2631E-01
454.93	4.5734E-01
455.28	4.5473E-01
455.63	4.4161E-01
455.98	4.3134E-01
456.34	4.5454E-01
456.69	4.4069E-01
457.04	4.4427E-01
457.39	4.1649E-01
457.74	4.2538E-01
458.09	4.1416E-01
458.44	4.1341E-01
458.79	4.0442E-01
459.14	4.1790E-01
459.49	4.3566E-01
459.84	4.1125E-01
460.19	4.3745E-01
460.54	4.3432E-01
460.89	4.0060E-01
461.24	4.3856E-01
461.59	4.1942E-01
461.94	4.2520E-01
462.29	3.9719E-01
462.64	4.2009E-01
462.99	4.2444E-01
463.34	4.4864E-01
463.69	4.2051E-01
464.04	3.9248E-01
464.39	4.0794E-01
464.74	4.1326E-01
465.09	4.2473E-01
465.44	3.9971E-01
465.79	4.1269E-01
466.14	4.1456E-01
466.49	4.0775E-01
466.84	4.0386E-01
467.19	4.1762E-01
467.54	4.1904E-01
467.89	3.9896E-01
468.24	3.7779E-01
468.59	3.9037E-01
468.94	3.8265E-01
469.29	3.8426E-01
469.64	3.9724E-01
469.99	3.8264E-01
470.34	3.7050E-01
470.68	3.9443E-01
471.03	3.8059E-01
471.38	3.8168E-01
471.73	3.6362E-01
472.08	3.5907E-01
472.43	3.4686E-01
472.78	3.6576E-01
473.13	3.6204E-01
473.48	3.5596E-01
473.83	3.4950E-01
474.17	3.5442E-01
474.52	3.5049E-01
474.87	3.3622E-01
475.22	3.4315E-01
475.57	3.2653E-01
475.92	3.1808E-01
476.27	3.2763E-01
476.61	3.1893E-01
476.96	3.1081E-01
477.31	3.0132E-01
477.66	3.0726E-01
478.01	3.0535E-01
478.36	3.0368E-01
478.70	2.9939E-01
479.05	3.0396E-01
479.40	2.9008E-01
479.75	2.8684E-01
480.10	2.8866E-01
480.45	2.8172E-01
480.79	2.8052E-01
481.14	2.8447E-01
481.49	2.7757E-01
481.84	2.7300E-01
482.19	2.7103E-01
482.53	2.7040E-01
482.88	2.6809E-01
483.23	2.6344E-01
483.58	2.5800E-01
483.92	2.6460E-01
484.27	2.5610E-01
484.62	2.5469E-01
484.97	2.4906E-01
485.31	2.4764E-01
485.66	2.5315E-01
486.01	2.5313E-01
486.36	2.4114E-01
486.70	2.4757E-01
487.05	2.4617E-01
487.40	2.4643E-01
487.75	2.3908E-01
488.09	2.3936E-01
488.44	2.4144E-01
488.79	2.3804E-01
489.13	2.3508E-01
489.48	2.3801E-01
489.83	2.3861E-01
490.17	2.3189E-01
490.52	2.3195E-01
490.87	2.3306E-01
491.22	2.3654E-01
491.56	2.3307E-01
491.91	2.3602E-01
492.26	2.3320E-01
492.60	2.3350E-01
492.95	2.3554E-01
493.30	2.3494E-01
493.64	2.3221E-01
493.99	2.3347E-01
494.34	2.3063E-01
494.68	2.2805E-01
495.03	2.3371E-01
495.37	2.3156E-01
495.72	2.3396E-01
496.07	2.2899E-01
496.41	2.3048E-01
496.76	2.2893E-01
497.11	2.3116E-01
497.45	2.2996E-01
497.80	2.3066E-01
498.14	2.3063E-01
498.49	2.3055E-01
498.84	2.3146E-01
499.18	2.3094E-01
499.53	2.3093E-01
499.87	2.2875E-01
500.22	2.3148E-01
500.56	2.3095E-01
500.91	2.3052E-01
501.26	2.3039E-01
501.60	2.2984E-01
501.95	2.2814E-01
502.29	2.3095E-01
502.64	2.2686E-01
502.98	2.3039E-01
503.33	2.2846E-01
503.67	2.2898E-01
504.02	2.2851E-01
504.36	2.2820E-01
504.71	2.2881E-01
505.06	2.2656E-01
505.40	2.2671E-01
505.75	2.2820E-01
506.09	2.2837E-01
506.44	2.2816E-01
506.78	2.2591E-01
507.13	2.2701E-01
507.47	2.2540E-01
507.82	2.2516E-01
508.16	2.2746E-01
508.51	2.2520E-01
508.85	2.2261E-01
509.19	2.2530E-01
509.54	2.2504E-01
509.88	2.2534E-01
510.23	2.2197E-01
510.57	2.2298E-01
510.92	2.2230E-01
511.26	2.2264E-01
511.61	2.2241E-01
511.95	2.2256E-01
512.30	2.2132E-01
512.64	2.2300E-01
512.98	2.1906E-01
513.33	2.2055E-01
513.67	2.2115E-01
514.02	2.2032E-01
514.36	2.1846E-01
514.70	2.1972E-01
515.05	2.1735E-01
515.39	2.1918E-01
515.74	2.1697E-01
516.08	2.1580E-01
516.42	2.1767E-01
516.77	2.1822E-01
517.11	2.1820E-01
517.46	2.1936E-01
517.80	2.1624E-01
518.14	2.1784E-01
518.49	2.1569E-01
518.83	2.1658E-01
519.17	2.1658E-01
519.52	2.1693E-01
519.86	2.1582E-01
520.20	2.1489E-01
520.55	2.1570E-01
520.89	2.1425E-01
521.23	2.1652E-01
521.58	2.1598E-01
521.92	2.1768E-01
522.26	2.1896E-01
522.61	2.1535E-01
522.95	2.1704E-01
523.29	2.1405E-01
523.64	2.1428E-01
523.98	2.1526E-01
524.32	2.1583E-01
524.66	2.1753E-01
525.01	2.1768E-01
525.35	2.1819E-01
525.69	2.1884E-01
526.04	2.1820E-01
526.38	2.1517E-01
526.72	2.1960E-01
527.06	2.1823E-01
527.41	2.1995E-01
527.75	2.2189E-01
528.09	2.1999E-01
528.43	2.2363E-01
528.78	2.2093E-01
529.12	2.2329E-01
529.46	2.2491E-01
529.80	2.2426E-01
530.15	2.2478E-01
530.49	2.2482E-01
530.83	2.2606E-01
531.17	2.2595E-01
531.51	2.2522E-01
531.86	2.2732E-01
532.20	2.2827E-01
532.54	2.2767E-01
532.88	2.2923E-01
533.22	2.3104E-01
533.57	2.3218E-01
533.91	2.3153E-01
534.25	2.3374E-01
534.59	2.3231E-01
534.93	2.3432E-01
535.27	2.3328E-01
535.62	2.3778E-01
535.96	2.3669E-01
536.30	2.3722E-01
536.64	2.3772E-01
536.98	2.3966E-01
537.32	2.3894E-01
537.66	2.3886E-01
538.01	2.4138E-01
538.35	2.4352E-01
538.69	2.4044E-01
539.03	2.4617E-01
539.37	2.4378E-01
539.71	2.4578E-01
540.05	2.4602E-01
540.39	2.4684E-01
540.73	2.4577E-01
541.07	2.4650E-01
541.42	2.4697E-01
541.76	2.4724E-01
542.10	2.4873E-01
542.44	2.4971E-01
542.78	2.4992E-01
543.12	2.4922E-01
543.46	2.5473E-01
543.80	2.5159E-01
544.14	2.5147E-01
544.48	2.5057E-01
544.82	2.5335E-01
545.16	2.5323E-01
545.50	2.5221E-01
545.84	2.5468E-01
546.18	2.5294E-01
546.52	2.5585E-01
546.86	2.5368E-01
547.20	2.5693E-01
547.54	2.6008E-01
547.88	2.5576E-01
548.22	2.5625E-01
548.56	2.5781E-01
548.90	2.5569E-01
549.24	2.5789E-01
549.58	2.5869E-01
549.92	2.5688E-01
550.26	2.6133E-01
550.60	2.5767E-01
550.94	2.5649E-01
551.28	2.5997E-01
551.62	2.5806E-01
551.96	2.6035E-01
552.30	2.6159E-01
552.64	2.6028E-01
552.98	2.6082E-01
553.32	2.6126E-01
553.66	2.5981E-01
554.00	2.6038E-01
554.34	2.6111E-01
554.68	2.6222E-01
555.02	2.6234E-01
555.36	2.6360E-01
555.69	2.6234E-01
556.03	2.6203E-01
556.37	2.6354E-01
556.71	2.6102E-01
557.05	2.6071E-01
557.39	2.6123E-01
557.73	2.6161E-01
558.07	2.6401E-01
558.41	2.6250E-01
558.75	2.6297E-01
559.08	2.6299E-01
559.42	2.6059E-01
559.76	2.6475E-01
560.10	2.6440E-01
560.44	2.6442E-01
560.78	2.6152E-01
561.12	2.6347E-01
561.45	2.6294E-01
561.79	2.6415E-01
562.13	2.6421E-01
562.47	2.6429E-01
562.81	2.6465E-01
563.15	2.6471E-01
563.48	2.6510E-01
563.82	2.6192E-01
564.16	2.6410E-01
564.50	2.6408E-01
564.84	2.6484E-01
565.17	2.6493E-01
565.51	2.6446E-01
565.85	2.6643E-01
566.19	2.6295E-01
566.52	2.6695E-01
566.86	2.6395E-01
567.20	2.6669E-01
567.54	2.6561E-01
567.88	2.6610E-01
568.21	2.6563E-01
568.55	2.6710E-01
568.89	2.6720E-01
569.23	2.6705E-01
569.56	2.6649E-01
569.90	2.6784E-01
570.24	2.6939E-01
570.57	2.6946E-01
570.91	2.6994E-01
571.25	2.6608E-01
571.59	2.6920E-01
571.92	2.6918E-01
572.26	2.7037E-01
572.60	2.7279E-01
572.93	2.7129E-01
573.27	2.7352E-01
573.61	2.7401E-01
573.95	2.6957E-01
574.28	2.7427E-01
574.62	2.7447E-01
574.96	2.7473E-01
575.29	2.7409E-01
575.63	2.7843E-01
575.97	2.7766E-01
576.30	2.8422E-01
576.64	2.8069E-01
576.98	2.8008E-01
577.31	2.8151E-01
577.65	2.8416E-01
577.98	2.8224E-01
578.32	2.8464E-01
578.66	2.8611E-01
578.99	2.8647E-01
579.33	2.8781E-01
579.67	2.8590E-01
580.00	2.8959E-01
580.34	2.8932E-01
580.67	2.9067E-01
581.01	2.9283E-01
581.35	2.9407E-01
581.68	2.9511E-01
582.02	2.9403E-01
582.35	2.9626E-01
582.69	2.9653E-01
583.02	3.0091E-01
583.36	2.9783E-01
583.70	2.9742E-01
584.03	2.9944E-01
584.37	2.9786E-01
584.70	3.0411E-01
585.04	3.0390E-01
585.37	3.0203E-01
585.71	3.0724E-01
586.04	3.0622E-01
586.38	3.0396E-01
586.72	3.0818E-01
587.05	3.0945E-01
587.39	3.1100E-01
587.72	3.0890E-01
588.06	3.1134E-01
588.39	3.1088E-01
588.73	3.1401E-01
589.06	3.1184E-01
589.40	3.1676E-01
589.73	3.1826E-01
590.07	3.1896E-01
590.40	3.1935E-01
590.73	3.2311E-01
591.07	3.1974E-01
591.40	3.2665E-01
591.74	3.1942E-01
592.07	3.2365E-01
592.41	3.2530E-01
592.74	3.2632E-01
593.08	3.2397E-01
593.41	3.2625E-01
593.75	3.2390E-01
594.08	3.2897E-01
594.41	3.2757E-01
594.75	3.2864E-01
595.08	3.2854E-01
595.42	3.2479E-01
595.75	3.2986E-01
596.09	3.2997E-01
596.42	3.2864E-01
596.75	3.3249E-01
597.09	3.3413E-01
597.42	3.3065E-01
597.75	3.3454E-01
598.09	3.3530E-01
598.42	3.3306E-01
598.76	3.3490E-01
599.09	3.3945E-01
599.42	3.3897E-01
599.76	3.3719E-01
600.09	3.3638E-01
600.42	3.4180E-01
600.76	3.3510E-01
601.09	3.3911E-01
601.42	3.4259E-01
601.76	3.3842E-01
602.09	3.3765E-01
602.42	3.3985E-01
602.76	3.3869E-01
603.09	3.3792E-01
603.42	3.4431E-01
603.76	3.4009E-01
604.09	3.4008E-01
604.42	3.4297E-01
604.76	3.4021E-01
605.09	3.4532E-01
605.42	3.4237E-01
605.75	3.4359E-01
606.09	3.4197E-01
606.42	3.4319E-01
606.75	3.4473E-01
607.09	3.4539E-01
607.42	3.4581E-01
607.75	3.4604E-01
608.08	3.4528E-01
608.42	3.4798E-01
608.75	3.4422E-01
609.08	3.4840E-01
609.41	3.4769E-01
609.75	3.4602E-01
610.08	3.4776E-01
610.41	3.5013E-01
610.74	3.4893E-01
611.07	3.4903E-01
611.41	3.4857E-01
611.74	3.4969E-01
612.07	3.5172E-01
612.40	3.4656E-01
612.73	3.5017E-01
613.07	3.5208E-01
613.40	3.4828E-01
613.73	3.4740E-01
614.06	3.5018E-01
614.39	3.5163E-01
614.72	3.5279E-01
615.06	3.5247E-01
615.39	3.5660E-01
615.72	3.5050E-01
616.05	3.5422E-01
616.38	3.5498E-01
616.71	3.5586E-01
617.05	3.5357E-01
617.38	3.5597E-01
617.71	3.5355E-01
618.04	3.5544E-01
618.37	3.5356E-01
618.70	3.5463E-01
619.03	3.5591E-01
619.36	3.5020E-01
619.69	3.5761E-01
620.03	3.5369E-01
620.36	3.5441E-01
620.69	3.5293E-01
621.02	3.5605E-01
621.35	3.5504E-01
621.68	3.5161E-01
622.01	3.5082E-01
622.34	3.5246E-01
622.67	3.5151E-01
623.00	3.5322E-01
623.33	3.5397E-01
623.66	3.5140E-01
623.99	3.5247E-01
624.32	3.5123E-01
624.65	3.5213E-01
624.99	3.5182E-01
625.32	3.5311E-01
625.65	3.5259E-01
625.98	3.4738E-01
626.31	3.5230E-01
626.64	3.5317E-01
626.97	3.5340E-01
627.30	3.5061E-01
627.63	3.5219E-01
627.96	3.4920E-01
628.29	3.4923E-01
628.62	3.5296E-01
628.95	3.5261E-01
629.28	3.4706E-01
629.61	3.5807E-01
629.94	3.5312E-01
630.26	3.5336E-01
630.59	3.5559E-01
630.92	3.5363E-01
631.25	3.5499E-01
631.58	3.5912E-01
631.91	3.5400E-01
632.24	3.6150E-01
632.57	3.5794E-01
632.90	3.5838E-01
633.23	3.5880E-01
633.56	3.6075E-01
633.89	3.6168E-01
634.22	3.6258E-01
634.55	3.6375E-01
634.88	3.6767E-01
635.20	3.6676E-01
635.53	3.6964E-01
635.86	3.6994E-01
636.19	3.7381E-01
636.52	3.7484E-01
636.85	3.7191E-01
637.18	3.7630E-01
637.51	3.7347E-01
637.83	3.7763E-01
638.16	3.7395E-01
638.49	3.8487E-01
638.82	3.8345E-01
639.15	3.8616E-01
639.48	3.8926E-01
639.81	3.9113E-01
640.13	3.8786E-01
640.46	3.9335E-01
640.79	3.9325E-01
641.12	3.9718E-01
641.45	3.9612E-01
641.77	3.9384E-01
642.10	4.0295E-01
642.43	4.0368E-01
642.76	4.0632E-01
643.09	4.0335E-01
643.41	4.0655E-01
643.74	4.0697E-01
644.07	4.0674E-01
644.40	4.1047E-01
644.73	4.1448E-01
645.05	4.1646E-01
645.38	4.1895E-01
645.71	4.2021E-01
646.04	4.2008E-01
646.36	4.1954E-01
646.69	4.2569E-01
647.02	4.2615E-01
647.35	4.2376E-01
647.67	4.2939E-01
648.00	4.2806E-01
648.33	4.3317E-01
648.66	4.3029E-01
648.98	4.3628E-01
649.31	4.3536E-01
649.64	4.3727E-01
649.96	4.4143E-01
650.29	4.4372E-01
650.62	4.4431E-01
650.94	4.4397E-01
651.27	4.4334E-01
651.60	4.4413E-01
651.92	4.5189E-01
652.25	4.5288E-01
652.58	4.5216E-01
652.90	4.5422E-01
653.23	4.5423E-01
653.56	4.5580E-01
653.88	4.5783E-01
654.21	4.5802E-01
654.54	4.5994E-01
654.86	4.6557E-01
655.19	4.6046E-01
655.52	4.6773E-01
655.84	4.6630E-01
656.17	4.6891E-01
656.49	4.7385E-01
656.82	4.6894E-01
657.15	4.7394E-01
657.47	4.7386E-01
657.80	4.7386E-01
658.13	4.7595E-01
658.45	4.7894E-01
658.78	4.7765E-01
659.10	4.8361E-01
659.43	4.8330E-01
659.75	4.8199E-01
660.08	4.7991E-01
660.41	4.8617E-01
660.73	4.8667E-01
661.06	4.9007E-01
661.38	4.8864E-01
661.71	4.9073E-01
662.03	4.9064E-01
662.36	4.9705E-01
662.68	4.9527E-01
663.01	4.8963E-01
663.33	4.9427E-01
663.66	4.9792E-01
663.98	4.9500E-01
664.31	4.9568E-01
664.63	5.0512E-01
664.96	5.0222E-01
665.28	5.0559E-01
665.61	5.0460E-01
665.93	5.0530E-01
666.26	5.0814E-01
666.58	5.0943E-01
666.91	5.0532E-01
667.23	5.1094E-01
667.56	5.0494E-01
667.88	5.1289E-01
668.21	5.1246E-01
668.53	5.1040E-01
668.86	5.2059E-01
669.18	5.1270E-01
669.50	5.2435E-01
669.83	5.2248E-01
670.15	5.2408E-01
670.48	5.2309E-01
670.80	5.2112E-01
671.13	5.1870E-01
671.45	5.2495E-01
671.77	5.2761E-01
672.10	5.2403E-01
672.42	5.3159E-01
672.75	5.2851E-01
673.07	5.3311E-01
673.39	5.2785E-01
673.72	5.3163E-01
674.04	5.3545E-01
674.37	5.3884E-01
674.69	5.3555E-01
675.01	5.4014E-01
675.34	5.4158E-01
675.66	5.4262E-01
675.98	5.3741E-01
676.31	5.4608E-01
676.63	5.4804E-01
676.95	5.4472E-01
677.28	5.4865E-01
677.60	5.4926E-01
677.92	5.4724E-01
678.25	5.5309E-01
678.57	5.5408E-01
678.89	5.5230E-01
679.22	5.6058E-01
679.54	5.5836E-01
679.86	5.5850E-01
680.18	5.6000E-01
680.51	5.6160E-01
680.83	5.6714E-01
681.15	5.6139E-01
681.48	5.6514E-01
681.80	5.6951E-01
682.12	5.6595E-01
682.44	5.7508E-01
682.77	5.7574E-01
683.09	5.7900E-01
683.41	5.7605E-01
683.73	5.8171E-01
684.06	5.8107E-01
684.38	5.8258E-01
684.70	5.8110E-01
685.02	5.8706E-01
685.34	5.9312E-01
685.67	5.8771E-01
685.99	5.9623E-01
686.31	5.9084E-01
686.63	6.0103E-01
686.96	5.9744E-01
687.28	6.0423E-01
687.60	5.9590E-01
687.92	6.0258E-01
688.24	6.0911E-01
688.56	6.1091E-01
688.89	6.1222E-01
689.21	6.0935E-01
689.53	6.1201E-01
689.85	6.2174E-01
690.17	6.1696E-01
690.49	6.2656E-01
690.82	6.2666E-01
691.14	6.2646E-01
691.46	6.3057E-01
691.78	6.3443E-01
692.10	6.2737E-01
692.42	6.3431E-01
692.74	6.3961E-01
693.06	6.4022E-01
693.39	6.5137E-01
693.71	6.5146E-01
694.03	6.5189E-01
694.35	6.5492E-01
694.67	6.5573E-01
694.99	6.6233E-01
695.31	6.6479E-01
695.63	6.6373E-01
695.95	6.7013E-01
696.27	6.6796E-01
696.59	6.7381E-01
696.91	6.8319E-01
697.23	6.8231E-01
697.56	6.8059E-01
697.88	6.8785E-01
698.20	6.8687E-01
698.52	6.9344E-01
698.84	6.9863E-01
699.16	7.0363E-01
699.48	6.9723E-01
699.80	7.0647E-01
700.12	7.1290E-01
700.44	7.1418E-01
700.76	7.1517E-01
701.08	7.1965E-01
701.40	7.2290E-01
701.72	7.3083E-01
702.04	7.2988E-01
702.36	7.3620E-01
702.68	7.3911E-01
703.00	7.4426E-01
703.32	7.4872E-01
703.64	7.4943E-01
703.96	7.4218E-01
704.28	7.5345E-01
704.60	7.6247E-01
704.91	7.6426E-01
705.23	7.6583E-01
705.55	7.7456E-01
705.87	7.6878E-01
706.19	7.7157E-01
706.51	7.7726E-01
706.83	7.8041E-01
707.15	8.0081E-01
707.47	7.8383E-01
707.79	7.9862E-01
708.11	8.0063E-01
708.43	8.0476E-01
708.74	8.1148E-01
709.06	8.2326E-01
709.38	8.1713E-01
709.70	8.1243E-01
710.02	8.2374E-01
710.34	8.2080E-01
710.66	8.4142E-01
710.98	8.3780E-01
711.29	8.3588E-01
711.61	8.5090E-01
711.93	8.5627E-01
712.25	8.4882E-01
712.57	8.6071E-01
712.89	8.6336E-01
713.20	8.6428E-01
713.52	8.7370E-01
713.84	8.8089E-01
714.16	8.7471E-01
714.48	8.7706E-01
714.80	8.9137E-01
715.11	8.8898E-01
715.43	9.0107E-01
715.75	9.0625E-01
716.07	9.1573E-01
716.39	8.9876E-01
716.70	9.1012E-01
717.02	9.0545E-01
717.34	9.3301E-01
717.66	9.2306E-01
717.97	9.3426E-01
718.29	9.3942E-01
718.61	9.5237E-01
718.93	9.5137E-01
719.24	9.5425E-01
719.56	9.7563E-01
719.88	9.6593E-01
720.20	9.7852E-01
720.51	9.9130E-01
720.83	9.8676E-01
721.15	1.0071E00
721.46	1.0033E00
721.78	1.0095E00
722.10	1.0241E00
722.42	1.0337E00
722.73	1.0403E00
723.05	1.0284E00
723.37	1.0416E00
723.68	1.0526E00
724.00	1.0524E00
724.32	1.0709E00
724.63	1.0671E00
724.95	1.0637E00
725.27	1.0738E00
725.58	1.0797E00
725.90	1.0811E00
726.22	1.0984E00
726.53	1.0753E00
726.85	1.0906E00
727.16	1.1126E00
727.48	1.0948E00
727.80	1.1063E00
728.11	1.1117E00
728.43	1.1079E00
728.74	1.1023E00
729.06	1.1243E00
729.38	1.1192E00
729.69	1.1240E00
730.01	1.1328E00
730.32	1.1406E00
730.64	1.1393E00
730.96	1.1282E00
731.27	1.1600E00
731.59	1.1327E00
731.90	1.1463E00
732.22	1.1551E00
732.53	1.1531E00
732.85	1.1665E00
733.16	1.1622E00
733.48	1.1705E00
733.80	1.1642E00
734.11	1.1867E00
734.43	1.1844E00
734.74	1.1830E00
735.06	1.1977E00
735.37	1.2078E00
735.69	1.1923E00
736.00	1.2065E00
736.32	1.2087E00
736.63	1.2158E00
736.95	1.2145E00
737.26	1.2364E00
737.58	1.2355E00
737.89	1.2448E00
738.21	1.2322E00
738.52	1.2394E00
738.83	1.2440E00
739.15	1.2428E00
739.46	1.2593E00
739.78	1.2566E00
740.09	1.2734E00
740.41	1.2643E00
740.72	1.2594E00
741.04	1.2611E00
741.35	1.2636E00
741.66	1.2852E00
741.98	1.2776E00
742.29	1.2858E00
742.61	1.2778E00
742.92	1.2833E00
743.23	1.2831E00
743.55	1.2915E00
743.86	1.2805E00
744.18	1.2893E00
744.49	1.2897E00
744.80	1.2886E00
745.12	1.2904E00
745.43	1.2940E00
745.74	1.2936E00
746.06	1.2846E00
746.37	1.2836E00
746.68	1.2936E00
747.00	1.2909E00
747.31	1.2806E00
747.62	1.2731E00
747.94	1.2937E00
748.25	1.2941E00
748.56	1.2967E00
748.88	1.2777E00
749.19	1.2876E00
749.50	1.2916E00
749.82	1.2819E00
750.13	1.2896E00
750.44	1.2918E00
750.75	1.2768E00
751.07	1.2947E00
751.38	1.3008E00
751.69	1.2757E00
752.01	1.2955E00
752.32	1.2931E00
752.63	1.2953E00
752.94	1.3023E00
753.26	1.3076E00
753.57	1.2955E00
753.88	1.3027E00
754.19	1.3036E00
754.51	1.3071E00
754.82	1.3042E00
755.13	1.3185E00
755.44	1.3179E00
755.75	1.3210E00
756.07	1.3207E00
756.38	1.3349E00
756.69	1.3315E00
757.00	1.3408E00
757.31	1.3567E00
757.63	1.3640E00
757.94	1.3672E00
758.25	1.3814E00
758.56	1.3473E00
758.87	1.3946E00
759.18	1.3968E00
759.50	1.3946E00
759.81	1.3890E00
760.12	1.3982E00
760.43	1.4093E00
760.74	1.4058E00
761.05	1.4364E00
761.36	1.4413E00
761.67	1.4467E00
761.99	1.4570E00
762.30	1.4360E00
762.61	1.4709E00
762.92	1.4676E00
763.23	1.4689E00
763.54	1.4821E00
763.85	1.5085E00
764.16	1.5104E00
764.47	1.5298E00
764.78	1.5402E00
765.10	1.5423E00
765.41	1.5439E00
765.72	1.5529E00
766.03	1.5884E00
766.34	1.6003E00
766.65	1.6108E00
766.96	1.6423E00
767.27	1.6311E00
767.58	1.6318E00
767.89	1.6504E00
768.20	1.6758E00
768.51	1.6759E00
768.82	1.6791E00
769.13	1.7130E00
769.44	1.7345E00
769.75	1.7327E00
770.06	1.7364E00
770.37	1.7348E00
770.68	1.7786E00
770.99	1.7907E00
771.30	1.7990E00
771.61	1.8532E00
771.92	1.8132E00
772.23	1.8380E00
772.54	1.8786E00
772.85	1.8584E00
773.16	1.8752E00
773.47	1.9337E00
773.78	1.9186E00
774.09	1.9508E00
774.39	1.9546E00
774.70	1.9604E00
775.01	1.9978E00
775.32	2.0084E00
775.63	2.0310E00
775.94	2.0516E00
776.25	2.0394E00
776.56	2.0599E00
776.87	2.1152E00
777.18	2.1072E00
777.48	2.1285E00
777.79	2.1472E00
778.10	2.1672E00
778.41	2.1840E00
778.72	2.2095E00
779.03	2.2183E00
779.34	2.2651E00
779.65	2.2680E00
779.95	2.3086E00
780.26	2.2901E00
780.57	2.3297E00
780.88	2.3251E00
781.19	2.3662E00
781.50	2.3707E00
781.80	2.3912E00
782.11	2.3947E00
782.42	2.4536E00
782.73	2.4061E00
783.04	2.5005E00
783.34	2.4993E00
783.65	2.5208E00
783.96	2.5263E00
784.27	2.5410E00
784.57	2.5648E00
784.88	2.5921E00
785.19	2.6068E00
785.50	2.6348E00
785.81	2.6669E00
786.11	2.6315E00
786.42	2.6651E00
786.73	2.6893E00
787.04	2.7233E00
787.34	2.7721E00
787.65	2.7845E00
787.96	2.8487E00
788.26	2.8250E00
788.57	2.8839E00
788.88	2.8518E00
789.19	2.9419E00
789.49	2.9123E00
789.80	2.9630E00
790.11	2.9698E00
790.41	3.0026E00
790.72	3.0337E00
791.03	3.0490E00
791.33	3.0773E00
791.64	3.1469E00
791.95	3.0883E00
792.25	3.1891E00
792.56	3.1592E00
792.87	3.2060E00
793.17	3.2264E00
793.48	3.2442E00
793.79	3.2716E00
794.09	3.3350E00
794.40	3.2906E00
794.70	3.2996E00
795.01	3.3127E00
795.32	3.3589E00
795.62	3.4250E00
795.93	3.4307E00
796.23	3.4422E00
796.54	3.4886E00
796.85	3.4743E00
797.15	3.5161E00
797.46	3.5450E00
797.76	3.6343E00
798.07	3.6225E00
798.37	3.6313E00
798.68	3.6842E00
798.99	3.6797E00
799.29	3.7246E00
799.60	3.7877E00
799.90	3.7853E00
800.21	3.8379E00
800.51	3.8711E00
800.82	3.8641E00
801.12	3.9318E00
801.43	3.9242E00
801.73	4.0067E00
802.04	3.9991E00
802.34	3.9898E00
802.65	4.0386E00
802.95	4.1763E00
803.26	4.1462E00
803.56	4.0708E00
803.87	4.1383E00
804.17	4.1667E00
804.48	4.1674E00
804.78	4.2385E00
805.09	4.3186E00
805.39	4.2873E00
805.70	4.3096E00
806.00	4.3778E00
806.30	4.3731E00
806.61	4.4363E00
806.91	4.4613E00
807.22	4.5075E00
807.52	4.5335E00
807.83	4.5504E00
808.13	4.6039E00
808.43	4.5134E00
808.74	4.6400E00
809.04	4.6806E00
809.35	4.6538E00
809.65	4.7688E00
809.95	4.7909E00
810.26	4.8475E00
810.56	4.8681E00
810.86	4.9326E00
811.17	4.9673E00
811.47	4.9658E00
811.77	4.9676E00
812.08	4.9668E00
812.38	5.1180E00
812.69	5.0192E00
812.99	5.1967E00
813.29	5.2349E00
813.59	5.2962E00
813.90	5.2592E00
814.20	4.7232E00
814.50	4.2463E00
814.81	3.9456E00
815.11	3.8420E00
815.41	3.7402E00
815.72	3.6591E00
816.02	3.5582E00
816.32	3.4359E00
816.62	3.3879E00
816.93	3.4215E00
817.23	3.4500E00
817.53	3.4195E00
817.84	3.4121E00
818.14	3.3640E00
818.44	3.4135E00
818.74	3.6114E00
819.04	3.5379E00
819.35	3.5401E00
819.65	3.5932E00
819.95	3.6398E00
820.25	3.7961E00
820.56	3.9857E00
820.86	4.1409E00
821.16	4.3327E00
821.46	4.3325E00
821.76	4.3435E00
822.07	4.3129E00
822.37	4.0438E00
822.67	3.9102E00
822.97	3.5553E00
823.27	3.2689E00
823.57	3.2280E00
823.88	3.3369E00
824.18	3.4709E00
824.48	3.6070E00
824.78	3.6695E00
825.08	3.8851E00
825.38	4.0467E00
825.69	3.9408E00
825.99	4.0138E00
826.29	4.0403E00
826.59	3.9905E00
826.89	4.0916E00
827.19	4.1225E00
827.49	3.9972E00
827.79	3.7449E00
828.09	3.5798E00
828.39	3.5365E00
828.70	3.4943E00
829.00	3.4711E00
829.30	3.4058E00
829.60	3.3813E00
829.90	3.3445E00
830.20	3.2350E00
830.50	3.3078E00
830.80	3.3341E00
831.10	3.2268E00
831.40	3.3507E00
831.70	3.2506E00
832.00	3.2286E00
832.30	3.1866E00
832.60	3.1708E00
832.90	3.1255E00
833.20	3.1911E00
833.50	3.0766E00
833.80	3.0505E00
834.10	3.0526E00
834.40	3.1150E00
834.70	3.1849E00
835.00	3.0747E00
835.30	3.1567E00
835.60	3.1393E00
835.90	3.1774E00
836.20	3.2378E00
836.50	3.2522E00
836.80	3.3812E00
837.10	3.6438E00
837.40	3.3552E00
837.70	3.3772E00
838.00	3.2250E00
838.30	3.2748E00
838.60	3.3717E00
838.90	3.3553E00
839.19	3.5553E00
839.49	3.3769E00
839.79	3.4391E00
840.09	3.3209E00
840.39	3.4478E00
840.69	3.4522E00
840.99	3.6054E00
841.29	3.5427E00
841.59	3.4135E00
841.88	3.3409E00
842.18	3.4753E00
842.48	3.4644E00
842.78	3.4113E00
843.08	3.4678E00
843.38	3.3910E00
843.68	3.5133E00
843.97	3.5852E00
844.27	3.4613E00
844.57	3.4441E00
844.87	3.4645E00
845.17	3.4692E00
845.47	3.3463E00
845.76	3.4681E00
846.06	3.5589E00
846.36	3.9529E00
846.66	3.4829E00
846.96	3.5424E00
847.25	3.4135E00
847.55	3.4187E00
847.85	3.5172E00
848.15	3.4483E00
848.44	3.4479E00
848.74	3.3584E00
849.04	3.3995E00
849.34	3.4493E00
849.63	3.4097E00
849.93	3.3103E00
850.23	3.3217E00
850.53	3.1664E00
850.82	3.1811E00
851.12	3.1551E00
851.42	3.2256E00
851.71	3.2405E00
852.01	3.2247E00
852.31	3.2695E00
852.61	3.2395E00
852.90	3.2654E00
853.20	3.3355E00
853.50	3.5603E00
853.79	3.4906E00
854.09	3.1569E00
854.39	3.0580E00
854.68	3.0585E00
854.98	2.9807E00
855.28	3.0336E00
855.57	3.1512E00
855.87	3.0739E00
856.17	3.0949E00
856.46	2.9456E00
856.76	3.0304E00
857.05	3.2099E00
857.35	3.1400E00
857.65	3.3625E00
857.94	3.2727E00
858.24	3.4050E00
858.53	3.2745E00
858.83	3.6627E00
859.13	3.2786E00
859.42	3.1913E00
859.72	3.4133E00
860.01	3.3356E00
860.31	3.2470E00
860.60	3.2762E00
860.90	3.4193E00
861.20	3.2684E00
861.49	3.2084E00
861.79	3.3268E00
862.08	4.1962E00
862.38	3.5515E00
862.67	3.2874E00
862.97	3.2832E00
863.26	3.3090E00
863.56	3.4947E00
863.85	3.5846E00
864.15	3.1814E00
864.44	3.3635E00
864.74	3.2545E00
865.03	3.4943E00
865.33	3.3496E00
865.62	3.2340E00
865.92	3.1511E00
866.21	3.3218E00
866.51	3.2090E00
866.80	3.3540E00
867.10	3.4293E00
867.39	3.1409E00
867.69	3.3487E00
867.98	2.9297E00
868.27	2.9753E00
868.57	3.0336E00
868.86	3.3155E00
869.16	3.0888E00
869.45	3.0703E00
869.75	2.9838E00
870.04	3.1212E00
870.33	3.3041E00
870.63	3.0766E00
870.92	3.2861E00
871.22	4.1555E00
871.51	3.1763E00
871.80	3.2986E00
872.10	3.2986E00
>>>>>End Processed Spectral Data<<<<<
