SpectraSuite Data File
++++++++++++++++++++++++++++++++++++
Date: Wed May 13 13:49:40 PDT 2015
User: schluterlab
Dark Spectrum Present: Yes
Reference Spectrum Present: No
Number of Sampled Component Spectra: 1
Spectrometers: USB2E3373
Integration Time (usec): 2200000 (USB2E3373)
Spectra Averaged: 3 (USB2E3373)
Boxcar Smoothing: 0 (USB2E3373)
Correct for Electrical Dark: No (USB2E3373)
Strobe/Lamp Enabled: No (USB2E3373)
Correct for Detector Non-linearity: No (USB2E3373)
Correct for Stray Light: No (USB2E3373)
Number of Pixels in Processed Spectrum: 2048
>>>>>Begin Processed Spectral Data<<<<<
178.53	0.0000E00
178.91	0.0000E00
179.29	0.0000E00
179.67	0.0000E00
180.04	0.0000E00
180.42	0.0000E00
180.80	0.0000E00
181.18	0.0000E00
181.56	0.0000E00
181.94	0.0000E00
182.31	0.0000E00
182.69	0.0000E00
183.07	0.0000E00
183.45	0.0000E00
183.83	0.0000E00
184.20	0.0000E00
184.58	0.0000E00
184.96	0.0000E00
185.34	0.0000E00
185.72	0.0000E00
186.09	0.0000E00
186.47	0.0000E00
186.85	0.0000E00
187.23	0.0000E00
187.61	0.0000E00
187.98	0.0000E00
188.36	0.0000E00
188.74	0.0000E00
189.12	0.0000E00
189.49	0.0000E00
189.87	0.0000E00
190.25	0.0000E00
190.63	0.0000E00
191.00	0.0000E00
191.38	0.0000E00
191.76	0.0000E00
192.14	0.0000E00
192.51	0.0000E00
192.89	0.0000E00
193.27	0.0000E00
193.65	0.0000E00
194.02	0.0000E00
194.40	0.0000E00
194.78	0.0000E00
195.15	0.0000E00
195.53	-0.0000E00
195.91	0.0000E00
196.29	0.0000E00
196.66	0.0000E00
197.04	0.0000E00
197.42	0.0000E00
197.79	0.0000E00
198.17	0.0000E00
198.55	0.0000E00
198.92	0.0000E00
199.30	0.0000E00
199.68	0.0000E00
200.05	0.0000E00
200.43	0.0000E00
200.81	0.0000E00
201.18	0.0000E00
201.56	0.0000E00
201.94	0.0000E00
202.31	-0.0000E00
202.69	0.0000E00
203.07	0.0000E00
203.44	0.0000E00
203.82	0.0000E00
204.19	0.0000E00
204.57	0.0000E00
204.95	0.0000E00
205.32	0.0000E00
205.70	0.0000E00
206.08	0.0000E00
206.45	0.0000E00
206.83	0.0000E00
207.20	0.0000E00
207.58	0.0000E00
207.96	0.0000E00
208.33	0.0000E00
208.71	0.0000E00
209.08	0.0000E00
209.46	0.0000E00
209.84	0.0000E00
210.21	0.0000E00
210.59	0.0000E00
210.96	0.0000E00
211.34	0.0000E00
211.71	0.0000E00
212.09	0.0000E00
212.46	0.0000E00
212.84	0.0000E00
213.22	0.0000E00
213.59	0.0000E00
213.97	0.0000E00
214.34	0.0000E00
214.72	0.0000E00
215.09	0.0000E00
215.47	0.0000E00
215.84	0.0000E00
216.22	0.0000E00
216.59	0.0000E00
216.97	0.0000E00
217.34	0.0000E00
217.72	0.0000E00
218.09	0.0000E00
218.47	0.0000E00
218.84	0.0000E00
219.22	0.0000E00
219.59	0.0000E00
219.97	0.0000E00
220.34	0.0000E00
220.72	0.0000E00
221.09	0.0000E00
221.47	0.0000E00
221.84	0.0000E00
222.22	0.0000E00
222.59	0.0000E00
222.97	0.0000E00
223.34	0.0000E00
223.72	0.0000E00
224.09	0.0000E00
224.46	0.0000E00
224.84	0.0000E00
225.21	0.0000E00
225.59	0.0000E00
225.96	0.0000E00
226.34	0.0000E00
226.71	0.0000E00
227.08	0.0000E00
227.46	0.0000E00
227.83	0.0000E00
228.21	0.0000E00
228.58	0.0000E00
228.95	0.0000E00
229.33	0.0000E00
229.70	0.0000E00
230.08	0.0000E00
230.45	0.0000E00
230.82	0.0000E00
231.20	0.0000E00
231.57	0.0000E00
231.95	0.0000E00
232.32	0.0000E00
232.69	0.0000E00
233.07	0.0000E00
233.44	0.0000E00
233.81	0.0000E00
234.19	0.0000E00
234.56	0.0000E00
234.93	0.0000E00
235.31	0.0000E00
235.68	0.0000E00
236.05	0.0000E00
236.43	0.0000E00
236.80	0.0000E00
237.17	0.0000E00
237.55	0.0000E00
237.92	0.0000E00
238.29	0.0000E00
238.67	0.0000E00
239.04	0.0000E00
239.41	0.0000E00
239.79	0.0000E00
240.16	0.0000E00
240.53	0.0000E00
240.91	0.0000E00
241.28	0.0000E00
241.65	0.0000E00
242.02	0.0000E00
242.40	0.0000E00
242.77	0.0000E00
243.14	0.0000E00
243.51	0.0000E00
243.89	0.0000E00
244.26	0.0000E00
244.63	0.0000E00
245.00	0.0000E00
245.38	0.0000E00
245.75	0.0000E00
246.12	0.0000E00
246.49	0.0000E00
246.87	0.0000E00
247.24	0.0000E00
247.61	0.0000E00
247.98	0.0000E00
248.36	0.0000E00
248.73	0.0000E00
249.10	0.0000E00
249.47	0.0000E00
249.84	0.0000E00
250.22	0.0000E00
250.59	0.0000E00
250.96	0.0000E00
251.33	0.0000E00
251.70	0.0000E00
252.08	0.0000E00
252.45	0.0000E00
252.82	0.0000E00
253.19	0.0000E00
253.56	0.0000E00
253.94	0.0000E00
254.31	0.0000E00
254.68	0.0000E00
255.05	0.0000E00
255.42	0.0000E00
255.79	0.0000E00
256.16	0.0000E00
256.54	0.0000E00
256.91	0.0000E00
257.28	0.0000E00
257.65	0.0000E00
258.02	0.0000E00
258.39	0.0000E00
258.76	0.0000E00
259.14	0.0000E00
259.51	0.0000E00
259.88	0.0000E00
260.25	0.0000E00
260.62	0.0000E00
260.99	0.0000E00
261.36	0.0000E00
261.73	0.0000E00
262.10	0.0000E00
262.47	0.0000E00
262.85	0.0000E00
263.22	0.0000E00
263.59	0.0000E00
263.96	0.0000E00
264.33	0.0000E00
264.70	0.0000E00
265.07	0.0000E00
265.44	0.0000E00
265.81	0.0000E00
266.18	0.0000E00
266.55	0.0000E00
266.92	0.0000E00
267.29	0.0000E00
267.66	0.0000E00
268.03	0.0000E00
268.40	0.0000E00
268.77	0.0000E00
269.14	0.0000E00
269.51	0.0000E00
269.88	0.0000E00
270.25	0.0000E00
270.62	0.0000E00
270.99	0.0000E00
271.36	0.0000E00
271.73	0.0000E00
272.10	0.0000E00
272.47	0.0000E00
272.84	0.0000E00
273.21	0.0000E00
273.58	0.0000E00
273.95	0.0000E00
274.32	0.0000E00
274.69	0.0000E00
275.06	0.0000E00
275.43	0.0000E00
275.80	0.0000E00
276.17	0.0000E00
276.54	0.0000E00
276.91	0.0000E00
277.28	0.0000E00
277.65	0.0000E00
278.02	0.0000E00
278.39	0.0000E00
278.76	0.0000E00
279.13	0.0000E00
279.50	0.0000E00
279.87	0.0000E00
280.23	0.0000E00
280.60	0.0000E00
280.97	0.0000E00
281.34	0.0000E00
281.71	0.0000E00
282.08	0.0000E00
282.45	0.0000E00
282.82	0.0000E00
283.19	0.0000E00
283.56	0.0000E00
283.92	0.0000E00
284.29	0.0000E00
284.66	0.0000E00
285.03	0.0000E00
285.40	0.0000E00
285.77	0.0000E00
286.14	0.0000E00
286.51	0.0000E00
286.87	0.0000E00
287.24	0.0000E00
287.61	0.0000E00
287.98	0.0000E00
288.35	0.0000E00
288.72	0.0000E00
289.08	0.0000E00
289.45	0.0000E00
289.82	0.0000E00
290.19	0.0000E00
290.56	0.0000E00
290.93	0.0000E00
291.29	0.0000E00
291.66	0.0000E00
292.03	0.0000E00
292.40	0.0000E00
292.77	0.0000E00
293.13	0.0000E00
293.50	0.0000E00
293.87	0.0000E00
294.24	0.0000E00
294.60	0.0000E00
294.97	0.0000E00
295.34	0.0000E00
295.71	0.0000E00
296.08	0.0000E00
296.44	0.0000E00
296.81	0.0000E00
297.18	0.0000E00
297.55	0.0000E00
297.91	0.0000E00
298.28	0.0000E00
298.65	0.0000E00
299.02	0.0000E00
299.38	0.0000E00
299.75	0.0000E00
300.12	1.0353E-01
300.48	2.7598E-01
300.85	1.0814E-01
301.22	2.9465E-01
301.59	9.2189E-02
301.95	1.1101E-01
302.32	1.5263E-01
302.69	1.6035E-01
303.05	9.4964E-02
303.42	1.3390E-01
303.79	1.5280E-01
304.15	9.8729E-02
304.52	1.0898E-01
304.89	1.0167E-01
305.25	2.1883E-01
305.62	1.3360E-01
305.99	1.7091E-01
306.35	9.6604E-02
306.72	1.3358E-01
307.09	1.3853E-01
307.45	1.3020E-01
307.82	9.3029E-02
308.19	1.1742E-01
308.55	1.3349E-01
308.92	1.6167E-01
309.29	1.3029E-01
309.65	2.2226E-01
310.02	1.2676E-01
310.38	1.3044E-01
310.75	1.7905E-01
311.12	1.7859E-01
311.48	3.1029E-01
311.85	2.0798E-01
312.22	1.5137E-01
312.58	3.3752E-01
312.95	2.1058E-01
313.31	2.0499E-01
313.68	2.6966E-01
314.05	4.5351E-01
314.41	2.5392E-01
314.78	1.5903E-01
315.14	3.3583E-01
315.51	5.4009E-01
315.87	2.3644E-01
316.24	3.5508E-01
316.61	3.3819E-01
316.97	2.3986E-01
317.34	4.2536E-01
317.70	3.3400E-01
318.07	3.4161E-01
318.43	4.0481E-01
318.80	3.0293E-01
319.16	3.9101E-01
319.53	2.8134E-01
319.89	5.7557E-01
320.26	4.5532E-01
320.62	5.6218E-01
320.99	5.0249E-01
321.35	2.9009E-01
321.72	4.0323E-01
322.08	6.2420E-01
322.45	3.9293E-01
322.81	4.0841E-01
323.18	1.2842E00
323.54	6.8501E-01
323.91	5.2699E-01
324.27	1.1086E00
324.64	8.8270E-01
325.00	6.7895E-01
325.37	1.1668E00
325.73	4.5168E-01
326.10	1.7078E00
326.46	8.1802E-01
326.83	7.1985E-01
327.19	1.5380E00
327.56	6.0968E-01
327.92	8.7767E-01
328.29	6.8814E-01
328.65	8.6947E-01
329.01	1.0849E00
329.38	7.3066E-01
329.74	6.7616E-01
330.11	1.0228E00
330.47	6.8401E-01
330.84	9.5452E-01
331.20	9.5469E-01
331.56	8.7451E-01
331.93	1.0093E00
332.29	9.5964E-01
332.66	6.7377E-01
333.02	8.0558E-01
333.38	1.2166E00
333.75	5.7445E-01
334.11	9.7852E-01
334.48	9.1398E-01
334.84	8.6246E-01
335.20	1.0856E00
335.57	2.0156E00
335.93	1.3300E00
336.29	1.0027E00
336.66	9.3847E-01
337.02	6.7863E-01
337.38	8.0931E-01
337.75	8.2673E-01
338.11	7.2360E-01
338.47	1.0519E00
338.84	8.9030E-01
339.20	7.5577E-01
339.56	2.2624E00
339.93	7.6064E-01
340.29	9.0101E-01
340.65	9.8717E-01
341.02	1.6835E00
341.38	1.1202E00
341.74	1.2294E00
342.11	1.2269E00
342.47	1.2468E00
342.83	7.4051E-01
343.20	1.6337E00
343.56	9.9920E-01
343.92	1.4045E00
344.28	8.5668E-01
344.65	1.3292E00
345.01	7.9488E-01
345.37	1.3527E00
345.73	1.2685E00
346.10	1.0952E00
346.46	1.3123E00
346.82	1.0155E00
347.19	2.3248E00
347.55	9.5992E-01
347.91	9.7514E-01
348.27	1.0952E00
348.63	9.5309E-01
349.00	9.4472E-01
349.36	1.9030E00
349.72	1.1855E00
350.08	1.7256E00
350.45	9.8304E-01
350.81	9.1268E-01
351.17	1.1994E00
351.53	1.2979E00
351.89	1.0585E00
352.26	1.2154E00
352.62	1.0050E00
352.98	1.1682E00
353.34	1.0325E00
353.70	1.3628E00
354.07	1.0004E00
354.43	9.4917E-01
354.79	1.1142E00
355.15	8.9116E-01
355.51	8.5152E-01
355.87	9.6323E-01
356.24	1.0035E00
356.60	9.7091E-01
356.96	1.0526E00
357.32	9.4680E-01
357.68	8.8996E-01
358.04	8.0239E-01
358.40	8.8483E-01
358.77	8.2408E-01
359.13	9.7525E-01
359.49	1.0365E00
359.85	1.0077E00
360.21	7.5850E-01
360.57	9.2652E-01
360.93	9.2013E-01
361.29	9.7476E-01
361.66	8.0891E-01
362.02	7.4596E-01
362.38	9.7262E-01
362.74	8.4712E-01
363.10	8.9275E-01
363.46	1.0388E00
363.82	8.8807E-01
364.18	1.0630E00
364.54	1.0082E00
364.90	9.6080E-01
365.26	9.4483E-01
365.62	1.0795E00
365.98	9.4003E-01
366.35	7.5345E-01
366.71	9.1176E-01
367.07	1.1691E00
367.43	7.4005E-01
367.79	1.0564E00
368.15	9.6916E-01
368.51	1.1488E00
368.87	1.0039E00
369.23	1.0735E00
369.59	8.4446E-01
369.95	9.1485E-01
370.31	8.7251E-01
370.67	1.0320E00
371.03	8.7054E-01
371.39	8.5077E-01
371.75	8.5970E-01
372.11	8.8763E-01
372.47	8.1546E-01
372.83	8.2307E-01
373.19	6.8798E-01
373.55	9.0161E-01
373.91	9.1885E-01
374.27	9.9130E-01
374.63	9.6749E-01
374.99	8.7871E-01
375.35	8.4362E-01
375.71	8.6036E-01
376.07	8.6748E-01
376.42	8.5845E-01
376.78	7.7914E-01
377.14	8.8255E-01
377.50	9.6393E-01
377.86	8.2087E-01
378.22	7.7449E-01
378.58	7.7508E-01
378.94	7.5132E-01
379.30	7.8953E-01
379.66	7.7799E-01
380.02	7.6098E-01
380.38	7.4018E-01
380.74	7.7452E-01
381.09	8.1372E-01
381.45	7.5003E-01
381.81	7.2608E-01
382.17	7.6438E-01
382.53	7.9538E-01
382.89	7.1239E-01
383.25	7.4883E-01
383.61	7.4054E-01
383.97	7.1863E-01
384.32	7.1646E-01
384.68	6.8327E-01
385.04	7.5898E-01
385.40	7.8241E-01
385.76	7.7960E-01
386.12	7.3290E-01
386.48	7.4464E-01
386.83	6.9522E-01
387.19	6.9340E-01
387.55	7.7590E-01
387.91	7.5023E-01
388.27	7.0087E-01
388.62	7.8750E-01
388.98	7.1485E-01
389.34	7.9246E-01
389.70	7.1925E-01
390.06	7.4259E-01
390.42	7.4893E-01
390.77	7.3107E-01
391.13	7.4515E-01
391.49	7.3198E-01
391.85	7.7170E-01
392.20	6.8151E-01
392.56	6.9093E-01
392.92	7.0054E-01
393.28	7.0354E-01
393.64	7.3514E-01
393.99	7.4889E-01
394.35	7.3590E-01
394.71	7.2853E-01
395.07	7.1285E-01
395.42	7.1619E-01
395.78	7.2914E-01
396.14	6.5787E-01
396.50	6.6057E-01
396.85	7.2591E-01
397.21	6.9906E-01
397.57	7.1842E-01
397.92	6.7200E-01
398.28	6.4993E-01
398.64	7.7275E-01
399.00	6.2302E-01
399.35	6.4880E-01
399.71	6.9575E-01
400.07	6.7822E-01
400.42	6.6357E-01
400.78	6.7988E-01
401.14	6.8249E-01
401.49	6.3280E-01
401.85	6.2918E-01
402.21	6.3887E-01
402.57	6.3535E-01
402.92	6.6962E-01
403.28	6.3668E-01
403.63	6.3366E-01
403.99	6.4829E-01
404.35	6.2911E-01
404.70	6.1747E-01
405.06	6.2721E-01
405.42	6.4136E-01
405.77	5.9647E-01
406.13	5.9638E-01
406.49	5.9199E-01
406.84	5.9884E-01
407.20	5.8465E-01
407.55	6.3030E-01
407.91	6.4257E-01
408.27	6.0193E-01
408.62	6.0516E-01
408.98	6.1257E-01
409.34	6.2330E-01
409.69	5.9617E-01
410.05	6.2835E-01
410.40	5.9988E-01
410.76	5.5490E-01
411.11	5.5999E-01
411.47	6.0740E-01
411.83	5.7590E-01
412.18	5.8674E-01
412.54	5.7490E-01
412.89	5.7131E-01
413.25	5.9303E-01
413.60	6.1837E-01
413.96	5.8035E-01
414.31	5.8415E-01
414.67	6.1618E-01
415.03	6.0392E-01
415.38	6.1879E-01
415.74	6.1158E-01
416.09	6.0750E-01
416.45	6.1606E-01
416.80	6.0479E-01
417.16	5.9919E-01
417.51	5.9578E-01
417.87	5.7366E-01
418.22	5.6681E-01
418.58	5.7911E-01
418.93	5.5465E-01
419.29	5.9425E-01
419.64	5.7722E-01
420.00	5.4525E-01
420.35	5.3547E-01
420.71	5.6180E-01
421.06	5.6427E-01
421.42	5.7832E-01
421.77	5.6983E-01
422.12	5.6944E-01
422.48	5.3886E-01
422.83	5.7584E-01
423.19	5.4429E-01
423.54	5.4428E-01
423.90	5.5130E-01
424.25	5.2044E-01
424.61	5.7394E-01
424.96	5.3701E-01
425.31	5.3382E-01
425.67	5.1188E-01
426.02	5.3486E-01
426.38	5.3425E-01
426.73	5.0630E-01
427.09	5.3008E-01
427.44	5.0757E-01
427.79	5.1354E-01
428.15	5.2887E-01
428.50	5.2526E-01
428.85	5.3872E-01
429.21	4.9648E-01
429.56	4.8592E-01
429.92	4.9496E-01
430.27	5.1160E-01
430.62	5.1122E-01
430.98	5.1801E-01
431.33	5.0584E-01
431.68	4.8904E-01
432.04	4.8557E-01
432.39	4.9267E-01
432.74	5.1065E-01
433.10	4.7848E-01
433.45	5.0671E-01
433.80	5.0444E-01
434.16	5.1514E-01
434.51	4.9026E-01
434.86	5.1075E-01
435.22	4.9206E-01
435.57	5.2630E-01
435.92	5.1539E-01
436.28	5.1354E-01
436.63	4.7602E-01
436.98	5.0843E-01
437.34	5.0503E-01
437.69	4.8046E-01
438.04	4.6742E-01
438.39	5.0035E-01
438.75	5.1194E-01
439.10	4.6221E-01
439.45	5.0208E-01
439.81	4.9678E-01
440.16	4.6709E-01
440.51	4.8819E-01
440.86	4.8632E-01
441.22	4.7485E-01
441.57	4.7982E-01
441.92	4.6601E-01
442.27	4.8855E-01
442.63	4.7836E-01
442.98	5.1132E-01
443.33	5.0029E-01
443.68	4.6498E-01
444.03	4.3887E-01
444.39	4.4089E-01
444.74	4.7882E-01
445.09	4.8512E-01
445.44	4.8679E-01
445.79	4.2974E-01
446.15	4.6174E-01
446.50	4.7705E-01
446.85	4.4870E-01
447.20	4.3661E-01
447.55	4.7198E-01
447.91	4.5449E-01
448.26	4.6596E-01
448.61	4.6117E-01
448.96	4.5193E-01
449.31	4.5841E-01
449.66	4.6285E-01
450.02	4.5643E-01
450.37	4.5689E-01
450.72	4.5012E-01
451.07	4.8554E-01
451.42	4.8253E-01
451.77	4.5578E-01
452.12	4.5536E-01
452.47	4.7636E-01
452.83	4.3805E-01
453.18	4.6331E-01
453.53	4.5843E-01
453.88	4.3153E-01
454.23	4.2600E-01
454.58	4.2590E-01
454.93	4.5726E-01
455.28	4.5469E-01
455.63	4.4146E-01
455.98	4.3116E-01
456.34	4.5411E-01
456.69	4.4047E-01
457.04	4.4411E-01
457.39	4.1638E-01
457.74	4.2542E-01
458.09	4.1405E-01
458.44	4.1373E-01
458.79	4.0456E-01
459.14	4.1812E-01
459.49	4.3547E-01
459.84	4.1096E-01
460.19	4.3700E-01
460.54	4.3440E-01
460.89	4.0036E-01
461.24	4.3834E-01
461.59	4.1953E-01
461.94	4.2502E-01
462.29	3.9726E-01
462.64	4.2009E-01
462.99	4.2436E-01
463.34	4.4860E-01
463.69	4.2037E-01
464.04	3.9275E-01
464.39	4.0790E-01
464.74	4.1355E-01
465.09	4.2455E-01
465.44	3.9975E-01
465.79	4.1287E-01
466.14	4.1449E-01
466.49	4.0782E-01
466.84	4.0424E-01
467.19	4.1784E-01
467.54	4.1926E-01
467.89	3.9906E-01
468.24	3.7795E-01
468.59	3.9068E-01
468.94	3.8312E-01
469.29	3.8456E-01
469.64	3.9748E-01
469.99	3.8297E-01
470.34	3.7085E-01
470.68	3.9481E-01
471.03	3.8082E-01
471.38	3.8181E-01
471.73	3.6388E-01
472.08	3.5932E-01
472.43	3.4713E-01
472.78	3.6629E-01
473.13	3.6229E-01
473.48	3.5648E-01
473.83	3.4965E-01
474.17	3.5460E-01
474.52	3.5092E-01
474.87	3.3631E-01
475.22	3.4348E-01
475.57	3.2681E-01
475.92	3.1852E-01
476.27	3.2788E-01
476.61	3.1932E-01
476.96	3.1121E-01
477.31	3.0163E-01
477.66	3.0745E-01
478.01	3.0564E-01
478.36	3.0395E-01
478.70	2.9952E-01
479.05	3.0452E-01
479.40	2.9026E-01
479.75	2.8694E-01
480.10	2.8904E-01
480.45	2.8220E-01
480.79	2.8083E-01
481.14	2.8484E-01
481.49	2.7798E-01
481.84	2.7309E-01
482.19	2.7119E-01
482.53	2.7056E-01
482.88	2.6818E-01
483.23	2.6383E-01
483.58	2.5831E-01
483.92	2.6467E-01
484.27	2.5632E-01
484.62	2.5491E-01
484.97	2.4912E-01
485.31	2.4802E-01
485.66	2.5337E-01
486.01	2.5337E-01
486.36	2.4143E-01
486.70	2.4767E-01
487.05	2.4630E-01
487.40	2.4666E-01
487.75	2.3918E-01
488.09	2.3944E-01
488.44	2.4167E-01
488.79	2.3812E-01
489.13	2.3516E-01
489.48	2.3811E-01
489.83	2.3871E-01
490.17	2.3221E-01
490.52	2.3209E-01
490.87	2.3314E-01
491.22	2.3662E-01
491.56	2.3315E-01
491.91	2.3606E-01
492.26	2.3342E-01
492.60	2.3366E-01
492.95	2.3562E-01
493.30	2.3498E-01
493.64	2.3239E-01
493.99	2.3372E-01
494.34	2.3077E-01
494.68	2.2833E-01
495.03	2.3401E-01
495.37	2.3176E-01
495.72	2.3420E-01
496.07	2.2927E-01
496.41	2.3068E-01
496.76	2.2906E-01
497.11	2.3124E-01
497.45	2.3026E-01
497.80	2.3094E-01
498.14	2.3073E-01
498.49	2.3087E-01
498.84	2.3158E-01
499.18	2.3118E-01
499.53	2.3101E-01
499.87	2.2886E-01
500.22	2.3158E-01
500.56	2.3117E-01
500.91	2.3077E-01
501.26	2.3047E-01
501.60	2.3011E-01
501.95	2.2830E-01
502.29	2.3107E-01
502.64	2.2694E-01
502.98	2.3043E-01
503.33	2.2864E-01
503.67	2.2910E-01
504.02	2.2873E-01
504.36	2.2838E-01
504.71	2.2903E-01
505.06	2.2684E-01
505.40	2.2697E-01
505.75	2.2839E-01
506.09	2.2847E-01
506.44	2.2825E-01
506.78	2.2602E-01
507.13	2.2733E-01
507.47	2.2542E-01
507.82	2.2545E-01
508.16	2.2759E-01
508.51	2.2539E-01
508.85	2.2263E-01
509.19	2.2561E-01
509.54	2.2514E-01
509.88	2.2544E-01
510.23	2.2220E-01
510.57	2.2317E-01
510.92	2.2243E-01
511.26	2.2291E-01
511.61	2.2261E-01
511.95	2.2285E-01
512.30	2.2151E-01
512.64	2.2313E-01
512.98	2.1927E-01
513.33	2.2067E-01
513.67	2.2145E-01
514.02	2.2064E-01
514.36	2.1859E-01
514.70	2.2004E-01
515.05	2.1756E-01
515.39	2.1915E-01
515.74	2.1701E-01
516.08	2.1606E-01
516.42	2.1785E-01
516.77	2.1825E-01
517.11	2.1816E-01
517.46	2.1960E-01
517.80	2.1649E-01
518.14	2.1788E-01
518.49	2.1586E-01
518.83	2.1680E-01
519.17	2.1664E-01
519.52	2.1717E-01
519.86	2.1601E-01
520.20	2.1496E-01
520.55	2.1588E-01
520.89	2.1441E-01
521.23	2.1665E-01
521.58	2.1624E-01
521.92	2.1792E-01
522.26	2.1905E-01
522.61	2.1555E-01
522.95	2.1713E-01
523.29	2.1409E-01
523.64	2.1441E-01
523.98	2.1519E-01
524.32	2.1606E-01
524.66	2.1791E-01
525.01	2.1776E-01
525.35	2.1848E-01
525.69	2.1907E-01
526.04	2.1840E-01
526.38	2.1519E-01
526.72	2.1972E-01
527.06	2.1842E-01
527.41	2.2015E-01
527.75	2.2198E-01
528.09	2.2029E-01
528.43	2.2378E-01
528.78	2.2116E-01
529.12	2.2350E-01
529.46	2.2505E-01
529.80	2.2434E-01
530.15	2.2478E-01
530.49	2.2480E-01
530.83	2.2610E-01
531.17	2.2622E-01
531.51	2.2524E-01
531.86	2.2737E-01
532.20	2.2861E-01
532.54	2.2771E-01
532.88	2.2955E-01
533.22	2.3118E-01
533.57	2.3236E-01
533.91	2.3177E-01
534.25	2.3380E-01
534.59	2.3265E-01
534.93	2.3467E-01
535.27	2.3357E-01
535.62	2.3786E-01
535.96	2.3702E-01
536.30	2.3755E-01
536.64	2.3791E-01
536.98	2.3993E-01
537.32	2.3898E-01
537.66	2.3913E-01
538.01	2.4157E-01
538.35	2.4370E-01
538.69	2.4064E-01
539.03	2.4649E-01
539.37	2.4407E-01
539.71	2.4589E-01
540.05	2.4642E-01
540.39	2.4705E-01
540.73	2.4616E-01
541.07	2.4665E-01
541.42	2.4722E-01
541.76	2.4745E-01
542.10	2.4888E-01
542.44	2.4977E-01
542.78	2.5016E-01
543.12	2.4933E-01
543.46	2.5497E-01
543.80	2.5172E-01
544.14	2.5169E-01
544.48	2.5068E-01
544.82	2.5346E-01
545.16	2.5330E-01
545.50	2.5221E-01
545.84	2.5475E-01
546.18	2.5331E-01
546.52	2.5607E-01
546.86	2.5389E-01
547.20	2.5717E-01
547.54	2.6013E-01
547.88	2.5593E-01
548.22	2.5660E-01
548.56	2.5785E-01
548.90	2.5594E-01
549.24	2.5833E-01
549.58	2.5887E-01
549.92	2.5714E-01
550.26	2.6136E-01
550.60	2.5773E-01
550.94	2.5660E-01
551.28	2.6004E-01
551.62	2.5835E-01
551.96	2.6095E-01
552.30	2.6208E-01
552.64	2.6062E-01
552.98	2.6100E-01
553.32	2.6146E-01
553.66	2.6012E-01
554.00	2.6067E-01
554.34	2.6143E-01
554.68	2.6240E-01
555.02	2.6272E-01
555.36	2.6385E-01
555.69	2.6237E-01
556.03	2.6244E-01
556.37	2.6375E-01
556.71	2.6111E-01
557.05	2.6086E-01
557.39	2.6143E-01
557.73	2.6191E-01
558.07	2.6404E-01
558.41	2.6257E-01
558.75	2.6317E-01
559.08	2.6310E-01
559.42	2.6091E-01
559.76	2.6494E-01
560.10	2.6463E-01
560.44	2.6447E-01
560.78	2.6170E-01
561.12	2.6349E-01
561.45	2.6328E-01
561.79	2.6435E-01
562.13	2.6432E-01
562.47	2.6449E-01
562.81	2.6471E-01
563.15	2.6462E-01
563.48	2.6526E-01
563.82	2.6217E-01
564.16	2.6422E-01
564.50	2.6440E-01
564.84	2.6520E-01
565.17	2.6530E-01
565.51	2.6489E-01
565.85	2.6680E-01
566.19	2.6352E-01
566.52	2.6704E-01
566.86	2.6422E-01
567.20	2.6685E-01
567.54	2.6580E-01
567.88	2.6628E-01
568.21	2.6591E-01
568.55	2.6756E-01
568.89	2.6757E-01
569.23	2.6728E-01
569.56	2.6695E-01
569.90	2.6805E-01
570.24	2.6964E-01
570.57	2.6972E-01
570.91	2.7004E-01
571.25	2.6629E-01
571.59	2.6945E-01
571.92	2.6913E-01
572.26	2.7028E-01
572.60	2.7293E-01
572.93	2.7140E-01
573.27	2.7371E-01
573.61	2.7415E-01
573.95	2.6999E-01
574.28	2.7438E-01
574.62	2.7488E-01
574.96	2.7504E-01
575.29	2.7409E-01
575.63	2.7869E-01
575.97	2.7792E-01
576.30	2.8437E-01
576.64	2.8088E-01
576.98	2.8037E-01
577.31	2.8175E-01
577.65	2.8438E-01
577.98	2.8244E-01
578.32	2.8469E-01
578.66	2.8646E-01
578.99	2.8679E-01
579.33	2.8783E-01
579.67	2.8619E-01
580.00	2.8984E-01
580.34	2.8927E-01
580.67	2.9067E-01
581.01	2.9306E-01
581.35	2.9430E-01
581.68	2.9539E-01
582.02	2.9408E-01
582.35	2.9654E-01
582.69	2.9658E-01
583.02	3.0114E-01
583.36	2.9814E-01
583.70	2.9752E-01
584.03	2.9967E-01
584.37	2.9804E-01
584.70	3.0401E-01
585.04	3.0385E-01
585.37	3.0250E-01
585.71	3.0737E-01
586.04	3.0640E-01
586.38	3.0430E-01
586.72	3.0840E-01
587.05	3.0993E-01
587.39	3.1135E-01
587.72	3.0928E-01
588.06	3.1159E-01
588.39	3.1120E-01
588.73	3.1426E-01
589.06	3.1208E-01
589.40	3.1695E-01
589.73	3.1864E-01
590.07	3.1924E-01
590.40	3.1949E-01
590.73	3.2336E-01
591.07	3.1994E-01
591.40	3.2665E-01
591.74	3.1964E-01
592.07	3.2393E-01
592.41	3.2555E-01
592.74	3.2655E-01
593.08	3.2444E-01
593.41	3.2647E-01
593.75	3.2429E-01
594.08	3.2928E-01
594.41	3.2774E-01
594.75	3.2904E-01
595.08	3.2888E-01
595.42	3.2493E-01
595.75	3.3020E-01
596.09	3.3031E-01
596.42	3.2881E-01
596.75	3.3277E-01
597.09	3.3442E-01
597.42	3.3091E-01
597.75	3.3500E-01
598.09	3.3573E-01
598.42	3.3315E-01
598.76	3.3534E-01
599.09	3.3969E-01
599.42	3.3929E-01
599.76	3.3771E-01
600.09	3.3652E-01
600.42	3.4215E-01
600.76	3.3559E-01
601.09	3.3923E-01
601.42	3.4288E-01
601.76	3.3862E-01
602.09	3.3795E-01
602.42	3.4011E-01
602.76	3.3901E-01
603.09	3.3827E-01
603.42	3.4443E-01
603.76	3.4024E-01
604.09	3.4058E-01
604.42	3.4323E-01
604.76	3.4042E-01
605.09	3.4592E-01
605.42	3.4234E-01
605.75	3.4403E-01
606.09	3.4218E-01
606.42	3.4346E-01
606.75	3.4521E-01
607.09	3.4581E-01
607.42	3.4611E-01
607.75	3.4661E-01
608.08	3.4551E-01
608.42	3.4840E-01
608.75	3.4422E-01
609.08	3.4858E-01
609.41	3.4784E-01
609.75	3.4619E-01
610.08	3.4812E-01
610.41	3.5007E-01
610.74	3.4911E-01
611.07	3.4921E-01
611.41	3.4893E-01
611.74	3.5017E-01
612.07	3.5178E-01
612.40	3.4686E-01
612.73	3.5044E-01
613.07	3.5238E-01
613.40	3.4861E-01
613.73	3.4746E-01
614.06	3.5045E-01
614.39	3.5185E-01
614.72	3.5319E-01
615.06	3.5250E-01
615.39	3.5706E-01
615.72	3.5096E-01
616.05	3.5465E-01
616.38	3.5498E-01
616.71	3.5608E-01
617.05	3.5391E-01
617.38	3.5606E-01
617.71	3.5398E-01
618.04	3.5568E-01
618.37	3.5365E-01
618.70	3.5478E-01
619.03	3.5618E-01
619.36	3.5074E-01
619.69	3.5808E-01
620.03	3.5433E-01
620.36	3.5477E-01
620.69	3.5299E-01
621.02	3.5639E-01
621.35	3.5528E-01
621.68	3.5198E-01
622.01	3.5109E-01
622.34	3.5282E-01
622.67	3.5194E-01
623.00	3.5344E-01
623.33	3.5428E-01
623.66	3.5164E-01
623.99	3.5271E-01
624.32	3.5157E-01
624.65	3.5265E-01
624.99	3.5188E-01
625.32	3.5345E-01
625.65	3.5313E-01
625.98	3.4792E-01
626.31	3.5270E-01
626.64	3.5338E-01
626.97	3.5364E-01
627.30	3.5107E-01
627.63	3.5261E-01
627.96	3.4944E-01
628.29	3.4966E-01
628.62	3.5305E-01
628.95	3.5316E-01
629.28	3.4772E-01
629.61	3.5835E-01
629.94	3.5330E-01
630.26	3.5369E-01
630.59	3.5568E-01
630.92	3.5382E-01
631.25	3.5530E-01
631.58	3.5962E-01
631.91	3.5440E-01
632.24	3.6178E-01
632.57	3.5806E-01
632.90	3.5844E-01
633.23	3.5917E-01
633.56	3.6115E-01
633.89	3.6189E-01
634.22	3.6296E-01
634.55	3.6422E-01
634.88	3.6801E-01
635.20	3.6721E-01
635.53	3.6996E-01
635.86	3.7010E-01
636.19	3.7423E-01
636.52	3.7539E-01
636.85	3.7216E-01
637.18	3.7656E-01
637.51	3.7392E-01
637.83	3.7799E-01
638.16	3.7440E-01
638.49	3.8517E-01
638.82	3.8358E-01
639.15	3.8662E-01
639.48	3.8980E-01
639.81	3.9136E-01
640.13	3.8799E-01
640.46	3.9372E-01
640.79	3.9362E-01
641.12	3.9732E-01
641.45	3.9647E-01
641.77	3.9395E-01
642.10	4.0319E-01
642.43	4.0427E-01
642.76	4.0639E-01
643.09	4.0380E-01
643.41	4.0711E-01
643.74	4.0718E-01
644.07	4.0727E-01
644.40	4.1047E-01
644.73	4.1495E-01
645.05	4.1668E-01
645.38	4.1924E-01
645.71	4.2035E-01
646.04	4.2052E-01
646.36	4.2001E-01
646.69	4.2613E-01
647.02	4.2648E-01
647.35	4.2398E-01
647.67	4.2961E-01
648.00	4.2828E-01
648.33	4.3351E-01
648.66	4.3077E-01
648.98	4.3685E-01
649.31	4.3551E-01
649.64	4.3780E-01
649.96	4.4196E-01
650.29	4.4407E-01
650.62	4.4477E-01
650.94	4.4397E-01
651.27	4.4388E-01
651.60	4.4478E-01
651.92	4.5248E-01
652.25	4.5308E-01
652.58	4.5228E-01
652.90	4.5446E-01
653.23	4.5482E-01
653.56	4.5647E-01
653.88	4.5799E-01
654.21	4.5826E-01
654.54	4.6010E-01
654.86	4.6629E-01
655.19	4.6109E-01
655.52	4.6846E-01
655.84	4.6686E-01
656.17	4.6899E-01
656.49	4.7426E-01
656.82	4.6938E-01
657.15	4.7451E-01
657.47	4.7415E-01
657.80	4.7439E-01
658.13	4.7620E-01
658.45	4.7923E-01
658.78	4.7769E-01
659.10	4.8444E-01
659.43	4.8347E-01
659.75	4.8203E-01
660.08	4.8032E-01
660.41	4.8697E-01
660.73	4.8721E-01
661.06	4.9050E-01
661.38	4.8919E-01
661.71	4.9115E-01
662.03	4.9098E-01
662.36	4.9752E-01
662.68	4.9621E-01
663.01	4.9014E-01
663.33	4.9444E-01
663.66	4.9844E-01
663.98	4.9547E-01
664.31	4.9615E-01
664.63	5.0542E-01
664.96	5.0266E-01
665.28	5.0602E-01
665.61	5.0507E-01
665.93	5.0561E-01
666.26	5.0889E-01
666.58	5.0956E-01
666.91	5.0602E-01
667.23	5.1147E-01
667.56	5.0555E-01
667.88	5.1351E-01
668.21	5.1294E-01
668.53	5.1075E-01
668.86	5.2100E-01
669.18	5.1305E-01
669.50	5.2453E-01
669.83	5.2293E-01
670.15	5.2440E-01
670.48	5.2363E-01
670.80	5.2166E-01
671.13	5.1905E-01
671.45	5.2531E-01
671.77	5.2802E-01
672.10	5.2421E-01
672.42	5.3186E-01
672.75	5.2915E-01
673.07	5.3366E-01
673.39	5.2803E-01
673.72	5.3222E-01
674.04	5.3619E-01
674.37	5.3930E-01
674.69	5.3592E-01
675.01	5.4032E-01
675.34	5.4210E-01
675.66	5.4332E-01
675.98	5.3779E-01
676.31	5.4646E-01
676.63	5.4833E-01
676.95	5.4542E-01
677.28	5.4898E-01
677.60	5.4945E-01
677.92	5.4776E-01
678.25	5.5343E-01
678.57	5.5441E-01
678.89	5.5263E-01
679.22	5.6092E-01
679.54	5.5826E-01
679.86	5.5913E-01
680.18	5.6058E-01
680.51	5.6213E-01
680.83	5.6821E-01
681.15	5.6206E-01
681.48	5.6582E-01
681.80	5.6966E-01
682.12	5.6658E-01
682.44	5.7542E-01
682.77	5.7623E-01
683.09	5.7970E-01
683.41	5.7669E-01
683.73	5.8266E-01
684.06	5.8133E-01
684.38	5.8289E-01
684.70	5.8195E-01
685.02	5.8772E-01
685.34	5.9374E-01
685.67	5.8831E-01
685.99	5.9623E-01
686.31	5.9145E-01
686.63	6.0150E-01
686.96	5.9801E-01
687.28	6.0511E-01
687.60	5.9687E-01
687.92	6.0315E-01
688.24	6.0937E-01
688.56	6.1143E-01
688.89	6.1291E-01
689.21	6.1004E-01
689.53	6.1264E-01
689.85	6.2201E-01
690.17	6.1786E-01
690.49	6.2699E-01
690.82	6.2747E-01
691.14	6.2706E-01
691.46	6.3095E-01
691.78	6.3482E-01
692.10	6.2812E-01
692.42	6.3480E-01
692.74	6.3994E-01
693.06	6.4100E-01
693.39	6.5227E-01
693.71	6.5258E-01
694.03	6.5263E-01
694.35	6.5514E-01
694.67	6.5640E-01
694.99	6.6290E-01
695.31	6.6514E-01
695.63	6.6436E-01
695.95	6.7025E-01
696.27	6.6847E-01
696.59	6.7439E-01
696.91	6.8431E-01
697.23	6.8290E-01
697.56	6.8112E-01
697.88	6.8856E-01
698.20	6.8759E-01
698.52	6.9410E-01
698.84	6.9893E-01
699.16	7.0442E-01
699.48	6.9760E-01
699.80	7.0672E-01
700.12	7.1296E-01
700.44	7.1479E-01
700.76	7.1622E-01
701.08	7.2008E-01
701.40	7.2390E-01
701.72	7.3127E-01
702.04	7.3070E-01
702.36	7.3715E-01
702.68	7.3962E-01
703.00	7.4465E-01
703.32	7.4917E-01
703.64	7.5015E-01
703.96	7.4295E-01
704.28	7.5436E-01
704.60	7.6306E-01
704.91	7.6565E-01
705.23	7.6695E-01
705.55	7.7557E-01
705.87	7.6951E-01
706.19	7.7197E-01
706.51	7.7713E-01
706.83	7.8115E-01
707.15	8.0150E-01
707.47	7.8458E-01
707.79	7.9986E-01
708.11	8.0077E-01
708.43	8.0524E-01
708.74	8.1232E-01
709.06	8.2340E-01
709.38	8.1777E-01
709.70	8.1306E-01
710.02	8.2438E-01
710.34	8.2157E-01
710.66	8.4229E-01
710.98	8.3737E-01
711.29	8.3653E-01
711.61	8.5149E-01
711.93	8.5664E-01
712.25	8.4911E-01
712.57	8.6153E-01
712.89	8.6455E-01
713.20	8.6562E-01
713.52	8.7438E-01
713.84	8.8150E-01
714.16	8.7554E-01
714.48	8.7782E-01
714.80	8.9183E-01
715.11	8.8944E-01
715.43	9.0170E-01
715.75	9.0726E-01
716.07	9.1636E-01
716.39	8.9977E-01
716.70	9.1130E-01
717.02	9.0592E-01
717.34	9.3438E-01
717.66	9.2474E-01
717.97	9.3555E-01
718.29	9.4128E-01
718.61	9.5261E-01
718.93	9.5285E-01
719.24	9.5606E-01
719.56	9.7689E-01
719.88	9.6710E-01
720.20	9.8046E-01
720.51	9.9241E-01
720.83	9.8778E-01
721.15	1.0080E00
721.46	1.0047E00
721.78	1.0110E00
722.10	1.0250E00
722.42	1.0348E00
722.73	1.0419E00
723.05	1.0291E00
723.37	1.0430E00
723.68	1.0533E00
724.00	1.0542E00
724.32	1.0724E00
724.63	1.0692E00
724.95	1.0652E00
725.27	1.0760E00
725.58	1.0817E00
725.90	1.0824E00
726.22	1.0992E00
726.53	1.0763E00
726.85	1.0923E00
727.16	1.1150E00
727.48	1.0956E00
727.80	1.1078E00
728.11	1.1127E00
728.43	1.1095E00
728.74	1.1038E00
729.06	1.1263E00
729.38	1.1212E00
729.69	1.1263E00
730.01	1.1339E00
730.32	1.1426E00
730.64	1.1407E00
730.96	1.1297E00
731.27	1.1612E00
731.59	1.1342E00
731.90	1.1478E00
732.22	1.1564E00
732.53	1.1547E00
732.85	1.1689E00
733.16	1.1638E00
733.48	1.1723E00
733.80	1.1660E00
734.11	1.1884E00
734.43	1.1855E00
734.74	1.1840E00
735.06	1.1988E00
735.37	1.2100E00
735.69	1.1940E00
736.00	1.2080E00
736.32	1.2094E00
736.63	1.2182E00
736.95	1.2158E00
737.26	1.2387E00
737.58	1.2369E00
737.89	1.2461E00
738.21	1.2329E00
738.52	1.2409E00
738.83	1.2457E00
739.15	1.2453E00
739.46	1.2609E00
739.78	1.2582E00
740.09	1.2740E00
740.41	1.2654E00
740.72	1.2611E00
741.04	1.2618E00
741.35	1.2647E00
741.66	1.2862E00
741.98	1.2790E00
742.29	1.2868E00
742.61	1.2791E00
742.92	1.2852E00
743.23	1.2838E00
743.55	1.2930E00
743.86	1.2818E00
744.18	1.2905E00
744.49	1.2918E00
744.80	1.2898E00
745.12	1.2916E00
745.43	1.2958E00
745.74	1.2941E00
746.06	1.2854E00
746.37	1.2832E00
746.68	1.2948E00
747.00	1.2929E00
747.31	1.2822E00
747.62	1.2741E00
747.94	1.2949E00
748.25	1.2949E00
748.56	1.2973E00
748.88	1.2786E00
749.19	1.2895E00
749.50	1.2917E00
749.82	1.2838E00
750.13	1.2916E00
750.44	1.2931E00
750.75	1.2778E00
751.07	1.2958E00
751.38	1.3024E00
751.69	1.2774E00
752.01	1.2964E00
752.32	1.2941E00
752.63	1.2964E00
752.94	1.3032E00
753.26	1.3091E00
753.57	1.2956E00
753.88	1.3041E00
754.19	1.3048E00
754.51	1.3087E00
754.82	1.3044E00
755.13	1.3199E00
755.44	1.3198E00
755.75	1.3224E00
756.07	1.3225E00
756.38	1.3366E00
756.69	1.3339E00
757.00	1.3419E00
757.31	1.3586E00
757.63	1.3649E00
757.94	1.3684E00
758.25	1.3823E00
758.56	1.3489E00
758.87	1.3959E00
759.18	1.3981E00
759.50	1.3964E00
759.81	1.3895E00
760.12	1.3988E00
760.43	1.4094E00
760.74	1.4054E00
761.05	1.4334E00
761.36	1.4376E00
761.67	1.4481E00
761.99	1.4580E00
762.30	1.4368E00
762.61	1.4726E00
762.92	1.4693E00
763.23	1.4701E00
763.54	1.4840E00
763.85	1.5090E00
764.16	1.5109E00
764.47	1.5308E00
764.78	1.5418E00
765.10	1.5440E00
765.41	1.5455E00
765.72	1.5539E00
766.03	1.5895E00
766.34	1.6020E00
766.65	1.6114E00
766.96	1.6456E00
767.27	1.6328E00
767.58	1.6339E00
767.89	1.6522E00
768.20	1.6765E00
768.51	1.6772E00
768.82	1.6814E00
769.13	1.7140E00
769.44	1.7361E00
769.75	1.7334E00
770.06	1.7381E00
770.37	1.7360E00
770.68	1.7804E00
770.99	1.7913E00
771.30	1.8009E00
771.61	1.8550E00
771.92	1.8151E00
772.23	1.8393E00
772.54	1.8812E00
772.85	1.8608E00
773.16	1.8776E00
773.47	1.9364E00
773.78	1.9215E00
774.09	1.9521E00
774.39	1.9551E00
774.70	1.9616E00
775.01	2.0002E00
775.32	2.0110E00
775.63	2.0344E00
775.94	2.0548E00
776.25	2.0415E00
776.56	2.0621E00
776.87	2.1170E00
777.18	2.1103E00
777.48	2.1307E00
777.79	2.1493E00
778.10	2.1704E00
778.41	2.1874E00
778.72	2.2119E00
779.03	2.2218E00
779.34	2.2692E00
779.65	2.2702E00
779.95	2.3121E00
780.26	2.2921E00
780.57	2.3335E00
780.88	2.3279E00
781.19	2.3692E00
781.50	2.3713E00
781.80	2.3934E00
782.11	2.3960E00
782.42	2.4564E00
782.73	2.4082E00
783.04	2.5044E00
783.34	2.5013E00
783.65	2.5234E00
783.96	2.5290E00
784.27	2.5437E00
784.57	2.5679E00
784.88	2.5957E00
785.19	2.6086E00
785.50	2.6375E00
785.81	2.6706E00
786.11	2.6333E00
786.42	2.6669E00
786.73	2.6961E00
787.04	2.7261E00
787.34	2.7723E00
787.65	2.7869E00
787.96	2.8519E00
788.26	2.8297E00
788.57	2.8871E00
788.88	2.8555E00
789.19	2.9439E00
789.49	2.9151E00
789.80	2.9658E00
790.11	2.9742E00
790.41	3.0058E00
790.72	3.0371E00
791.03	3.0490E00
791.33	3.0816E00
791.64	3.1482E00
791.95	3.0931E00
792.25	3.1926E00
792.56	3.1620E00
792.87	3.2107E00
793.17	3.2306E00
793.48	3.2484E00
793.79	3.2732E00
794.09	3.3408E00
794.40	3.2920E00
794.70	3.3042E00
795.01	3.3184E00
795.32	3.3600E00
795.62	3.4279E00
795.93	3.4343E00
796.23	3.4473E00
796.54	3.4910E00
796.85	3.4755E00
797.15	3.5218E00
797.46	3.5477E00
797.76	3.6383E00
798.07	3.6243E00
798.37	3.6325E00
798.68	3.6874E00
798.99	3.6867E00
799.29	3.7246E00
799.60	3.7936E00
799.90	3.7876E00
800.21	3.8439E00
800.51	3.8757E00
800.82	3.8681E00
801.12	3.9382E00
801.43	3.9283E00
801.73	4.0118E00
802.04	4.0005E00
802.34	3.9960E00
802.65	4.0448E00
802.95	4.1781E00
803.26	4.1487E00
803.56	4.0767E00
803.87	4.1440E00
804.17	4.1728E00
804.48	4.1710E00
804.78	4.2473E00
805.09	4.3209E00
805.39	4.2921E00
805.70	4.3137E00
806.00	4.3804E00
806.30	4.3776E00
806.61	4.4413E00
806.91	4.4647E00
807.22	4.5126E00
807.52	4.5343E00
807.83	4.5535E00
808.13	4.6070E00
808.43	4.5173E00
808.74	4.6448E00
809.04	4.6847E00
809.35	4.6582E00
809.65	4.7688E00
809.95	4.7955E00
810.26	4.8483E00
810.56	4.8731E00
810.86	4.9360E00
811.17	4.9681E00
811.47	4.9632E00
811.77	4.9650E00
812.08	4.9647E00
812.38	5.1118E00
812.69	5.0066E00
812.99	5.1775E00
813.29	5.2040E00
813.59	5.2478E00
813.90	5.2706E00
814.20	5.2799E00
814.50	5.3604E00
814.81	5.3166E00
815.11	5.4586E00
815.41	5.4772E00
815.72	4.9486E00
816.02	4.6895E00
816.32	4.2857E00
816.62	4.1422E00
816.93	4.1601E00
817.23	4.2851E00
817.53	4.2215E00
817.84	4.1569E00
818.14	4.1633E00
818.44	4.1975E00
818.74	4.4135E00
819.04	4.3655E00
819.35	4.3302E00
819.65	4.4184E00
819.95	4.4731E00
820.25	4.6236E00
820.56	4.8940E00
820.86	5.1308E00
821.16	5.3306E00
821.46	5.3115E00
821.76	5.3575E00
822.07	5.2397E00
822.37	4.9639E00
822.67	4.7911E00
822.97	4.3711E00
823.27	4.0250E00
823.57	3.9944E00
823.88	4.1299E00
824.18	4.2424E00
824.48	4.4209E00
824.78	4.5815E00
825.08	4.8176E00
825.38	4.9442E00
825.69	4.9032E00
825.99	4.9500E00
826.29	5.0437E00
826.59	4.9559E00
826.89	5.0602E00
827.19	5.0938E00
827.49	4.9976E00
827.79	4.6782E00
828.09	4.4212E00
828.39	4.3961E00
828.70	4.4005E00
829.00	4.3627E00
829.30	4.2451E00
829.60	4.2432E00
829.90	4.2129E00
830.20	4.0498E00
830.50	4.1551E00
830.80	4.1970E00
831.10	4.0648E00
831.40	4.2216E00
831.70	4.0966E00
832.00	4.1011E00
832.30	3.9987E00
832.60	4.0042E00
832.90	3.9831E00
833.20	4.0344E00
833.50	3.9222E00
833.80	3.8606E00
834.10	3.8809E00
834.40	3.9571E00
834.70	4.0302E00
835.00	3.9409E00
835.30	4.0284E00
835.60	4.0416E00
835.90	4.0529E00
836.20	4.1210E00
836.50	4.1547E00
836.80	4.2824E00
837.10	4.5551E00
837.40	4.2903E00
837.70	4.2918E00
838.00	4.1662E00
838.30	4.1336E00
838.60	4.3124E00
838.90	4.2580E00
839.19	4.4921E00
839.49	4.3166E00
839.79	4.3741E00
840.09	4.2949E00
840.39	4.3662E00
840.69	4.3818E00
840.99	4.5491E00
841.29	4.5618E00
841.59	4.2881E00
841.88	4.3056E00
842.18	4.4220E00
842.48	4.4009E00
842.78	4.3884E00
843.08	4.4437E00
843.38	4.3079E00
843.68	4.5001E00
843.97	4.5162E00
844.27	4.4355E00
844.57	4.4422E00
844.87	4.4293E00
845.17	4.4252E00
845.47	4.3105E00
845.76	4.4867E00
846.06	4.5520E00
846.36	4.9443E00
846.66	4.5308E00
846.96	4.5126E00
847.25	4.3454E00
847.55	4.4378E00
847.85	4.4859E00
848.15	4.3791E00
848.44	4.4274E00
848.74	4.3124E00
849.04	4.3885E00
849.34	4.4404E00
849.63	4.3915E00
849.93	4.2706E00
850.23	4.2826E00
850.53	4.1238E00
850.82	4.1900E00
851.12	4.0854E00
851.42	4.1150E00
851.71	4.1845E00
852.01	4.1124E00
852.31	4.2332E00
852.61	4.1735E00
852.90	4.1505E00
853.20	4.2724E00
853.50	4.4923E00
853.79	4.4225E00
854.09	4.0427E00
854.39	3.9717E00
854.68	3.9914E00
854.98	3.8717E00
855.28	3.8513E00
855.57	3.9671E00
855.87	3.9441E00
856.17	3.9631E00
856.46	3.9008E00
856.76	3.8941E00
857.05	4.1555E00
857.35	4.0440E00
857.65	4.2480E00
857.94	4.2503E00
858.24	4.3172E00
858.53	4.2503E00
858.83	4.5745E00
859.13	4.2382E00
859.42	4.1909E00
859.72	4.3768E00
860.01	4.2915E00
860.31	4.2067E00
860.60	4.3086E00
860.90	4.4188E00
861.20	4.2783E00
861.49	4.1267E00
861.79	4.2796E00
862.08	5.1782E00
862.38	4.5466E00
862.67	4.2389E00
862.97	4.2406E00
863.26	4.2454E00
863.56	4.4714E00
863.85	4.5620E00
864.15	4.1344E00
864.44	4.3680E00
864.74	4.2778E00
865.03	4.4288E00
865.33	4.3287E00
865.62	4.2977E00
865.92	4.1295E00
866.21	4.3251E00
866.51	4.1921E00
866.80	4.3608E00
867.10	4.3963E00
867.39	4.0388E00
867.69	4.2489E00
867.98	3.7844E00
868.27	3.8683E00
868.57	3.8657E00
868.86	4.2248E00
869.16	3.9830E00
869.45	3.9774E00
869.75	3.9184E00
870.04	4.0972E00
870.33	4.2216E00
870.63	4.0263E00
870.92	4.2105E00
871.22	5.0514E00
871.51	4.0747E00
871.80	4.2505E00
872.10	4.2505E00
>>>>>End Processed Spectral Data<<<<<
