SpectraSuite Data File
++++++++++++++++++++++++++++++++++++
Date: Wed May 13 13:57:04 PDT 2015
User: schluterlab
Dark Spectrum Present: Yes
Reference Spectrum Present: No
Number of Sampled Component Spectra: 1
Spectrometers: USB2E3373
Integration Time (usec): 2200000 (USB2E3373)
Spectra Averaged: 3 (USB2E3373)
Boxcar Smoothing: 0 (USB2E3373)
Correct for Electrical Dark: No (USB2E3373)
Strobe/Lamp Enabled: No (USB2E3373)
Correct for Detector Non-linearity: No (USB2E3373)
Correct for Stray Light: No (USB2E3373)
Number of Pixels in Processed Spectrum: 2048
>>>>>Begin Processed Spectral Data<<<<<
178.53	-0.0000E00
178.91	-0.0000E00
179.29	-0.0000E00
179.67	-0.0000E00
180.04	-0.0000E00
180.42	0.0000E00
180.80	0.0000E00
181.18	0.0000E00
181.56	0.0000E00
181.94	0.0000E00
182.31	0.0000E00
182.69	0.0000E00
183.07	0.0000E00
183.45	0.0000E00
183.83	0.0000E00
184.20	0.0000E00
184.58	0.0000E00
184.96	0.0000E00
185.34	0.0000E00
185.72	0.0000E00
186.09	0.0000E00
186.47	0.0000E00
186.85	0.0000E00
187.23	-0.0000E00
187.61	0.0000E00
187.98	0.0000E00
188.36	0.0000E00
188.74	0.0000E00
189.12	0.0000E00
189.49	0.0000E00
189.87	0.0000E00
190.25	0.0000E00
190.63	0.0000E00
191.00	0.0000E00
191.38	0.0000E00
191.76	0.0000E00
192.14	0.0000E00
192.51	0.0000E00
192.89	0.0000E00
193.27	0.0000E00
193.65	0.0000E00
194.02	0.0000E00
194.40	0.0000E00
194.78	0.0000E00
195.15	0.0000E00
195.53	-0.0000E00
195.91	0.0000E00
196.29	0.0000E00
196.66	0.0000E00
197.04	0.0000E00
197.42	0.0000E00
197.79	0.0000E00
198.17	0.0000E00
198.55	0.0000E00
198.92	0.0000E00
199.30	0.0000E00
199.68	0.0000E00
200.05	0.0000E00
200.43	0.0000E00
200.81	0.0000E00
201.18	0.0000E00
201.56	0.0000E00
201.94	0.0000E00
202.31	-0.0000E00
202.69	0.0000E00
203.07	0.0000E00
203.44	0.0000E00
203.82	0.0000E00
204.19	0.0000E00
204.57	0.0000E00
204.95	0.0000E00
205.32	0.0000E00
205.70	0.0000E00
206.08	0.0000E00
206.45	0.0000E00
206.83	0.0000E00
207.20	0.0000E00
207.58	0.0000E00
207.96	0.0000E00
208.33	0.0000E00
208.71	0.0000E00
209.08	0.0000E00
209.46	0.0000E00
209.84	0.0000E00
210.21	0.0000E00
210.59	0.0000E00
210.96	0.0000E00
211.34	0.0000E00
211.71	0.0000E00
212.09	0.0000E00
212.46	0.0000E00
212.84	0.0000E00
213.22	0.0000E00
213.59	0.0000E00
213.97	0.0000E00
214.34	0.0000E00
214.72	0.0000E00
215.09	0.0000E00
215.47	0.0000E00
215.84	0.0000E00
216.22	0.0000E00
216.59	0.0000E00
216.97	0.0000E00
217.34	0.0000E00
217.72	0.0000E00
218.09	0.0000E00
218.47	0.0000E00
218.84	0.0000E00
219.22	0.0000E00
219.59	0.0000E00
219.97	0.0000E00
220.34	0.0000E00
220.72	0.0000E00
221.09	0.0000E00
221.47	0.0000E00
221.84	0.0000E00
222.22	0.0000E00
222.59	0.0000E00
222.97	0.0000E00
223.34	0.0000E00
223.72	0.0000E00
224.09	0.0000E00
224.46	0.0000E00
224.84	0.0000E00
225.21	0.0000E00
225.59	0.0000E00
225.96	0.0000E00
226.34	0.0000E00
226.71	0.0000E00
227.08	0.0000E00
227.46	0.0000E00
227.83	0.0000E00
228.21	0.0000E00
228.58	0.0000E00
228.95	0.0000E00
229.33	0.0000E00
229.70	0.0000E00
230.08	0.0000E00
230.45	0.0000E00
230.82	0.0000E00
231.20	0.0000E00
231.57	0.0000E00
231.95	0.0000E00
232.32	0.0000E00
232.69	0.0000E00
233.07	0.0000E00
233.44	0.0000E00
233.81	0.0000E00
234.19	0.0000E00
234.56	0.0000E00
234.93	0.0000E00
235.31	0.0000E00
235.68	0.0000E00
236.05	0.0000E00
236.43	0.0000E00
236.80	0.0000E00
237.17	0.0000E00
237.55	0.0000E00
237.92	0.0000E00
238.29	0.0000E00
238.67	0.0000E00
239.04	0.0000E00
239.41	0.0000E00
239.79	0.0000E00
240.16	0.0000E00
240.53	0.0000E00
240.91	0.0000E00
241.28	0.0000E00
241.65	0.0000E00
242.02	0.0000E00
242.40	0.0000E00
242.77	0.0000E00
243.14	0.0000E00
243.51	0.0000E00
243.89	0.0000E00
244.26	0.0000E00
244.63	0.0000E00
245.00	0.0000E00
245.38	0.0000E00
245.75	0.0000E00
246.12	0.0000E00
246.49	0.0000E00
246.87	0.0000E00
247.24	0.0000E00
247.61	0.0000E00
247.98	0.0000E00
248.36	0.0000E00
248.73	0.0000E00
249.10	0.0000E00
249.47	0.0000E00
249.84	0.0000E00
250.22	0.0000E00
250.59	0.0000E00
250.96	0.0000E00
251.33	0.0000E00
251.70	0.0000E00
252.08	0.0000E00
252.45	0.0000E00
252.82	0.0000E00
253.19	0.0000E00
253.56	0.0000E00
253.94	0.0000E00
254.31	0.0000E00
254.68	0.0000E00
255.05	0.0000E00
255.42	0.0000E00
255.79	0.0000E00
256.16	0.0000E00
256.54	0.0000E00
256.91	0.0000E00
257.28	0.0000E00
257.65	0.0000E00
258.02	0.0000E00
258.39	0.0000E00
258.76	0.0000E00
259.14	0.0000E00
259.51	0.0000E00
259.88	0.0000E00
260.25	0.0000E00
260.62	0.0000E00
260.99	0.0000E00
261.36	0.0000E00
261.73	0.0000E00
262.10	0.0000E00
262.47	0.0000E00
262.85	0.0000E00
263.22	0.0000E00
263.59	0.0000E00
263.96	0.0000E00
264.33	0.0000E00
264.70	0.0000E00
265.07	0.0000E00
265.44	0.0000E00
265.81	0.0000E00
266.18	0.0000E00
266.55	0.0000E00
266.92	0.0000E00
267.29	0.0000E00
267.66	0.0000E00
268.03	0.0000E00
268.40	0.0000E00
268.77	0.0000E00
269.14	0.0000E00
269.51	0.0000E00
269.88	0.0000E00
270.25	0.0000E00
270.62	0.0000E00
270.99	0.0000E00
271.36	0.0000E00
271.73	0.0000E00
272.10	0.0000E00
272.47	0.0000E00
272.84	0.0000E00
273.21	0.0000E00
273.58	0.0000E00
273.95	0.0000E00
274.32	0.0000E00
274.69	0.0000E00
275.06	0.0000E00
275.43	0.0000E00
275.80	0.0000E00
276.17	0.0000E00
276.54	0.0000E00
276.91	0.0000E00
277.28	0.0000E00
277.65	0.0000E00
278.02	0.0000E00
278.39	0.0000E00
278.76	0.0000E00
279.13	0.0000E00
279.50	0.0000E00
279.87	0.0000E00
280.23	0.0000E00
280.60	0.0000E00
280.97	0.0000E00
281.34	0.0000E00
281.71	0.0000E00
282.08	0.0000E00
282.45	0.0000E00
282.82	0.0000E00
283.19	0.0000E00
283.56	0.0000E00
283.92	0.0000E00
284.29	0.0000E00
284.66	0.0000E00
285.03	0.0000E00
285.40	0.0000E00
285.77	0.0000E00
286.14	0.0000E00
286.51	0.0000E00
286.87	0.0000E00
287.24	0.0000E00
287.61	0.0000E00
287.98	0.0000E00
288.35	0.0000E00
288.72	0.0000E00
289.08	0.0000E00
289.45	0.0000E00
289.82	0.0000E00
290.19	0.0000E00
290.56	0.0000E00
290.93	0.0000E00
291.29	0.0000E00
291.66	0.0000E00
292.03	0.0000E00
292.40	0.0000E00
292.77	0.0000E00
293.13	0.0000E00
293.50	0.0000E00
293.87	0.0000E00
294.24	0.0000E00
294.60	0.0000E00
294.97	0.0000E00
295.34	0.0000E00
295.71	0.0000E00
296.08	0.0000E00
296.44	0.0000E00
296.81	0.0000E00
297.18	0.0000E00
297.55	0.0000E00
297.91	0.0000E00
298.28	0.0000E00
298.65	0.0000E00
299.02	0.0000E00
299.38	0.0000E00
299.75	0.0000E00
300.12	5.1510E-02
300.48	1.4580E-01
300.85	5.0810E-02
301.22	1.4785E-01
301.59	5.0489E-02
301.95	5.7712E-02
302.32	6.9046E-02
302.69	7.2589E-02
303.05	4.2637E-02
303.42	6.0823E-02
303.79	6.9441E-02
304.15	4.9365E-02
304.52	4.4094E-02
304.89	4.2947E-02
305.25	9.6924E-02
305.62	5.3364E-02
305.99	7.2751E-02
306.35	4.0305E-02
306.72	5.0713E-02
307.09	6.8135E-02
307.45	5.6106E-02
307.82	3.5630E-02
308.19	4.5841E-02
308.55	4.3727E-02
308.92	5.7226E-02
309.29	4.2114E-02
309.65	1.2083E-01
310.02	4.3475E-02
310.38	3.8366E-02
310.75	5.0179E-02
311.12	4.7457E-02
311.48	8.1303E-02
311.85	6.2424E-02
312.22	4.7659E-02
312.58	8.0822E-02
312.95	5.2595E-02
313.31	4.7898E-02
313.68	6.3023E-02
314.05	1.0300E-01
314.41	5.6571E-02
314.78	3.8651E-02
315.14	1.2923E-01
315.51	1.1837E-01
315.87	5.1295E-02
316.24	7.2610E-02
316.61	7.1013E-02
316.97	4.8694E-02
317.34	9.7368E-02
317.70	6.0633E-02
318.07	6.7092E-02
318.43	8.3878E-02
318.80	5.6019E-02
319.16	7.1220E-02
319.53	4.8186E-02
319.89	1.0227E-01
320.26	8.4168E-02
320.62	9.5740E-02
320.99	9.3938E-02
321.35	5.4321E-02
321.72	8.8687E-02
322.08	1.0471E-01
322.45	1.0472E-01
322.81	6.8959E-02
323.18	2.6044E-01
323.54	1.2215E-01
323.91	8.4381E-02
324.27	1.9356E-01
324.64	1.5017E-01
325.00	1.1828E-01
325.37	1.7084E-01
325.73	6.1413E-02
326.10	2.5442E-01
326.46	1.0835E-01
326.83	1.0692E-01
327.19	1.9884E-01
327.56	8.3507E-02
327.92	1.1841E-01
328.29	9.6650E-02
328.65	1.1207E-01
329.01	1.4950E-01
329.38	9.5392E-02
329.74	8.3554E-02
330.11	1.3831E-01
330.47	8.3982E-02
330.84	1.1655E-01
331.20	1.1801E-01
331.56	1.0809E-01
331.93	1.2359E-01
332.29	1.3228E-01
332.66	8.0142E-02
333.02	1.0266E-01
333.38	1.5272E-01
333.75	7.7935E-02
334.11	1.9720E-01
334.48	1.0670E-01
334.84	1.0129E-01
335.20	1.2414E-01
335.57	2.3709E-01
335.93	1.5505E-01
336.29	1.2789E-01
336.66	1.1141E-01
337.02	1.0622E-01
337.38	9.7256E-02
337.75	1.0449E-01
338.11	8.7597E-02
338.47	1.2671E-01
338.84	1.0908E-01
339.20	8.7132E-02
339.56	2.5765E-01
339.93	1.2035E-01
340.29	1.1289E-01
340.65	1.0997E-01
341.02	1.8488E-01
341.38	1.2315E-01
341.74	1.4479E-01
342.11	1.4445E-01
342.47	1.4455E-01
342.83	1.1840E-01
343.20	1.7539E-01
343.56	1.1131E-01
343.92	2.2754E-01
344.28	9.4219E-02
344.65	1.4773E-01
345.01	9.4282E-02
345.37	1.4797E-01
345.73	1.4479E-01
346.10	1.1839E-01
346.46	1.5788E-01
346.82	1.0802E-01
347.19	2.4507E-01
347.55	1.0034E-01
347.91	1.0571E-01
348.27	1.1599E-01
348.63	1.0299E-01
349.00	1.0942E-01
349.36	2.0681E-01
349.72	1.4163E-01
350.08	2.0583E-01
350.45	1.2700E-01
350.81	1.1236E-01
351.17	1.6587E-01
351.53	1.6930E-01
351.89	1.4310E-01
352.26	1.7587E-01
352.62	1.3043E-01
352.98	1.4340E-01
353.34	1.2818E-01
353.70	1.7962E-01
354.07	1.7649E-01
354.43	2.0273E-01
354.79	1.6796E-01
355.15	1.2769E-01
355.51	1.2176E-01
355.87	1.3764E-01
356.24	1.3711E-01
356.60	1.3606E-01
356.96	1.5131E-01
357.32	1.1679E-01
357.68	1.1584E-01
358.04	9.6815E-02
358.40	1.0224E-01
358.77	9.5212E-02
359.13	1.1562E-01
359.49	1.3795E-01
359.85	1.4900E-01
360.21	1.1250E-01
360.57	1.3831E-01
360.93	1.3578E-01
361.29	1.6394E-01
361.66	1.2242E-01
362.02	1.1480E-01
362.38	1.4677E-01
362.74	1.3295E-01
363.10	1.9151E-01
363.46	1.7122E-01
363.82	1.4445E-01
364.18	1.8733E-01
364.54	1.7308E-01
364.90	1.7006E-01
365.26	1.6718E-01
365.62	2.0078E-01
365.98	1.8583E-01
366.35	1.5379E-01
366.71	1.9429E-01
367.07	2.4006E-01
367.43	1.5723E-01
367.79	2.2421E-01
368.15	1.9428E-01
368.51	2.5910E-01
368.87	2.0073E-01
369.23	2.2669E-01
369.59	1.7905E-01
369.95	2.0353E-01
370.31	1.8969E-01
370.67	2.1937E-01
371.03	1.8208E-01
371.39	1.8031E-01
371.75	1.8898E-01
372.11	1.9429E-01
372.47	1.6623E-01
372.83	1.7349E-01
373.19	1.3643E-01
373.55	1.7274E-01
373.91	1.8841E-01
374.27	1.8769E-01
374.63	1.8134E-01
374.99	1.6627E-01
375.35	1.7296E-01
375.71	1.8042E-01
376.07	1.9282E-01
376.42	1.9191E-01
376.78	1.8233E-01
377.14	2.0911E-01
377.50	2.5441E-01
377.86	2.2324E-01
378.22	2.2683E-01
378.58	2.3032E-01
378.94	2.1713E-01
379.30	2.1339E-01
379.66	1.9941E-01
380.02	1.9380E-01
380.38	2.0303E-01
380.74	2.3509E-01
381.09	2.3319E-01
381.45	2.0944E-01
381.81	1.9275E-01
382.17	1.8447E-01
382.53	1.7878E-01
382.89	1.5662E-01
383.25	1.5002E-01
383.61	1.4540E-01
383.97	1.4815E-01
384.32	1.5063E-01
384.68	1.6637E-01
385.04	2.0546E-01
385.40	2.0756E-01
385.76	2.1326E-01
386.12	1.8736E-01
386.48	1.9503E-01
386.83	1.8423E-01
387.19	1.8964E-01
387.55	2.0982E-01
387.91	2.0463E-01
388.27	1.9168E-01
388.62	2.1042E-01
388.98	1.9743E-01
389.34	2.2472E-01
389.70	2.2363E-01
390.06	2.4056E-01
390.42	2.4332E-01
390.77	2.4367E-01
391.13	2.8407E-01
391.49	2.5276E-01
391.85	2.6633E-01
392.20	2.3138E-01
392.56	2.1087E-01
392.92	2.0007E-01
393.28	1.7243E-01
393.64	1.5698E-01
393.99	1.5664E-01
394.35	1.8069E-01
394.71	1.9636E-01
395.07	2.2473E-01
395.42	2.5031E-01
395.78	2.5209E-01
396.14	2.2766E-01
396.50	2.1933E-01
396.85	2.0576E-01
397.21	1.8378E-01
397.57	1.8815E-01
397.92	2.0946E-01
398.28	2.4238E-01
398.64	2.9975E-01
399.00	2.8802E-01
399.35	3.1183E-01
399.71	3.4715E-01
400.07	3.3551E-01
400.42	3.2784E-01
400.78	3.5563E-01
401.14	3.6039E-01
401.49	3.4649E-01
401.85	3.5233E-01
402.21	4.0876E-01
402.57	3.7719E-01
402.92	3.9125E-01
403.28	3.5847E-01
403.63	3.5068E-01
403.99	3.5459E-01
404.35	3.5826E-01
404.70	3.4968E-01
405.06	3.5851E-01
405.42	3.4473E-01
405.77	3.4536E-01
406.13	3.4046E-01
406.49	3.3405E-01
406.84	3.3930E-01
407.20	3.4066E-01
407.55	3.5709E-01
407.91	3.5043E-01
408.27	3.5225E-01
408.62	3.7147E-01
408.98	3.7698E-01
409.34	4.2944E-01
409.69	3.4878E-01
410.05	3.6757E-01
410.40	3.5608E-01
410.76	3.4678E-01
411.11	3.4573E-01
411.47	3.7419E-01
411.83	3.8104E-01
412.18	3.9430E-01
412.54	3.8068E-01
412.89	3.7784E-01
413.25	4.0402E-01
413.60	4.1431E-01
413.96	3.8355E-01
414.31	3.9260E-01
414.67	4.1450E-01
415.03	3.8554E-01
415.38	4.0239E-01
415.74	4.0277E-01
416.09	4.0786E-01
416.45	4.0206E-01
416.80	4.1610E-01
417.16	3.9456E-01
417.51	3.9224E-01
417.87	3.8394E-01
418.22	3.8736E-01
418.58	3.8102E-01
418.93	3.8853E-01
419.29	4.3561E-01
419.64	3.9789E-01
420.00	3.7505E-01
420.35	4.1003E-01
420.71	3.9761E-01
421.06	3.9787E-01
421.42	4.1970E-01
421.77	4.2407E-01
422.12	4.1080E-01
422.48	3.9585E-01
422.83	3.9671E-01
423.19	3.8449E-01
423.54	3.8332E-01
423.90	3.9498E-01
424.25	3.9555E-01
424.61	4.5606E-01
424.96	3.9881E-01
425.31	4.1226E-01
425.67	3.9436E-01
426.02	4.1143E-01
426.38	4.1874E-01
426.73	3.9242E-01
427.09	3.9638E-01
427.44	3.9158E-01
427.79	3.8862E-01
428.15	3.8796E-01
428.50	3.9945E-01
428.85	3.9444E-01
429.21	3.7894E-01
429.56	3.7663E-01
429.92	3.5834E-01
430.27	3.4917E-01
430.62	3.2123E-01
430.98	3.1584E-01
431.33	3.5085E-01
431.68	3.5783E-01
432.04	3.8485E-01
432.39	4.0146E-01
432.74	4.1370E-01
433.10	4.1022E-01
433.45	4.2997E-01
433.80	4.2552E-01
434.16	4.1615E-01
434.51	3.9665E-01
434.86	4.2042E-01
435.22	4.3131E-01
435.57	4.3167E-01
435.92	4.4672E-01
436.28	4.6693E-01
436.63	4.4221E-01
436.98	4.6784E-01
437.34	4.5733E-01
437.69	4.3954E-01
438.04	4.3316E-01
438.39	4.3990E-01
438.75	4.4886E-01
439.10	4.1450E-01
439.45	4.4074E-01
439.81	4.4304E-01
440.16	4.3326E-01
440.51	4.5091E-01
440.86	4.4465E-01
441.22	4.4352E-01
441.57	4.5254E-01
441.92	4.4891E-01
442.27	4.6766E-01
442.63	4.5856E-01
442.98	4.8781E-01
443.33	4.7547E-01
443.68	4.4835E-01
444.03	4.3248E-01
444.39	4.3561E-01
444.74	4.6178E-01
445.09	4.6967E-01
445.44	4.7714E-01
445.79	4.2148E-01
446.15	4.4420E-01
446.50	4.5953E-01
446.85	4.3965E-01
447.20	4.3213E-01
447.55	4.6222E-01
447.91	4.4877E-01
448.26	4.6134E-01
448.61	4.5831E-01
448.96	4.5064E-01
449.31	4.5718E-01
449.66	4.5981E-01
450.02	4.5651E-01
450.37	4.5804E-01
450.72	4.5191E-01
451.07	4.8717E-01
451.42	4.8445E-01
451.77	4.5723E-01
452.12	4.5662E-01
452.47	4.7772E-01
452.83	4.3891E-01
453.18	4.6431E-01
453.53	4.5946E-01
453.88	4.3227E-01
454.23	4.2666E-01
454.58	4.2638E-01
454.93	4.5786E-01
455.28	4.5453E-01
455.63	4.4135E-01
455.98	4.3101E-01
456.34	4.5403E-01
456.69	4.4043E-01
457.04	4.4408E-01
457.39	4.1598E-01
457.74	4.2531E-01
458.09	4.1377E-01
458.44	4.1323E-01
458.79	4.0418E-01
459.14	4.1769E-01
459.49	4.3487E-01
459.84	4.1075E-01
460.19	4.3685E-01
460.54	4.3417E-01
460.89	4.0008E-01
461.24	4.3822E-01
461.59	4.1921E-01
461.94	4.2476E-01
462.29	3.9681E-01
462.64	4.1994E-01
462.99	4.2425E-01
463.34	4.4845E-01
463.69	4.2048E-01
464.04	3.9238E-01
464.39	4.0748E-01
464.74	4.1312E-01
465.09	4.2451E-01
465.44	3.9940E-01
465.79	4.1255E-01
466.14	4.1431E-01
466.49	4.0740E-01
466.84	4.0375E-01
467.19	4.1755E-01
467.54	4.1923E-01
467.89	3.9872E-01
468.24	3.7753E-01
468.59	3.9031E-01
468.94	3.8272E-01
469.29	3.8423E-01
469.64	3.9721E-01
469.99	3.8267E-01
470.34	3.7050E-01
470.68	3.9457E-01
471.03	3.8055E-01
471.38	3.8151E-01
471.73	3.6378E-01
472.08	3.5929E-01
472.43	3.4701E-01
472.78	3.6595E-01
473.13	3.6213E-01
473.48	3.5602E-01
473.83	3.4935E-01
474.17	3.5436E-01
474.52	3.5034E-01
474.87	3.3616E-01
475.22	3.4312E-01
475.57	3.2636E-01
475.92	3.1808E-01
476.27	3.2760E-01
476.61	3.1901E-01
476.96	3.1102E-01
477.31	3.0142E-01
477.66	3.0708E-01
478.01	3.0530E-01
478.36	3.0361E-01
478.70	2.9929E-01
479.05	3.0415E-01
479.40	2.9006E-01
479.75	2.8676E-01
480.10	2.8884E-01
480.45	2.8196E-01
480.79	2.8062E-01
481.14	2.8459E-01
481.49	2.7793E-01
481.84	2.7295E-01
482.19	2.7091E-01
482.53	2.7035E-01
482.88	2.6821E-01
483.23	2.6351E-01
483.58	2.5805E-01
483.92	2.6453E-01
484.27	2.5610E-01
484.62	2.5462E-01
484.97	2.4906E-01
485.31	2.4777E-01
485.66	2.5321E-01
486.01	2.5315E-01
486.36	2.4124E-01
486.70	2.4774E-01
487.05	2.4615E-01
487.40	2.4647E-01
487.75	2.3910E-01
488.09	2.3948E-01
488.44	2.4148E-01
488.79	2.3775E-01
489.13	2.3495E-01
489.48	2.3803E-01
489.83	2.3832E-01
490.17	2.3209E-01
490.52	2.3187E-01
490.87	2.3304E-01
491.22	2.3658E-01
491.56	2.3309E-01
491.91	2.3618E-01
492.26	2.3320E-01
492.60	2.3324E-01
492.95	2.3556E-01
493.30	2.3498E-01
493.64	2.3231E-01
493.99	2.3339E-01
494.34	2.3063E-01
494.68	2.2827E-01
495.03	2.3375E-01
495.37	2.3158E-01
495.72	2.3412E-01
496.07	2.2899E-01
496.41	2.3046E-01
496.76	2.2895E-01
497.11	2.3108E-01
497.45	2.3000E-01
497.80	2.3066E-01
498.14	2.3041E-01
498.49	2.3077E-01
498.84	2.3128E-01
499.18	2.3096E-01
499.53	2.3091E-01
499.87	2.2875E-01
500.22	2.3140E-01
500.56	2.3099E-01
500.91	2.3069E-01
501.26	2.3035E-01
501.60	2.2976E-01
501.95	2.2824E-01
502.29	2.3097E-01
502.64	2.2690E-01
502.98	2.3031E-01
503.33	2.2840E-01
503.67	2.2892E-01
504.02	2.2861E-01
504.36	2.2824E-01
504.71	2.2873E-01
505.06	2.2656E-01
505.40	2.2679E-01
505.75	2.2808E-01
506.09	2.2833E-01
506.44	2.2798E-01
506.78	2.2573E-01
507.13	2.2705E-01
507.47	2.2529E-01
507.82	2.2537E-01
508.16	2.2748E-01
508.51	2.2524E-01
508.85	2.2246E-01
509.19	2.2545E-01
509.54	2.2506E-01
509.88	2.2522E-01
510.23	2.2199E-01
510.57	2.2301E-01
510.92	2.2236E-01
511.26	2.2255E-01
511.61	2.2255E-01
511.95	2.2262E-01
512.30	2.2141E-01
512.64	2.2298E-01
512.98	2.1910E-01
513.33	2.2061E-01
513.67	2.2119E-01
514.02	2.2043E-01
514.36	2.1835E-01
514.70	2.1995E-01
515.05	2.1746E-01
515.39	2.1918E-01
515.74	2.1699E-01
516.08	2.1593E-01
516.42	2.1774E-01
516.77	2.1816E-01
517.11	2.1824E-01
517.46	2.1932E-01
517.80	2.1626E-01
518.14	2.1788E-01
518.49	2.1577E-01
518.83	2.1669E-01
519.17	2.1660E-01
519.52	2.1706E-01
519.86	2.1575E-01
520.20	2.1502E-01
520.55	2.1568E-01
520.89	2.1419E-01
521.23	2.1652E-01
521.58	2.1600E-01
521.92	2.1770E-01
522.26	2.1890E-01
522.61	2.1537E-01
522.95	2.1698E-01
523.29	2.1397E-01
523.64	2.1434E-01
523.98	2.1523E-01
524.32	2.1595E-01
524.66	2.1761E-01
525.01	2.1763E-01
525.35	2.1833E-01
525.69	2.1894E-01
526.04	2.1823E-01
526.38	2.1511E-01
526.72	2.1970E-01
527.06	2.1821E-01
527.41	2.2006E-01
527.75	2.2195E-01
528.09	2.2006E-01
528.43	2.2365E-01
528.78	2.2099E-01
529.12	2.2333E-01
529.46	2.2501E-01
529.80	2.2416E-01
530.15	2.2480E-01
530.49	2.2484E-01
530.83	2.2598E-01
531.17	2.2599E-01
531.51	2.2516E-01
531.86	2.2724E-01
532.20	2.2819E-01
532.54	2.2763E-01
532.88	2.2927E-01
533.22	2.3124E-01
533.57	2.3220E-01
533.91	2.3151E-01
534.25	2.3366E-01
534.59	2.3257E-01
534.93	2.3455E-01
535.27	2.3337E-01
535.62	2.3778E-01
535.96	2.3680E-01
536.30	2.3728E-01
536.64	2.3762E-01
536.98	2.3979E-01
537.32	2.3898E-01
537.66	2.3895E-01
538.01	2.4134E-01
538.35	2.4354E-01
538.69	2.4058E-01
539.03	2.4628E-01
539.37	2.4375E-01
539.71	2.4574E-01
540.05	2.4623E-01
540.39	2.4692E-01
540.73	2.4592E-01
541.07	2.4663E-01
541.42	2.4701E-01
541.76	2.4726E-01
542.10	2.4880E-01
542.44	2.4962E-01
542.78	2.4998E-01
543.12	2.4922E-01
543.46	2.5468E-01
543.80	2.5167E-01
544.14	2.5156E-01
544.48	2.5042E-01
544.82	2.5343E-01
545.16	2.5330E-01
545.50	2.5224E-01
545.84	2.5479E-01
546.18	2.5300E-01
546.52	2.5590E-01
546.86	2.5365E-01
547.20	2.5697E-01
547.54	2.6006E-01
547.88	2.5576E-01
548.22	2.5636E-01
548.56	2.5770E-01
548.90	2.5587E-01
549.24	2.5802E-01
549.58	2.5876E-01
549.92	2.5688E-01
550.26	2.6140E-01
550.60	2.5765E-01
550.94	2.5647E-01
551.28	2.5993E-01
551.62	2.5809E-01
551.96	2.6062E-01
552.30	2.6177E-01
552.64	2.6046E-01
552.98	2.6084E-01
553.32	2.6139E-01
553.66	2.5981E-01
554.00	2.6056E-01
554.34	2.6132E-01
554.68	2.6227E-01
555.02	2.6267E-01
555.36	2.6366E-01
555.69	2.6239E-01
556.03	2.6223E-01
556.37	2.6343E-01
556.71	2.6111E-01
557.05	2.6080E-01
557.39	2.6136E-01
557.73	2.6182E-01
558.07	2.6386E-01
558.41	2.6236E-01
558.75	2.6306E-01
559.08	2.6308E-01
559.42	2.6075E-01
559.76	2.6489E-01
560.10	2.6451E-01
560.44	2.6433E-01
560.78	2.6175E-01
561.12	2.6331E-01
561.45	2.6319E-01
561.79	2.6421E-01
562.13	2.6421E-01
562.47	2.6436E-01
562.81	2.6458E-01
563.15	2.6460E-01
563.48	2.6510E-01
563.82	2.6192E-01
564.16	2.6417E-01
564.50	2.6438E-01
564.84	2.6502E-01
565.17	2.6507E-01
565.51	2.6459E-01
565.85	2.6650E-01
566.19	2.6336E-01
566.52	2.6700E-01
566.86	2.6406E-01
567.20	2.6676E-01
567.54	2.6555E-01
567.88	2.6607E-01
568.21	2.6582E-01
568.55	2.6740E-01
568.89	2.6738E-01
569.23	2.6714E-01
569.56	2.6656E-01
569.90	2.6780E-01
570.24	2.6955E-01
570.57	2.6939E-01
570.91	2.6994E-01
571.25	2.6620E-01
571.59	2.6952E-01
571.92	2.6911E-01
572.26	2.7037E-01
572.60	2.7272E-01
572.93	2.7119E-01
573.27	2.7355E-01
573.61	2.7408E-01
573.95	2.6985E-01
574.28	2.7441E-01
574.62	2.7464E-01
574.96	2.7478E-01
575.29	2.7404E-01
575.63	2.7857E-01
575.97	2.7788E-01
576.30	2.8412E-01
576.64	2.8067E-01
576.98	2.8003E-01
577.31	2.8141E-01
577.65	2.8416E-01
577.98	2.8210E-01
578.32	2.8491E-01
578.66	2.8621E-01
578.99	2.8652E-01
579.33	2.8781E-01
579.67	2.8600E-01
580.00	2.8959E-01
580.34	2.8919E-01
580.67	2.9060E-01
581.01	2.9296E-01
581.35	2.9394E-01
581.68	2.9511E-01
582.02	2.9400E-01
582.35	2.9644E-01
582.69	2.9668E-01
583.02	3.0096E-01
583.36	2.9783E-01
583.70	2.9734E-01
584.03	2.9942E-01
584.37	2.9768E-01
584.70	3.0411E-01
585.04	3.0398E-01
585.37	3.0214E-01
585.71	3.0716E-01
586.04	3.0640E-01
586.38	3.0401E-01
586.72	3.0824E-01
587.05	3.0945E-01
587.39	3.1113E-01
587.72	3.0896E-01
588.06	3.1148E-01
588.39	3.1104E-01
588.73	3.1407E-01
589.06	3.1203E-01
589.40	3.1673E-01
589.73	3.1826E-01
590.07	3.1894E-01
590.40	3.1944E-01
590.73	3.2327E-01
591.07	3.1955E-01
591.40	3.2628E-01
591.74	3.1930E-01
592.07	3.2376E-01
592.41	3.2527E-01
592.74	3.2629E-01
593.08	3.2416E-01
593.41	3.2641E-01
593.75	3.2418E-01
594.08	3.2885E-01
594.41	3.2757E-01
594.75	3.2884E-01
595.08	3.2837E-01
595.42	3.2460E-01
595.75	3.3008E-01
596.09	3.3008E-01
596.42	3.2853E-01
596.75	3.3240E-01
597.09	3.3436E-01
597.42	3.3057E-01
597.75	3.3451E-01
598.09	3.3535E-01
598.42	3.3298E-01
598.76	3.3505E-01
599.09	3.3936E-01
599.42	3.3912E-01
599.76	3.3725E-01
600.09	3.3638E-01
600.42	3.4197E-01
600.76	3.3519E-01
601.09	3.3903E-01
601.42	3.4247E-01
601.76	3.3845E-01
602.09	3.3774E-01
602.42	3.3985E-01
602.76	3.3860E-01
603.09	3.3813E-01
603.42	3.4413E-01
603.76	3.4012E-01
604.09	3.4023E-01
604.42	3.4297E-01
604.76	3.4012E-01
605.09	3.4547E-01
605.42	3.4211E-01
605.75	3.4371E-01
606.09	3.4180E-01
606.42	3.4319E-01
606.75	3.4488E-01
607.09	3.4533E-01
607.42	3.4593E-01
607.75	3.4616E-01
608.08	3.4492E-01
608.42	3.4807E-01
608.75	3.4407E-01
609.08	3.4831E-01
609.41	3.4769E-01
609.75	3.4608E-01
610.08	3.4773E-01
610.41	3.4992E-01
610.74	3.4896E-01
611.07	3.4879E-01
611.41	3.4842E-01
611.74	3.4969E-01
612.07	3.5169E-01
612.40	3.4656E-01
612.73	3.5032E-01
613.07	3.5220E-01
613.40	3.4840E-01
613.73	3.4710E-01
614.06	3.5033E-01
614.39	3.5136E-01
614.72	3.5291E-01
615.06	3.5220E-01
615.39	3.5663E-01
615.72	3.5081E-01
616.05	3.5428E-01
616.38	3.5488E-01
616.71	3.5565E-01
617.05	3.5376E-01
617.38	3.5594E-01
617.71	3.5383E-01
618.04	3.5516E-01
618.37	3.5344E-01
618.70	3.5460E-01
619.03	3.5606E-01
619.36	3.5044E-01
619.69	3.5774E-01
620.03	3.5378E-01
620.36	3.5459E-01
620.69	3.5281E-01
621.02	3.5586E-01
621.35	3.5491E-01
621.68	3.5149E-01
622.01	3.5085E-01
622.34	3.5240E-01
622.67	3.5178E-01
623.00	3.5316E-01
623.33	3.5403E-01
623.66	3.5149E-01
623.99	3.5241E-01
624.32	3.5117E-01
624.65	3.5192E-01
624.99	3.5179E-01
625.32	3.5302E-01
625.65	3.5277E-01
625.98	3.4732E-01
626.31	3.5240E-01
626.64	3.5277E-01
626.97	3.5330E-01
627.30	3.5067E-01
627.63	3.5219E-01
627.96	3.4929E-01
628.29	3.4905E-01
628.62	3.5308E-01
628.95	3.5273E-01
629.28	3.4718E-01
629.61	3.5798E-01
629.94	3.5294E-01
630.26	3.5351E-01
630.59	3.5562E-01
630.92	3.5342E-01
631.25	3.5514E-01
631.58	3.5928E-01
631.91	3.5415E-01
632.24	3.6135E-01
632.57	3.5754E-01
632.90	3.5851E-01
633.23	3.5865E-01
633.56	3.6087E-01
633.89	3.6139E-01
634.22	3.6227E-01
634.55	3.6378E-01
634.88	3.6770E-01
635.20	3.6698E-01
635.53	3.6961E-01
635.86	3.6994E-01
636.19	3.7400E-01
636.52	3.7475E-01
636.85	3.7207E-01
637.18	3.7636E-01
637.51	3.7356E-01
637.83	3.7747E-01
638.16	3.7382E-01
638.49	3.8504E-01
638.82	3.8338E-01
639.15	3.8629E-01
639.48	3.8929E-01
639.81	3.9116E-01
640.13	3.8799E-01
640.46	3.9331E-01
640.79	3.9321E-01
641.12	3.9681E-01
641.45	3.9647E-01
641.77	3.9364E-01
642.10	4.0284E-01
642.43	4.0382E-01
642.76	4.0576E-01
643.09	4.0342E-01
643.41	4.0634E-01
643.74	4.0683E-01
644.07	4.0678E-01
644.40	4.1068E-01
644.73	4.1470E-01
645.05	4.1621E-01
645.38	4.1866E-01
645.71	4.2010E-01
646.04	4.2023E-01
646.36	4.1954E-01
646.69	4.2584E-01
647.02	4.2582E-01
647.35	4.2362E-01
647.67	4.2924E-01
648.00	4.2806E-01
648.33	4.3325E-01
648.66	4.3029E-01
648.98	4.3624E-01
649.31	4.3551E-01
649.64	4.3727E-01
649.96	4.4124E-01
650.29	4.4369E-01
650.62	4.4458E-01
650.94	4.4367E-01
651.27	4.4327E-01
651.60	4.4428E-01
651.92	4.5197E-01
652.25	4.5273E-01
652.58	4.5200E-01
652.90	4.5391E-01
653.23	4.5439E-01
653.56	4.5592E-01
653.88	4.5767E-01
654.21	4.5782E-01
654.54	4.5974E-01
654.86	4.6585E-01
655.19	4.6058E-01
655.52	4.6773E-01
655.84	4.6610E-01
656.17	4.6875E-01
656.49	4.7373E-01
656.82	4.6878E-01
657.15	4.7410E-01
657.47	4.7427E-01
657.80	4.7443E-01
658.13	4.7624E-01
658.45	4.7866E-01
658.78	4.7777E-01
659.10	4.8390E-01
659.43	4.8326E-01
659.75	4.8199E-01
660.08	4.7995E-01
660.41	4.8638E-01
660.73	4.8658E-01
661.06	4.9020E-01
661.38	4.8856E-01
661.71	4.9060E-01
662.03	4.9064E-01
662.36	4.9714E-01
662.68	4.9544E-01
663.01	4.8993E-01
663.33	4.9414E-01
663.66	4.9775E-01
663.98	4.9517E-01
664.31	4.9572E-01
664.63	5.0503E-01
664.96	5.0196E-01
665.28	5.0585E-01
665.61	5.0451E-01
665.93	5.0539E-01
666.26	5.0841E-01
666.58	5.0921E-01
666.91	5.0567E-01
667.23	5.1103E-01
667.56	5.0486E-01
667.88	5.1333E-01
668.21	5.1246E-01
668.53	5.1049E-01
668.86	5.2019E-01
669.18	5.1296E-01
669.50	5.2426E-01
669.83	5.2284E-01
670.15	5.2453E-01
670.48	5.2336E-01
670.80	5.2085E-01
671.13	5.1892E-01
671.45	5.2513E-01
671.77	5.2793E-01
672.10	5.2430E-01
672.42	5.3214E-01
672.75	5.2919E-01
673.07	5.3357E-01
673.39	5.2899E-01
673.72	5.3268E-01
674.04	5.3702E-01
674.37	5.4033E-01
674.69	5.3708E-01
675.01	5.4186E-01
675.34	5.4350E-01
675.66	5.4501E-01
675.98	5.3945E-01
676.31	5.4858E-01
676.63	5.5036E-01
676.95	5.4707E-01
677.28	5.5007E-01
677.60	5.4699E-01
677.92	5.4106E-01
678.25	5.4503E-01
678.57	5.4744E-01
678.89	5.4468E-01
679.22	5.5018E-01
679.54	5.4878E-01
679.86	5.4800E-01
680.18	5.6203E-01
680.51	5.6063E-01
680.83	5.5926E-01
681.15	5.5083E-01
681.48	5.5718E-01
681.80	5.5905E-01
682.12	5.5648E-01
682.44	5.7274E-01
682.77	5.6770E-01
683.09	5.6892E-01
683.41	5.7356E-01
683.73	5.7101E-01
684.06	5.6849E-01
684.38	5.6825E-01
684.70	5.6987E-01
685.02	5.7526E-01
685.34	5.7998E-01
685.67	5.7766E-01
685.99	5.8359E-01
686.31	5.8228E-01
686.63	5.7937E-01
686.96	5.6749E-01
687.28	5.6301E-01
687.60	5.5542E-01
687.92	5.5916E-01
688.24	5.7184E-01
688.56	5.7535E-01
688.89	5.7832E-01
689.21	5.6204E-01
689.53	5.6609E-01
689.85	5.7573E-01
690.17	5.7851E-01
690.49	5.8660E-01
690.82	5.9104E-01
691.14	5.9679E-01
691.46	6.0589E-01
691.78	6.1075E-01
692.10	6.0789E-01
692.42	6.2030E-01
692.74	6.2345E-01
693.06	6.1779E-01
693.39	6.2080E-01
693.71	6.1068E-01
694.03	6.0636E-01
694.35	6.0568E-01
694.67	6.0836E-01
694.99	6.1788E-01
695.31	6.2345E-01
695.63	6.2889E-01
695.95	6.3812E-01
696.27	6.5033E-01
696.59	6.6027E-01
696.91	6.7960E-01
697.23	6.8084E-01
697.56	6.8123E-01
697.88	6.8921E-01
698.20	6.8764E-01
698.52	6.9327E-01
698.84	6.9634E-01
699.16	7.0375E-01
699.48	6.9290E-01
699.80	6.9721E-01
700.12	7.0048E-01
700.44	6.9804E-01
700.76	6.9919E-01
701.08	7.0642E-01
701.40	7.0694E-01
701.72	7.1973E-01
702.04	7.1628E-01
702.36	7.2337E-01
702.68	7.2705E-01
703.00	7.3463E-01
703.32	7.4103E-01
703.64	7.4762E-01
703.96	7.4314E-01
704.28	7.5494E-01
704.60	7.6431E-01
704.91	7.6703E-01
705.23	7.6900E-01
705.55	7.7784E-01
705.87	7.7197E-01
706.19	7.7503E-01
706.51	7.8048E-01
706.83	7.8384E-01
707.15	8.0392E-01
707.47	7.8694E-01
707.79	8.0165E-01
708.11	8.0346E-01
708.43	8.0718E-01
708.74	8.1428E-01
709.06	8.2560E-01
709.38	8.1967E-01
709.70	8.1481E-01
710.02	8.2552E-01
710.34	8.2271E-01
710.66	8.4287E-01
710.98	8.3823E-01
711.29	8.3703E-01
711.61	8.5215E-01
711.93	8.5650E-01
712.25	8.4926E-01
712.57	8.6146E-01
712.89	8.6470E-01
713.20	8.6569E-01
713.52	8.7468E-01
713.84	8.8181E-01
714.16	8.7546E-01
714.48	8.7850E-01
714.80	8.9337E-01
715.11	8.9143E-01
715.43	9.0519E-01
715.75	9.1047E-01
716.07	9.2111E-01
716.39	9.0055E-01
716.70	8.5882E-01
717.02	8.3317E-01
717.34	8.0383E-01
717.66	6.7267E-01
717.97	5.9638E-01
718.29	5.7067E-01
718.61	7.6150E-01
718.93	5.3645E-01
719.24	5.2255E-01
719.56	5.1900E-01
719.88	5.0757E-01
720.20	5.0041E-01
720.51	5.1639E-01
720.83	5.4405E-01
721.15	5.9956E-01
721.46	6.5546E-01
721.78	6.9842E-01
722.10	7.3956E-01
722.42	7.5999E-01
722.73	7.5894E-01
723.05	7.3552E-01
723.37	7.0072E-01
723.68	6.5517E-01
724.00	6.2240E-01
724.32	6.0595E-01
724.63	5.9173E-01
724.95	5.7640E-01
725.27	5.7977E-01
725.58	5.8516E-01
725.90	6.0185E-01
726.22	5.8269E-01
726.53	5.8724E-01
726.85	5.9771E-01
727.16	6.3200E-01
727.48	5.9960E-01
727.80	5.6833E-01
728.11	5.7485E-01
728.43	5.9275E-01
728.74	6.2434E-01
729.06	5.8274E-01
729.38	5.6829E-01
729.69	5.6430E-01
730.01	5.7467E-01
730.32	5.7443E-01
730.64	5.7056E-01
730.96	5.5295E-01
731.27	5.6236E-01
731.59	5.5150E-01
731.90	5.7233E-01
732.22	6.0527E-01
732.53	6.2719E-01
732.85	6.4216E-01
733.16	6.5675E-01
733.48	6.6654E-01
733.80	6.7777E-01
734.11	6.9703E-01
734.43	6.9864E-01
734.74	6.9693E-01
735.06	6.9425E-01
735.37	6.9029E-01
735.69	6.8964E-01
736.00	6.8149E-01
736.32	6.6438E-01
736.63	7.6507E-01
736.95	6.6557E-01
737.26	6.8355E-01
737.58	6.8540E-01
737.89	6.8841E-01
738.21	7.0068E-01
738.52	6.9341E-01
738.83	6.9145E-01
739.15	7.0557E-01
739.46	7.6798E-01
739.78	7.0236E-01
740.09	7.2201E-01
740.41	7.2991E-01
740.72	7.4061E-01
741.04	7.3163E-01
741.35	7.4859E-01
741.66	7.4141E-01
741.98	7.4441E-01
742.29	7.6664E-01
742.61	7.6182E-01
742.92	7.7184E-01
743.23	7.7899E-01
743.55	8.0391E-01
743.86	7.8657E-01
744.18	7.9731E-01
744.49	8.0276E-01
744.80	8.2085E-01
745.12	8.1277E-01
745.43	8.2597E-01
745.74	8.1638E-01
746.06	8.2748E-01
746.37	8.4067E-01
746.68	8.4180E-01
747.00	8.3183E-01
747.31	8.4615E-01
747.62	8.3155E-01
747.94	8.3503E-01
748.25	8.4619E-01
748.56	8.4222E-01
748.88	8.4182E-01
749.19	8.3850E-01
749.50	8.4131E-01
749.82	8.4775E-01
750.13	8.4098E-01
750.44	8.5079E-01
750.75	8.3126E-01
751.07	8.4458E-01
751.38	8.4991E-01
751.69	8.3859E-01
752.01	8.5113E-01
752.32	8.5085E-01
752.63	8.7058E-01
752.94	8.5814E-01
753.26	8.5554E-01
753.57	8.6093E-01
753.88	8.6879E-01
754.19	9.1547E-01
754.51	8.5826E-01
754.82	9.3830E-01
755.13	8.8277E-01
755.44	8.6761E-01
755.75	8.8243E-01
756.07	8.7524E-01
756.38	8.6877E-01
756.69	8.9668E-01
757.00	8.6625E-01
757.31	8.7287E-01
757.63	8.8997E-01
757.94	8.8160E-01
758.25	8.7414E-01
758.56	8.6824E-01
758.87	8.8269E-01
759.18	8.1027E-01
759.50	7.1336E-01
759.81	5.9938E-01
760.12	4.1775E-01
760.43	3.2158E-01
760.74	2.7059E-01
761.05	2.4441E-01
761.36	2.8387E-01
761.67	3.5768E-01
761.99	3.9752E-01
762.30	4.2539E-01
762.61	4.1144E-01
762.92	3.8071E-01
763.23	3.8490E-01
763.54	3.8302E-01
763.85	3.9713E-01
764.16	4.0848E-01
764.47	5.2582E-01
764.78	4.6680E-01
765.10	5.4432E-01
765.41	5.3186E-01
765.72	6.2764E-01
766.03	5.9649E-01
766.34	6.3277E-01
766.65	6.7792E-01
766.96	7.7797E-01
767.27	7.4932E-01
767.58	7.7595E-01
767.89	8.1210E-01
768.20	8.3593E-01
768.51	8.3102E-01
768.82	8.5102E-01
769.13	8.9143E-01
769.44	8.7255E-01
769.75	9.0447E-01
770.06	8.8035E-01
770.37	8.9234E-01
770.68	9.1657E-01
770.99	9.1125E-01
771.30	9.0929E-01
771.61	9.2246E-01
771.92	9.2100E-01
772.23	9.4780E-01
772.54	9.3153E-01
772.85	9.2704E-01
773.16	9.2302E-01
773.47	9.5534E-01
773.78	9.5712E-01
774.09	9.5980E-01
774.39	9.6955E-01
774.70	9.3910E-01
775.01	9.5971E-01
775.32	9.4439E-01
775.63	9.7714E-01
775.94	9.5435E-01
776.25	9.6108E-01
776.56	9.5903E-01
776.87	9.7067E-01
777.18	9.7188E-01
777.48	9.8948E-01
777.79	9.5984E-01
778.10	9.9175E-01
778.41	9.9416E-01
778.72	9.7364E-01
779.03	9.8861E-01
779.34	1.0006E00
779.65	9.9678E-01
779.95	1.0081E00
780.26	9.7464E-01
780.57	1.0220E00
780.88	9.9828E-01
781.19	1.0181E00
781.50	1.0120E00
781.80	1.0037E00
782.11	1.0049E00
782.42	1.0086E00
782.73	1.0137E00
783.04	1.0145E00
783.34	1.0019E00
783.65	9.9805E-01
783.96	1.0163E00
784.27	1.0130E00
784.57	1.0326E00
784.88	1.0114E00
785.19	1.0554E00
785.50	1.0407E00
785.81	1.0231E00
786.11	1.0136E00
786.42	9.9705E-01
786.73	1.0033E00
787.04	1.0347E00
787.34	1.0021E00
787.65	9.8953E-01
787.96	9.9450E-01
788.26	9.7657E-01
788.57	1.0152E00
788.88	9.6833E-01
789.19	9.5880E-01
789.49	9.6725E-01
789.80	1.0095E00
790.11	9.6387E-01
790.41	9.6227E-01
790.72	1.0040E00
791.03	9.7261E-01
791.33	9.7096E-01
791.64	9.9001E-01
791.95	9.8658E-01
792.25	1.0123E00
792.56	9.7828E-01
792.87	1.0407E00
793.17	9.9141E-01
793.48	1.0414E00
793.79	1.0421E00
794.09	1.0540E00
794.40	1.0831E00
794.70	1.0645E00
795.01	1.1016E00
795.32	1.0494E00
795.62	1.0887E00
795.93	1.0206E00
796.23	1.0305E00
796.54	9.9751E-01
796.85	1.0178E00
797.15	1.0143E00
797.46	1.0288E00
797.76	1.0362E00
798.07	1.0920E00
798.37	1.0784E00
798.68	1.0685E00
798.99	1.0649E00
799.29	1.0573E00
799.60	1.0846E00
799.90	1.0398E00
800.21	1.0360E00
800.51	1.0401E00
800.82	1.0927E00
801.12	1.0614E00
801.43	1.0683E00
801.73	1.0545E00
802.04	1.0366E00
802.34	1.0208E00
802.65	1.0624E00
802.95	1.0508E00
803.26	1.0731E00
803.56	1.0347E00
803.87	1.0353E00
804.17	1.0360E00
804.48	1.0374E00
804.78	1.0938E00
805.09	1.0748E00
805.39	1.1159E00
805.70	1.1281E00
806.00	1.1117E00
806.30	1.1357E00
806.61	1.1259E00
806.91	1.1185E00
807.22	1.1671E00
807.52	1.1589E00
807.83	1.1353E00
808.13	1.1578E00
808.43	1.1451E00
808.74	1.1824E00
809.04	1.1131E00
809.35	1.0938E00
809.65	1.1193E00
809.95	1.0799E00
810.26	1.0484E00
810.56	1.0772E00
810.86	1.0987E00
811.17	1.0431E00
811.47	1.0368E00
811.77	9.9908E-01
812.08	9.8010E-01
812.38	9.8710E-01
812.69	9.4482E-01
812.99	9.8782E-01
813.29	9.2615E-01
813.59	8.7501E-01
813.90	8.7835E-01
814.20	8.6409E-01
814.50	8.4982E-01
814.81	8.3817E-01
815.11	8.0622E-01
815.41	7.6485E-01
815.72	7.6285E-01
816.02	7.2114E-01
816.32	6.9937E-01
816.62	6.8524E-01
816.93	7.3476E-01
817.23	7.1104E-01
817.53	6.9579E-01
817.84	7.1693E-01
818.14	7.0241E-01
818.44	7.4986E-01
818.74	8.1889E-01
819.04	7.5033E-01
819.35	7.4240E-01
819.65	7.6018E-01
819.95	7.4630E-01
820.25	7.8979E-01
820.56	8.3943E-01
820.86	8.7141E-01
821.16	9.2215E-01
821.46	8.8219E-01
821.76	8.9274E-01
822.07	9.6887E-01
822.37	8.6358E-01
822.67	9.7979E-01
822.97	8.7702E-01
823.27	7.4488E-01
823.57	6.9631E-01
823.88	7.2043E-01
824.18	7.4031E-01
824.48	7.6616E-01
824.78	7.9077E-01
825.08	8.5768E-01
825.38	8.9159E-01
825.69	8.3186E-01
825.99	8.4877E-01
826.29	8.5104E-01
826.59	8.4787E-01
826.89	8.5802E-01
827.19	9.7853E-01
827.49	8.7037E-01
827.79	8.0699E-01
828.09	7.8622E-01
828.39	7.6960E-01
828.70	7.8727E-01
829.00	8.1709E-01
829.30	7.5692E-01
829.60	7.4639E-01
829.90	8.0910E-01
830.20	7.3301E-01
830.50	7.4716E-01
830.80	8.1456E-01
831.10	7.2606E-01
831.40	7.9317E-01
831.70	7.8333E-01
832.00	8.1493E-01
832.30	7.4379E-01
832.60	7.3372E-01
832.90	7.3986E-01
833.20	7.6903E-01
833.50	7.3807E-01
833.80	7.4113E-01
834.10	7.2493E-01
834.40	8.0044E-01
834.70	7.9335E-01
835.00	7.4219E-01
835.30	7.5325E-01
835.60	7.5912E-01
835.90	7.7713E-01
836.20	7.9676E-01
836.50	7.9203E-01
836.80	9.1029E-01
837.10	1.2015E00
837.40	8.6374E-01
837.70	9.1538E-01
838.00	8.0452E-01
838.30	8.3256E-01
838.60	8.9432E-01
838.90	8.7477E-01
839.19	1.0967E00
839.49	8.3046E-01
839.79	9.0093E-01
840.09	8.2326E-01
840.39	8.9501E-01
840.69	8.8935E-01
840.99	1.0772E00
841.29	9.7644E-01
841.59	8.5573E-01
841.88	8.5286E-01
842.18	9.3292E-01
842.48	8.8852E-01
842.78	8.7114E-01
843.08	8.6338E-01
843.38	8.5612E-01
843.68	1.0195E00
843.97	1.0184E00
844.27	9.2021E-01
844.57	8.8080E-01
844.87	8.8624E-01
845.17	8.7077E-01
845.47	8.5441E-01
845.76	9.5363E-01
846.06	9.7208E-01
846.36	1.3784E00
846.66	9.0927E-01
846.96	9.7979E-01
847.25	9.0387E-01
847.55	8.9633E-01
847.85	9.3873E-01
848.15	8.8858E-01
848.44	9.1364E-01
848.74	8.9966E-01
849.04	8.9964E-01
849.34	9.7268E-01
849.63	8.9103E-01
849.93	8.9382E-01
850.23	9.0798E-01
850.53	8.6310E-01
850.82	9.0477E-01
851.12	8.7401E-01
851.42	9.4816E-01
851.71	9.3000E-01
852.01	8.9648E-01
852.31	9.4008E-01
852.61	9.1043E-01
852.90	9.0203E-01
853.20	1.0075E00
853.50	1.2315E00
853.79	1.1359E00
854.09	9.2466E-01
854.39	8.6608E-01
854.68	9.0358E-01
854.98	8.8493E-01
855.28	9.6703E-01
855.57	1.0861E00
855.87	9.8878E-01
856.17	9.8127E-01
856.46	8.8293E-01
856.76	9.0950E-01
857.05	1.0225E00
857.35	9.4592E-01
857.65	1.1576E00
857.94	1.0613E00
858.24	1.1033E00
858.53	9.9289E-01
858.83	1.3702E00
859.13	9.7693E-01
859.42	9.6134E-01
859.72	1.0823E00
860.01	1.0252E00
860.31	9.7204E-01
860.60	1.0154E00
860.90	1.1360E00
861.20	1.0071E00
861.49	9.7306E-01
861.79	1.0482E00
862.08	1.9685E00
862.38	1.3082E00
862.67	1.0381E00
862.97	1.0131E00
863.26	1.0632E00
863.56	1.2047E00
863.85	1.3677E00
864.15	1.0363E00
864.44	1.0716E00
864.74	1.0817E00
865.03	1.3038E00
865.33	1.2198E00
865.62	1.0605E00
865.92	1.0807E00
866.21	1.0986E00
866.51	1.0811E00
866.80	1.2635E00
867.10	1.3937E00
867.39	1.1559E00
867.69	1.3584E00
867.98	1.0315E00
868.27	1.0403E00
868.57	1.0616E00
868.86	1.2727E00
869.16	1.0667E00
869.45	1.0751E00
869.75	1.0819E00
870.04	1.1048E00
870.33	1.2719E00
870.63	1.0767E00
870.92	1.1451E00
871.22	2.0455E00
871.51	1.1201E00
871.80	1.3026E00
872.10	1.3026E00
>>>>>End Processed Spectral Data<<<<<
