SpectraSuite Data File
++++++++++++++++++++++++++++++++++++
Date: Wed May 13 13:44:44 PDT 2015
User: schluterlab
Dark Spectrum Present: Yes
Reference Spectrum Present: No
Number of Sampled Component Spectra: 1
Spectrometers: USB2E3373
Integration Time (usec): 2200000 (USB2E3373)
Spectra Averaged: 3 (USB2E3373)
Boxcar Smoothing: 0 (USB2E3373)
Correct for Electrical Dark: No (USB2E3373)
Strobe/Lamp Enabled: No (USB2E3373)
Correct for Detector Non-linearity: No (USB2E3373)
Correct for Stray Light: No (USB2E3373)
Number of Pixels in Processed Spectrum: 2048
>>>>>Begin Processed Spectral Data<<<<<
178.53	0.0000E00
178.91	0.0000E00
179.29	0.0000E00
179.67	0.0000E00
180.04	0.0000E00
180.42	0.0000E00
180.80	0.0000E00
181.18	0.0000E00
181.56	0.0000E00
181.94	0.0000E00
182.31	0.0000E00
182.69	0.0000E00
183.07	0.0000E00
183.45	0.0000E00
183.83	0.0000E00
184.20	0.0000E00
184.58	0.0000E00
184.96	0.0000E00
185.34	0.0000E00
185.72	0.0000E00
186.09	0.0000E00
186.47	0.0000E00
186.85	0.0000E00
187.23	0.0000E00
187.61	0.0000E00
187.98	0.0000E00
188.36	0.0000E00
188.74	0.0000E00
189.12	0.0000E00
189.49	0.0000E00
189.87	0.0000E00
190.25	0.0000E00
190.63	0.0000E00
191.00	0.0000E00
191.38	0.0000E00
191.76	0.0000E00
192.14	0.0000E00
192.51	0.0000E00
192.89	0.0000E00
193.27	0.0000E00
193.65	0.0000E00
194.02	0.0000E00
194.40	0.0000E00
194.78	0.0000E00
195.15	0.0000E00
195.53	-0.0000E00
195.91	0.0000E00
196.29	0.0000E00
196.66	0.0000E00
197.04	0.0000E00
197.42	0.0000E00
197.79	0.0000E00
198.17	0.0000E00
198.55	0.0000E00
198.92	0.0000E00
199.30	0.0000E00
199.68	0.0000E00
200.05	0.0000E00
200.43	0.0000E00
200.81	0.0000E00
201.18	0.0000E00
201.56	0.0000E00
201.94	0.0000E00
202.31	-0.0000E00
202.69	0.0000E00
203.07	0.0000E00
203.44	0.0000E00
203.82	0.0000E00
204.19	0.0000E00
204.57	0.0000E00
204.95	0.0000E00
205.32	0.0000E00
205.70	0.0000E00
206.08	0.0000E00
206.45	0.0000E00
206.83	0.0000E00
207.20	0.0000E00
207.58	0.0000E00
207.96	0.0000E00
208.33	0.0000E00
208.71	0.0000E00
209.08	0.0000E00
209.46	0.0000E00
209.84	0.0000E00
210.21	0.0000E00
210.59	0.0000E00
210.96	0.0000E00
211.34	0.0000E00
211.71	0.0000E00
212.09	0.0000E00
212.46	0.0000E00
212.84	0.0000E00
213.22	0.0000E00
213.59	0.0000E00
213.97	0.0000E00
214.34	0.0000E00
214.72	0.0000E00
215.09	0.0000E00
215.47	0.0000E00
215.84	0.0000E00
216.22	0.0000E00
216.59	0.0000E00
216.97	0.0000E00
217.34	0.0000E00
217.72	0.0000E00
218.09	0.0000E00
218.47	0.0000E00
218.84	0.0000E00
219.22	0.0000E00
219.59	0.0000E00
219.97	0.0000E00
220.34	0.0000E00
220.72	0.0000E00
221.09	0.0000E00
221.47	0.0000E00
221.84	0.0000E00
222.22	0.0000E00
222.59	0.0000E00
222.97	0.0000E00
223.34	0.0000E00
223.72	0.0000E00
224.09	0.0000E00
224.46	0.0000E00
224.84	0.0000E00
225.21	0.0000E00
225.59	0.0000E00
225.96	0.0000E00
226.34	0.0000E00
226.71	0.0000E00
227.08	0.0000E00
227.46	0.0000E00
227.83	0.0000E00
228.21	0.0000E00
228.58	0.0000E00
228.95	0.0000E00
229.33	0.0000E00
229.70	0.0000E00
230.08	0.0000E00
230.45	0.0000E00
230.82	0.0000E00
231.20	0.0000E00
231.57	0.0000E00
231.95	0.0000E00
232.32	0.0000E00
232.69	0.0000E00
233.07	0.0000E00
233.44	0.0000E00
233.81	0.0000E00
234.19	0.0000E00
234.56	0.0000E00
234.93	0.0000E00
235.31	0.0000E00
235.68	0.0000E00
236.05	0.0000E00
236.43	0.0000E00
236.80	0.0000E00
237.17	0.0000E00
237.55	0.0000E00
237.92	0.0000E00
238.29	0.0000E00
238.67	0.0000E00
239.04	0.0000E00
239.41	0.0000E00
239.79	0.0000E00
240.16	0.0000E00
240.53	0.0000E00
240.91	0.0000E00
241.28	0.0000E00
241.65	0.0000E00
242.02	0.0000E00
242.40	0.0000E00
242.77	0.0000E00
243.14	0.0000E00
243.51	0.0000E00
243.89	0.0000E00
244.26	0.0000E00
244.63	0.0000E00
245.00	0.0000E00
245.38	0.0000E00
245.75	0.0000E00
246.12	0.0000E00
246.49	0.0000E00
246.87	0.0000E00
247.24	0.0000E00
247.61	0.0000E00
247.98	0.0000E00
248.36	0.0000E00
248.73	0.0000E00
249.10	0.0000E00
249.47	0.0000E00
249.84	0.0000E00
250.22	0.0000E00
250.59	0.0000E00
250.96	0.0000E00
251.33	0.0000E00
251.70	0.0000E00
252.08	0.0000E00
252.45	0.0000E00
252.82	0.0000E00
253.19	0.0000E00
253.56	0.0000E00
253.94	0.0000E00
254.31	0.0000E00
254.68	0.0000E00
255.05	0.0000E00
255.42	0.0000E00
255.79	0.0000E00
256.16	0.0000E00
256.54	0.0000E00
256.91	0.0000E00
257.28	0.0000E00
257.65	0.0000E00
258.02	0.0000E00
258.39	0.0000E00
258.76	0.0000E00
259.14	0.0000E00
259.51	0.0000E00
259.88	0.0000E00
260.25	0.0000E00
260.62	0.0000E00
260.99	0.0000E00
261.36	0.0000E00
261.73	0.0000E00
262.10	0.0000E00
262.47	0.0000E00
262.85	0.0000E00
263.22	0.0000E00
263.59	0.0000E00
263.96	0.0000E00
264.33	0.0000E00
264.70	0.0000E00
265.07	0.0000E00
265.44	0.0000E00
265.81	0.0000E00
266.18	0.0000E00
266.55	0.0000E00
266.92	0.0000E00
267.29	0.0000E00
267.66	0.0000E00
268.03	0.0000E00
268.40	0.0000E00
268.77	0.0000E00
269.14	0.0000E00
269.51	0.0000E00
269.88	0.0000E00
270.25	0.0000E00
270.62	0.0000E00
270.99	0.0000E00
271.36	0.0000E00
271.73	0.0000E00
272.10	0.0000E00
272.47	0.0000E00
272.84	0.0000E00
273.21	0.0000E00
273.58	0.0000E00
273.95	0.0000E00
274.32	0.0000E00
274.69	0.0000E00
275.06	0.0000E00
275.43	0.0000E00
275.80	0.0000E00
276.17	0.0000E00
276.54	0.0000E00
276.91	0.0000E00
277.28	0.0000E00
277.65	0.0000E00
278.02	0.0000E00
278.39	0.0000E00
278.76	0.0000E00
279.13	0.0000E00
279.50	0.0000E00
279.87	0.0000E00
280.23	0.0000E00
280.60	0.0000E00
280.97	0.0000E00
281.34	0.0000E00
281.71	0.0000E00
282.08	0.0000E00
282.45	0.0000E00
282.82	0.0000E00
283.19	0.0000E00
283.56	0.0000E00
283.92	0.0000E00
284.29	0.0000E00
284.66	0.0000E00
285.03	0.0000E00
285.40	0.0000E00
285.77	0.0000E00
286.14	0.0000E00
286.51	0.0000E00
286.87	0.0000E00
287.24	0.0000E00
287.61	0.0000E00
287.98	0.0000E00
288.35	0.0000E00
288.72	0.0000E00
289.08	0.0000E00
289.45	0.0000E00
289.82	0.0000E00
290.19	0.0000E00
290.56	0.0000E00
290.93	0.0000E00
291.29	0.0000E00
291.66	0.0000E00
292.03	0.0000E00
292.40	0.0000E00
292.77	0.0000E00
293.13	0.0000E00
293.50	0.0000E00
293.87	0.0000E00
294.24	0.0000E00
294.60	0.0000E00
294.97	0.0000E00
295.34	0.0000E00
295.71	0.0000E00
296.08	0.0000E00
296.44	0.0000E00
296.81	0.0000E00
297.18	0.0000E00
297.55	0.0000E00
297.91	0.0000E00
298.28	0.0000E00
298.65	0.0000E00
299.02	0.0000E00
299.38	0.0000E00
299.75	0.0000E00
300.12	9.6341E-02
300.48	2.5944E-01
300.85	1.0162E-01
301.22	2.8042E-01
301.59	8.7079E-02
301.95	1.0660E-01
302.32	1.4699E-01
302.69	1.4825E-01
303.05	9.3026E-02
303.42	1.2911E-01
303.79	1.5265E-01
304.15	9.8446E-02
304.52	1.0681E-01
304.89	1.0345E-01
305.25	2.2063E-01
305.62	1.3619E-01
305.99	1.7424E-01
306.35	9.9803E-02
306.72	1.4025E-01
307.09	1.4454E-01
307.45	1.3915E-01
307.82	9.7439E-02
308.19	1.2712E-01
308.55	1.4532E-01
308.92	1.7532E-01
309.29	1.4327E-01
309.65	2.3286E-01
310.02	1.3717E-01
310.38	1.4286E-01
310.75	1.9788E-01
311.12	1.9886E-01
311.48	3.5220E-01
311.85	2.3467E-01
312.22	1.7191E-01
312.58	3.8412E-01
312.95	2.3632E-01
313.31	2.3360E-01
313.68	3.0885E-01
314.05	5.2277E-01
314.41	2.9134E-01
314.78	1.8230E-01
315.14	3.7171E-01
315.51	6.2070E-01
315.87	2.7508E-01
316.24	4.0747E-01
316.61	3.8973E-01
316.97	2.7679E-01
317.34	4.8803E-01
317.70	3.8635E-01
318.07	3.9118E-01
318.43	4.6868E-01
318.80	3.4970E-01
319.16	4.5275E-01
319.53	3.2540E-01
319.89	6.6543E-01
320.26	5.2379E-01
320.62	6.5163E-01
320.99	5.7871E-01
321.35	3.3589E-01
321.72	4.5898E-01
322.08	7.0871E-01
322.45	4.3874E-01
322.81	4.6678E-01
323.18	1.4797E00
323.54	7.8229E-01
323.91	6.0378E-01
324.27	1.2735E00
324.64	1.0084E00
325.00	7.7504E-01
325.37	1.3200E00
325.73	5.1901E-01
326.10	1.9458E00
326.46	9.3774E-01
326.83	8.2382E-01
327.19	1.7633E00
327.56	6.9458E-01
327.92	9.9532E-01
328.29	7.8076E-01
328.65	9.9833E-01
329.01	1.2286E00
329.38	8.2758E-01
329.74	7.6481E-01
330.11	1.1642E00
330.47	7.7464E-01
330.84	1.0741E00
331.20	1.0745E00
331.56	9.8344E-01
331.93	1.1329E00
332.29	1.0742E00
332.66	7.5117E-01
333.02	8.9765E-01
333.38	1.3622E00
333.75	6.3249E-01
334.11	1.0863E00
334.48	1.0126E00
334.84	9.5326E-01
335.20	1.1947E00
335.57	2.2411E00
335.93	1.4714E00
336.29	1.1069E00
336.66	1.0412E00
337.02	7.4093E-01
337.38	8.8905E-01
337.75	9.1290E-01
338.11	7.9216E-01
338.47	1.1457E00
338.84	9.6699E-01
339.20	8.2067E-01
339.56	2.4632E00
339.93	8.1640E-01
340.29	9.7399E-01
340.65	1.0712E00
341.02	1.8096E00
341.38	1.2181E00
341.74	1.3177E00
342.11	1.3111E00
342.47	1.3290E00
342.83	7.5512E-01
343.20	1.7191E00
343.56	1.0425E00
343.92	1.4578E00
344.28	9.4227E-01
344.65	1.4510E00
345.01	8.5810E-01
345.37	1.4149E00
345.73	1.3024E00
346.10	1.1195E00
346.46	1.3310E00
346.82	1.0199E00
347.19	2.3244E00
347.55	9.5496E-01
347.91	9.6763E-01
348.27	1.0847E00
348.63	9.4088E-01
349.00	9.3426E-01
349.36	1.8817E00
349.72	1.1753E00
350.08	1.7141E00
350.45	9.7992E-01
350.81	9.1276E-01
351.17	1.2007E00
351.53	1.2967E00
351.89	1.0574E00
352.26	1.2136E00
352.62	1.0045E00
352.98	1.1672E00
353.34	1.0320E00
353.70	1.3618E00
354.07	9.9832E-01
354.43	9.4819E-01
354.79	1.1136E00
355.15	8.9039E-01
355.51	8.5086E-01
355.87	9.6215E-01
356.24	1.0029E00
356.60	9.7057E-01
356.96	1.0515E00
357.32	9.4598E-01
357.68	8.8873E-01
358.04	8.0122E-01
358.40	8.8422E-01
358.77	8.2380E-01
359.13	9.7424E-01
359.49	1.0363E00
359.85	1.0067E00
360.21	7.5804E-01
360.57	9.2556E-01
360.93	9.1830E-01
361.29	9.7392E-01
361.66	8.0800E-01
362.02	7.4538E-01
362.38	9.7237E-01
362.74	8.4610E-01
363.10	8.9229E-01
363.46	1.0379E00
363.82	8.8738E-01
364.18	1.0619E00
364.54	1.0081E00
364.90	9.5988E-01
365.26	9.4410E-01
365.62	1.0783E00
365.98	9.3995E-01
366.35	7.5248E-01
366.71	9.1184E-01
367.07	1.1686E00
367.43	7.3903E-01
367.79	1.0554E00
368.15	9.6857E-01
368.51	1.1474E00
368.87	1.0030E00
369.23	1.0734E00
369.59	8.4366E-01
369.95	9.1359E-01
370.31	8.7131E-01
370.67	1.0315E00
371.03	8.6964E-01
371.39	8.4989E-01
371.75	8.5866E-01
372.11	8.8641E-01
372.47	8.1483E-01
372.83	8.2250E-01
373.19	6.8733E-01
373.55	9.0114E-01
373.91	9.1805E-01
374.27	9.9036E-01
374.63	9.6691E-01
374.99	8.7780E-01
375.35	8.4333E-01
375.71	8.5976E-01
376.07	8.6733E-01
376.42	8.5764E-01
376.78	7.7793E-01
377.14	8.8202E-01
377.50	9.6293E-01
377.86	8.2010E-01
378.22	7.7342E-01
378.58	7.7408E-01
378.94	7.5087E-01
379.30	7.8899E-01
379.66	7.7732E-01
380.02	7.6026E-01
380.38	7.3947E-01
380.74	7.7392E-01
381.09	8.1316E-01
381.45	7.4945E-01
381.81	7.2526E-01
382.17	7.6431E-01
382.53	7.9421E-01
382.89	7.1146E-01
383.25	7.4767E-01
383.61	7.4010E-01
383.97	7.1801E-01
384.32	7.1565E-01
384.68	6.8304E-01
385.04	7.5833E-01
385.40	7.8194E-01
385.76	7.7886E-01
386.12	7.3208E-01
386.48	7.4399E-01
386.83	6.9486E-01
387.19	6.9311E-01
387.55	7.7576E-01
387.91	7.4952E-01
388.27	6.9996E-01
388.62	7.8696E-01
388.98	7.1417E-01
389.34	7.9184E-01
389.70	7.1913E-01
390.06	7.4163E-01
390.42	7.4855E-01
390.77	7.3069E-01
391.13	7.4495E-01
391.49	7.3085E-01
391.85	7.7131E-01
392.20	6.8080E-01
392.56	6.9039E-01
392.92	6.9993E-01
393.28	7.0263E-01
393.64	7.3412E-01
393.99	7.4850E-01
394.35	7.3565E-01
394.71	7.2703E-01
395.07	7.1236E-01
395.42	7.1551E-01
395.78	7.2807E-01
396.14	6.5719E-01
396.50	6.5966E-01
396.85	7.2553E-01
397.21	6.9894E-01
397.57	7.1811E-01
397.92	6.7102E-01
398.28	6.4965E-01
398.64	7.7248E-01
399.00	6.2248E-01
399.35	6.4813E-01
399.71	6.9497E-01
400.07	6.7804E-01
400.42	6.6242E-01
400.78	6.7952E-01
401.14	6.8184E-01
401.49	6.3215E-01
401.85	6.2848E-01
402.21	6.3810E-01
402.57	6.3475E-01
402.92	6.6934E-01
403.28	6.3657E-01
403.63	6.3333E-01
403.99	6.4746E-01
404.35	6.2878E-01
404.70	6.1715E-01
405.06	6.2683E-01
405.42	6.4092E-01
405.77	5.9601E-01
406.13	5.9592E-01
406.49	5.9143E-01
406.84	5.9868E-01
407.20	5.8440E-01
407.55	6.2981E-01
407.91	6.4135E-01
408.27	6.0120E-01
408.62	6.0459E-01
408.98	6.1225E-01
409.34	6.2303E-01
409.69	5.9560E-01
410.05	6.2721E-01
410.40	5.9947E-01
410.76	5.5452E-01
411.11	5.5980E-01
411.47	6.0751E-01
411.83	5.7496E-01
412.18	5.8629E-01
412.54	5.7466E-01
412.89	5.7086E-01
413.25	5.9262E-01
413.60	6.1821E-01
413.96	5.7980E-01
414.31	5.8315E-01
414.67	6.1533E-01
415.03	6.0340E-01
415.38	6.1825E-01
415.74	6.1069E-01
416.09	6.0687E-01
416.45	6.1553E-01
416.80	6.0427E-01
417.16	5.9883E-01
417.51	5.9521E-01
417.87	5.7306E-01
418.22	5.6632E-01
418.58	5.7821E-01
418.93	5.5384E-01
419.29	5.9384E-01
419.64	5.7658E-01
420.00	5.4497E-01
420.35	5.3492E-01
420.71	5.6117E-01
421.06	5.6374E-01
421.42	5.7772E-01
421.77	5.6963E-01
422.12	5.6880E-01
422.48	5.3812E-01
422.83	5.7545E-01
423.19	5.4382E-01
423.54	5.4372E-01
423.90	5.5068E-01
424.25	5.1990E-01
424.61	5.7315E-01
424.96	5.3701E-01
425.31	5.3345E-01
425.67	5.1104E-01
426.02	5.3454E-01
426.38	5.3366E-01
426.73	5.0613E-01
427.09	5.2976E-01
427.44	5.0713E-01
427.79	5.1301E-01
428.15	5.2874E-01
428.50	5.2495E-01
428.85	5.3765E-01
429.21	4.9639E-01
429.56	4.8567E-01
429.92	4.9457E-01
430.27	5.1103E-01
430.62	5.1096E-01
430.98	5.1711E-01
431.33	5.0523E-01
431.68	4.8858E-01
432.04	4.8520E-01
432.39	4.9224E-01
432.74	5.0999E-01
433.10	4.7815E-01
433.45	5.0632E-01
433.80	5.0362E-01
434.16	5.1487E-01
434.51	4.9005E-01
434.86	5.0979E-01
435.22	4.9164E-01
435.57	5.2575E-01
435.92	5.1521E-01
436.28	5.1257E-01
436.63	4.7573E-01
436.98	5.0834E-01
437.34	5.0473E-01
437.69	4.8005E-01
438.04	4.6669E-01
438.39	5.0000E-01
438.75	5.1132E-01
439.10	4.6213E-01
439.45	5.0144E-01
439.81	4.9639E-01
440.16	4.6664E-01
440.51	4.8798E-01
440.86	4.8595E-01
441.22	4.7509E-01
441.57	4.7941E-01
441.92	4.6573E-01
442.27	4.8829E-01
442.63	4.7823E-01
442.98	5.1075E-01
443.33	4.9999E-01
443.68	4.6490E-01
444.03	4.3850E-01
444.39	4.4081E-01
444.74	4.7853E-01
445.09	4.8558E-01
445.44	4.8670E-01
445.79	4.2944E-01
446.15	4.6150E-01
446.50	4.7685E-01
446.85	4.4855E-01
447.20	4.3661E-01
447.55	4.7202E-01
447.91	4.5445E-01
448.26	4.6596E-01
448.61	4.6109E-01
448.96	4.5185E-01
449.31	4.5813E-01
449.66	4.6273E-01
450.02	4.5623E-01
450.37	4.5650E-01
450.72	4.4993E-01
451.07	4.8567E-01
451.42	4.8237E-01
451.77	4.5582E-01
452.12	4.5552E-01
452.47	4.7657E-01
452.83	4.3782E-01
453.18	4.6339E-01
453.53	4.5820E-01
453.88	4.3146E-01
454.23	4.2592E-01
454.58	4.2601E-01
454.93	4.5726E-01
455.28	4.5465E-01
455.63	4.4135E-01
455.98	4.3112E-01
456.34	4.5430E-01
456.69	4.4016E-01
457.04	4.4381E-01
457.39	4.1624E-01
457.74	4.2509E-01
458.09	4.1387E-01
458.44	4.1305E-01
458.79	4.0428E-01
459.14	4.1783E-01
459.49	4.3521E-01
459.84	4.1103E-01
460.19	4.3707E-01
460.54	4.3436E-01
460.89	4.0036E-01
461.24	4.3815E-01
461.59	4.1917E-01
461.94	4.2487E-01
462.29	3.9702E-01
462.64	4.1983E-01
462.99	4.2440E-01
463.34	4.4841E-01
463.69	4.2041E-01
464.04	3.9258E-01
464.39	4.0759E-01
464.74	4.1326E-01
465.09	4.2436E-01
465.44	3.9958E-01
465.79	4.1255E-01
466.14	4.1449E-01
466.49	4.0747E-01
466.84	4.0379E-01
467.19	4.1752E-01
467.54	4.1897E-01
467.89	3.9868E-01
468.24	3.7759E-01
468.59	3.9021E-01
468.94	3.8279E-01
469.29	3.8430E-01
469.64	3.9714E-01
469.99	3.8267E-01
470.34	3.7060E-01
470.68	3.9457E-01
471.03	3.8055E-01
471.38	3.8161E-01
471.73	3.6366E-01
472.08	3.5885E-01
472.43	3.4671E-01
472.78	3.6617E-01
473.13	3.6201E-01
473.48	3.5623E-01
473.83	3.4953E-01
474.17	3.5426E-01
474.52	3.5055E-01
474.87	3.3608E-01
475.22	3.4318E-01
475.57	3.2645E-01
475.92	3.1822E-01
476.27	3.2754E-01
476.61	3.1899E-01
476.96	3.1097E-01
477.31	3.0145E-01
477.66	3.0697E-01
478.01	3.0525E-01
478.36	3.0374E-01
478.70	2.9926E-01
479.05	3.0396E-01
479.40	2.9011E-01
479.75	2.8681E-01
480.10	2.8874E-01
480.45	2.8196E-01
480.79	2.8076E-01
481.14	2.8482E-01
481.49	2.7752E-01
481.84	2.7279E-01
482.19	2.7077E-01
482.53	2.7026E-01
482.88	2.6805E-01
483.23	2.6349E-01
483.58	2.5811E-01
483.92	2.6455E-01
484.27	2.5614E-01
484.62	2.5453E-01
484.97	2.4901E-01
485.31	2.4774E-01
485.66	2.5326E-01
486.01	2.5317E-01
486.36	2.4112E-01
486.70	2.4748E-01
487.05	2.4617E-01
487.40	2.4651E-01
487.75	2.3920E-01
488.09	2.3928E-01
488.44	2.4148E-01
488.79	2.3787E-01
489.13	2.3514E-01
489.48	2.3799E-01
489.83	2.3856E-01
490.17	2.3195E-01
490.52	2.3177E-01
490.87	2.3300E-01
491.22	2.3645E-01
491.56	2.3295E-01
491.91	2.3608E-01
492.26	2.3322E-01
492.60	2.3348E-01
492.95	2.3550E-01
493.30	2.3482E-01
493.64	2.3225E-01
493.99	2.3347E-01
494.34	2.3067E-01
494.68	2.2815E-01
495.03	2.3381E-01
495.37	2.3144E-01
495.72	2.3406E-01
496.07	2.2901E-01
496.41	2.3044E-01
496.76	2.2893E-01
497.11	2.3104E-01
497.45	2.3020E-01
497.80	2.3066E-01
498.14	2.3047E-01
498.49	2.3065E-01
498.84	2.3140E-01
499.18	2.3098E-01
499.53	2.3089E-01
499.87	2.2871E-01
500.22	2.3136E-01
500.56	2.3099E-01
500.91	2.3061E-01
501.26	2.3027E-01
501.60	2.2988E-01
501.95	2.2826E-01
502.29	2.3089E-01
502.64	2.2668E-01
502.98	2.3033E-01
503.33	2.2830E-01
503.67	2.2900E-01
504.02	2.2855E-01
504.36	2.2822E-01
504.71	2.2897E-01
505.06	2.2664E-01
505.40	2.2679E-01
505.75	2.2812E-01
506.09	2.2827E-01
506.44	2.2814E-01
506.78	2.2569E-01
507.13	2.2698E-01
507.47	2.2537E-01
507.82	2.2528E-01
508.16	2.2744E-01
508.51	2.2522E-01
508.85	2.2254E-01
509.19	2.2555E-01
509.54	2.2508E-01
509.88	2.2524E-01
510.23	2.2203E-01
510.57	2.2300E-01
510.92	2.2234E-01
511.26	2.2266E-01
511.61	2.2238E-01
511.95	2.2256E-01
512.30	2.2138E-01
512.64	2.2302E-01
512.98	2.1904E-01
513.33	2.2051E-01
513.67	2.2124E-01
514.02	2.2043E-01
514.36	2.1844E-01
514.70	2.1987E-01
515.05	2.1729E-01
515.39	2.1903E-01
515.74	2.1697E-01
516.08	2.1586E-01
516.42	2.1774E-01
516.77	2.1812E-01
517.11	2.1829E-01
517.46	2.1928E-01
517.80	2.1624E-01
518.14	2.1797E-01
518.49	2.1560E-01
518.83	2.1663E-01
519.17	2.1662E-01
519.52	2.1700E-01
519.86	2.1577E-01
520.20	2.1496E-01
520.55	2.1564E-01
520.89	2.1436E-01
521.23	2.1643E-01
521.58	2.1598E-01
521.92	2.1766E-01
522.26	2.1886E-01
522.61	2.1528E-01
522.95	2.1700E-01
523.29	2.1392E-01
523.64	2.1426E-01
523.98	2.1510E-01
524.32	2.1591E-01
524.66	2.1753E-01
525.01	2.1759E-01
525.35	2.1831E-01
525.69	2.1886E-01
526.04	2.1829E-01
526.38	2.1511E-01
526.72	2.1951E-01
527.06	2.1814E-01
527.41	2.2006E-01
527.75	2.2191E-01
528.09	2.2003E-01
528.43	2.2359E-01
528.78	2.2079E-01
529.12	2.2319E-01
529.46	2.2491E-01
529.80	2.2418E-01
530.15	2.2465E-01
530.49	2.2474E-01
530.83	2.2596E-01
531.17	2.2593E-01
531.51	2.2512E-01
531.86	2.2710E-01
532.20	2.2831E-01
532.54	2.2745E-01
532.88	2.2929E-01
533.22	2.3106E-01
533.57	2.3210E-01
533.91	2.3157E-01
534.25	2.3366E-01
534.59	2.3241E-01
534.93	2.3426E-01
535.27	2.3330E-01
535.62	2.3758E-01
535.96	2.3684E-01
536.30	2.3736E-01
536.64	2.3764E-01
536.98	2.3979E-01
537.32	2.3896E-01
537.66	2.3884E-01
538.01	2.4149E-01
538.35	2.4343E-01
538.69	2.4052E-01
539.03	2.4630E-01
539.37	2.4392E-01
539.71	2.4566E-01
540.05	2.4604E-01
540.39	2.4681E-01
540.73	2.4599E-01
541.07	2.4646E-01
541.42	2.4697E-01
541.76	2.4720E-01
542.10	2.4873E-01
542.44	2.4958E-01
542.78	2.4996E-01
543.12	2.4918E-01
543.46	2.5484E-01
543.80	2.5152E-01
544.14	2.5145E-01
544.48	2.5048E-01
544.82	2.5330E-01
545.16	2.5338E-01
545.50	2.5224E-01
545.84	2.5460E-01
546.18	2.5305E-01
546.52	2.5581E-01
546.86	2.5365E-01
547.20	2.5691E-01
547.54	2.5995E-01
547.88	2.5558E-01
548.22	2.5634E-01
548.56	2.5774E-01
548.90	2.5563E-01
549.24	2.5780E-01
549.58	2.5872E-01
549.92	2.5694E-01
550.26	2.6118E-01
550.60	2.5760E-01
550.94	2.5649E-01
551.28	2.5977E-01
551.62	2.5806E-01
551.96	2.6044E-01
552.30	2.6186E-01
552.64	2.6046E-01
552.98	2.6069E-01
553.32	2.6135E-01
553.66	2.5990E-01
554.00	2.6042E-01
554.34	2.6114E-01
554.68	2.6204E-01
555.02	2.6265E-01
555.36	2.6364E-01
555.69	2.6234E-01
556.03	2.6235E-01
556.37	2.6361E-01
556.71	2.6129E-01
557.05	2.6055E-01
557.39	2.6132E-01
557.73	2.6186E-01
558.07	2.6397E-01
558.41	2.6252E-01
558.75	2.6308E-01
559.08	2.6306E-01
559.42	2.6057E-01
559.76	2.6482E-01
560.10	2.6449E-01
560.44	2.6440E-01
560.78	2.6163E-01
561.12	2.6329E-01
561.45	2.6292E-01
561.79	2.6433E-01
562.13	2.6423E-01
562.47	2.6422E-01
562.81	2.6451E-01
563.15	2.6458E-01
563.48	2.6501E-01
563.82	2.6199E-01
564.16	2.6424E-01
564.50	2.6415E-01
564.84	2.6484E-01
565.17	2.6496E-01
565.51	2.6459E-01
565.85	2.6653E-01
566.19	2.6322E-01
566.52	2.6695E-01
566.86	2.6392E-01
567.20	2.6676E-01
567.54	2.6548E-01
567.88	2.6575E-01
568.21	2.6584E-01
568.55	2.6714E-01
568.89	2.6738E-01
569.23	2.6705E-01
569.56	2.6656E-01
569.90	2.6775E-01
570.24	2.6953E-01
570.57	2.6937E-01
570.91	2.6992E-01
571.25	2.6618E-01
571.59	2.6925E-01
571.92	2.6906E-01
572.26	2.7016E-01
572.60	2.7269E-01
572.93	2.7122E-01
573.27	2.7364E-01
573.61	2.7401E-01
573.95	2.6981E-01
574.28	2.7417E-01
574.62	2.7457E-01
574.96	2.7475E-01
575.29	2.7402E-01
575.63	2.7847E-01
575.97	2.7773E-01
576.30	2.8407E-01
576.64	2.8054E-01
576.98	2.8003E-01
577.31	2.8168E-01
577.65	2.8426E-01
577.98	2.8222E-01
578.32	2.8476E-01
578.66	2.8626E-01
578.99	2.8659E-01
579.33	2.8776E-01
579.67	2.8607E-01
580.00	2.8964E-01
580.34	2.8909E-01
580.67	2.9050E-01
581.01	2.9286E-01
581.35	2.9394E-01
581.68	2.9516E-01
582.02	2.9380E-01
582.35	2.9641E-01
582.69	2.9642E-01
583.02	3.0093E-01
583.36	2.9799E-01
583.70	2.9734E-01
584.03	2.9949E-01
584.37	2.9788E-01
584.70	3.0427E-01
585.04	3.0401E-01
585.37	3.0219E-01
585.71	3.0708E-01
586.04	3.0635E-01
586.38	3.0401E-01
586.72	3.0826E-01
587.05	3.0967E-01
587.39	3.1105E-01
587.72	3.0882E-01
588.06	3.1148E-01
588.39	3.1091E-01
588.73	3.1415E-01
589.06	3.1181E-01
589.40	3.1654E-01
589.73	3.1831E-01
590.07	3.1894E-01
590.40	3.1933E-01
590.73	3.2316E-01
591.07	3.1961E-01
591.40	3.2645E-01
591.74	3.1936E-01
592.07	3.2365E-01
592.41	3.2530E-01
592.74	3.2655E-01
593.08	3.2397E-01
593.41	3.2619E-01
593.75	3.2399E-01
594.08	3.2905E-01
594.41	3.2768E-01
594.75	3.2867E-01
595.08	3.2848E-01
595.42	3.2482E-01
595.75	3.3011E-01
596.09	3.3005E-01
596.42	3.2861E-01
596.75	3.3257E-01
597.09	3.3428E-01
597.42	3.3071E-01
597.75	3.3474E-01
598.09	3.3532E-01
598.42	3.3266E-01
598.76	3.3487E-01
599.09	3.3931E-01
599.42	3.3894E-01
599.76	3.3739E-01
600.09	3.3649E-01
600.42	3.4191E-01
600.76	3.3502E-01
601.09	3.3911E-01
601.42	3.4256E-01
601.76	3.3821E-01
602.09	3.3792E-01
602.42	3.3988E-01
602.76	3.3869E-01
603.09	3.3798E-01
603.42	3.4419E-01
603.76	3.4012E-01
604.09	3.4026E-01
604.42	3.4308E-01
604.76	3.4027E-01
605.09	3.4538E-01
605.42	3.4187E-01
605.75	3.4365E-01
606.09	3.4194E-01
606.42	3.4331E-01
606.75	3.4464E-01
607.09	3.4542E-01
607.42	3.4572E-01
607.75	3.4631E-01
608.08	3.4498E-01
608.42	3.4777E-01
608.75	3.4413E-01
609.08	3.4840E-01
609.41	3.4769E-01
609.75	3.4584E-01
610.08	3.4779E-01
610.41	3.5016E-01
610.74	3.4866E-01
611.07	3.4894E-01
611.41	3.4851E-01
611.74	3.4969E-01
612.07	3.5154E-01
612.40	3.4668E-01
612.73	3.5020E-01
613.07	3.5220E-01
613.40	3.4849E-01
613.73	3.4722E-01
614.06	3.5036E-01
614.39	3.5185E-01
614.72	3.5279E-01
615.06	3.5250E-01
615.39	3.5678E-01
615.72	3.5099E-01
616.05	3.5404E-01
616.38	3.5482E-01
616.71	3.5577E-01
617.05	3.5388E-01
617.38	3.5551E-01
617.71	3.5377E-01
618.04	3.5562E-01
618.37	3.5344E-01
618.70	3.5460E-01
619.03	3.5597E-01
619.36	3.5035E-01
619.69	3.5789E-01
620.03	3.5384E-01
620.36	3.5416E-01
620.69	3.5293E-01
621.02	3.5614E-01
621.35	3.5497E-01
621.68	3.5185E-01
622.01	3.5061E-01
622.34	3.5246E-01
622.67	3.5166E-01
623.00	3.5313E-01
623.33	3.5391E-01
623.66	3.5143E-01
623.99	3.5235E-01
624.32	3.5114E-01
624.65	3.5229E-01
624.99	3.5191E-01
625.32	3.5320E-01
625.65	3.5280E-01
625.98	3.4765E-01
626.31	3.5252E-01
626.64	3.5308E-01
626.97	3.5327E-01
627.30	3.5052E-01
627.63	3.5219E-01
627.96	3.4929E-01
628.29	3.4947E-01
628.62	3.5308E-01
628.95	3.5276E-01
629.28	3.4712E-01
629.61	3.5826E-01
629.94	3.5303E-01
630.26	3.5354E-01
630.59	3.5556E-01
630.92	3.5351E-01
631.25	3.5502E-01
631.58	3.5947E-01
631.91	3.5406E-01
632.24	3.6141E-01
632.57	3.5769E-01
632.90	3.5829E-01
633.23	3.5896E-01
633.56	3.6075E-01
633.89	3.6143E-01
634.22	3.6258E-01
634.55	3.6378E-01
634.88	3.6782E-01
635.20	3.6683E-01
635.53	3.6961E-01
635.86	3.6994E-01
636.19	3.7368E-01
636.52	3.7504E-01
636.85	3.7197E-01
637.18	3.7646E-01
637.51	3.7373E-01
637.83	3.7757E-01
638.16	3.7395E-01
638.49	3.8524E-01
638.82	3.8348E-01
639.15	3.8626E-01
639.48	3.8953E-01
639.81	3.9099E-01
640.13	3.8776E-01
640.46	3.9335E-01
640.79	3.9315E-01
641.12	3.9684E-01
641.45	3.9616E-01
641.77	3.9364E-01
642.10	4.0288E-01
642.43	4.0403E-01
642.76	4.0583E-01
643.09	4.0352E-01
643.41	4.0655E-01
643.74	4.0693E-01
644.07	4.0657E-01
644.40	4.1043E-01
644.73	4.1470E-01
645.05	4.1632E-01
645.38	4.1909E-01
645.71	4.2042E-01
646.04	4.2012E-01
646.36	4.1943E-01
646.69	4.2580E-01
647.02	4.2626E-01
647.35	4.2347E-01
647.67	4.2921E-01
648.00	4.2795E-01
648.33	4.3317E-01
648.66	4.3048E-01
648.98	4.3654E-01
649.31	4.3532E-01
649.64	4.3716E-01
649.96	4.4143E-01
650.29	4.4384E-01
650.62	4.4427E-01
650.94	4.4378E-01
651.27	4.4346E-01
651.60	4.4428E-01
651.92	4.5189E-01
652.25	4.5280E-01
652.58	4.5216E-01
652.90	4.5403E-01
653.23	4.5415E-01
653.56	4.5588E-01
653.88	4.5799E-01
654.21	4.5802E-01
654.54	4.6010E-01
654.86	4.6573E-01
655.19	4.6078E-01
655.52	4.6802E-01
655.84	4.6630E-01
656.17	4.6895E-01
656.49	4.7397E-01
656.82	4.6845E-01
657.15	4.7406E-01
657.47	4.7398E-01
657.80	4.7398E-01
658.13	4.7599E-01
658.45	4.7874E-01
658.78	4.7785E-01
659.10	4.8386E-01
659.43	4.8326E-01
659.75	4.8182E-01
660.08	4.7970E-01
660.41	4.8651E-01
660.73	4.8658E-01
661.06	4.9007E-01
661.38	4.8873E-01
661.71	4.9098E-01
662.03	4.9060E-01
662.36	4.9688E-01
662.68	4.9536E-01
663.01	4.8972E-01
663.33	4.9427E-01
663.66	4.9788E-01
663.98	4.9500E-01
664.31	4.9568E-01
664.63	5.0542E-01
664.96	5.0205E-01
665.28	5.0585E-01
665.61	5.0481E-01
665.93	5.0500E-01
666.26	5.0832E-01
666.58	5.0908E-01
666.91	5.0559E-01
667.23	5.1103E-01
667.56	5.0529E-01
667.88	5.1315E-01
668.21	5.1241E-01
668.53	5.1044E-01
668.86	5.2041E-01
669.18	5.1270E-01
669.50	5.2408E-01
669.83	5.2275E-01
670.15	5.2412E-01
670.48	5.2291E-01
670.80	5.2108E-01
671.13	5.1883E-01
671.45	5.2472E-01
671.77	5.2761E-01
672.10	5.2385E-01
672.42	5.3163E-01
672.75	5.2869E-01
673.07	5.3292E-01
673.39	5.2798E-01
673.72	5.3112E-01
674.04	5.3573E-01
674.37	5.3898E-01
674.69	5.3592E-01
675.01	5.4032E-01
675.34	5.4163E-01
675.66	5.4299E-01
675.98	5.3746E-01
676.31	5.4650E-01
676.63	5.4795E-01
676.95	5.4491E-01
677.28	5.4865E-01
677.60	5.4888E-01
677.92	5.4673E-01
678.25	5.5276E-01
678.57	5.5403E-01
678.89	5.5239E-01
679.22	5.6063E-01
679.54	5.5812E-01
679.86	5.5865E-01
680.18	5.6005E-01
680.51	5.6194E-01
680.83	5.6718E-01
681.15	5.6153E-01
681.48	5.6553E-01
681.80	5.6956E-01
682.12	5.6590E-01
682.44	5.7513E-01
682.77	5.7554E-01
683.09	5.7915E-01
683.41	5.7605E-01
683.73	5.8181E-01
684.06	5.8097E-01
684.38	5.8253E-01
684.70	5.8145E-01
685.02	5.8721E-01
685.34	5.9343E-01
685.67	5.8791E-01
685.99	5.9576E-01
686.31	5.9115E-01
686.63	6.0088E-01
686.96	5.9734E-01
687.28	6.0464E-01
687.60	5.9641E-01
687.92	6.0258E-01
688.24	6.0884E-01
688.56	6.1101E-01
688.89	6.1217E-01
689.21	6.0967E-01
689.53	6.1164E-01
689.85	6.2179E-01
690.17	6.1749E-01
690.49	6.2672E-01
690.82	6.2666E-01
691.14	6.2646E-01
691.46	6.3079E-01
691.78	6.3449E-01
692.10	6.2753E-01
692.42	6.3458E-01
692.74	6.3934E-01
693.06	6.4039E-01
693.39	6.5109E-01
693.71	6.5163E-01
694.03	6.5206E-01
694.35	6.5435E-01
694.67	6.5601E-01
694.99	6.6268E-01
695.31	6.6422E-01
695.63	6.6401E-01
695.95	6.6955E-01
696.27	6.6836E-01
696.59	6.7399E-01
696.91	6.8366E-01
697.23	6.8237E-01
697.56	6.8070E-01
697.88	6.8797E-01
698.20	6.8693E-01
698.52	6.9380E-01
698.84	6.9851E-01
699.16	7.0321E-01
699.48	6.9723E-01
699.80	7.0593E-01
700.12	7.1259E-01
700.44	7.1405E-01
700.76	7.1585E-01
701.08	7.1934E-01
701.40	7.2359E-01
701.72	7.3089E-01
702.04	7.3026E-01
702.36	7.3646E-01
702.68	7.3898E-01
703.00	7.4420E-01
703.32	7.4820E-01
703.64	7.4982E-01
703.96	7.4237E-01
704.28	7.5403E-01
704.60	7.6214E-01
704.91	7.6486E-01
705.23	7.6609E-01
705.55	7.7430E-01
705.87	7.6912E-01
706.19	7.7144E-01
706.51	7.7693E-01
706.83	7.8061E-01
707.15	8.0109E-01
707.47	7.8444E-01
707.79	7.9882E-01
708.11	8.0056E-01
708.43	8.0462E-01
708.74	8.1141E-01
709.06	8.2312E-01
709.38	8.1720E-01
709.70	8.1243E-01
710.02	8.2374E-01
710.34	8.2094E-01
710.66	8.4164E-01
710.98	8.3722E-01
711.29	8.3617E-01
711.61	8.5098E-01
711.93	8.5620E-01
712.25	8.4845E-01
712.57	8.6101E-01
712.89	8.6455E-01
713.20	8.6487E-01
713.52	8.7347E-01
713.84	8.8135E-01
714.16	8.7448E-01
714.48	8.7744E-01
714.80	8.9083E-01
715.11	8.8875E-01
715.43	9.0162E-01
715.75	9.0703E-01
716.07	9.1605E-01
716.39	8.9923E-01
716.70	9.1035E-01
717.02	9.0584E-01
717.34	9.3341E-01
717.66	9.2410E-01
717.97	9.3490E-01
718.29	9.4039E-01
718.61	9.5187E-01
718.93	9.5154E-01
719.24	9.5483E-01
719.56	9.7588E-01
719.88	9.6609E-01
720.20	9.7995E-01
720.51	9.9216E-01
720.83	9.8710E-01
721.15	1.0081E00
721.46	1.0040E00
721.78	1.0095E00
722.10	1.0253E00
722.42	1.0344E00
722.73	1.0405E00
723.05	1.0288E00
723.37	1.0420E00
723.68	1.0530E00
724.00	1.0526E00
724.32	1.0711E00
724.63	1.0682E00
724.95	1.0635E00
725.27	1.0744E00
725.58	1.0809E00
725.90	1.0813E00
726.22	1.0982E00
726.53	1.0758E00
726.85	1.0913E00
727.16	1.1141E00
727.48	1.0948E00
727.80	1.1071E00
728.11	1.1125E00
728.43	1.1084E00
728.74	1.1024E00
729.06	1.1248E00
729.38	1.1196E00
729.69	1.1245E00
730.01	1.1327E00
730.32	1.1406E00
730.64	1.1397E00
730.96	1.1285E00
731.27	1.1604E00
731.59	1.1327E00
731.90	1.1467E00
732.22	1.1553E00
732.53	1.1542E00
732.85	1.1680E00
733.16	1.1632E00
733.48	1.1712E00
733.80	1.1649E00
734.11	1.1868E00
734.43	1.1856E00
734.74	1.1837E00
735.06	1.1984E00
735.37	1.2096E00
735.69	1.1928E00
736.00	1.2074E00
736.32	1.2087E00
736.63	1.2163E00
736.95	1.2152E00
737.26	1.2373E00
737.58	1.2362E00
737.89	1.2453E00
738.21	1.2322E00
738.52	1.2400E00
738.83	1.2450E00
739.15	1.2438E00
739.46	1.2608E00
739.78	1.2570E00
740.09	1.2723E00
740.41	1.2651E00
740.72	1.2611E00
741.04	1.2621E00
741.35	1.2639E00
741.66	1.2854E00
741.98	1.2780E00
742.29	1.2865E00
742.61	1.2782E00
742.92	1.2844E00
743.23	1.2834E00
743.55	1.2925E00
743.86	1.2814E00
744.18	1.2895E00
744.49	1.2911E00
744.80	1.2894E00
745.12	1.2905E00
745.43	1.2954E00
745.74	1.2937E00
746.06	1.2857E00
746.37	1.2839E00
746.68	1.2951E00
747.00	1.2922E00
747.31	1.2811E00
747.62	1.2735E00
747.94	1.2937E00
748.25	1.2955E00
748.56	1.2970E00
748.88	1.2785E00
749.19	1.2891E00
749.50	1.2907E00
749.82	1.2831E00
750.13	1.2913E00
750.44	1.2921E00
750.75	1.2773E00
751.07	1.2954E00
751.38	1.3024E00
751.69	1.2769E00
752.01	1.2959E00
752.32	1.2940E00
752.63	1.2959E00
752.94	1.3031E00
753.26	1.3089E00
753.57	1.2956E00
753.88	1.3042E00
754.19	1.3042E00
754.51	1.3083E00
754.82	1.3045E00
755.13	1.3198E00
755.44	1.3186E00
755.75	1.3224E00
756.07	1.3223E00
756.38	1.3357E00
756.69	1.3336E00
757.00	1.3417E00
757.31	1.3579E00
757.63	1.3647E00
757.94	1.3682E00
758.25	1.3819E00
758.56	1.3479E00
758.87	1.3952E00
759.18	1.3978E00
759.50	1.3957E00
759.81	1.3893E00
760.12	1.3984E00
760.43	1.4094E00
760.74	1.4053E00
761.05	1.4326E00
761.36	1.4372E00
761.67	1.4465E00
761.99	1.4582E00
762.30	1.4362E00
762.61	1.4707E00
762.92	1.4680E00
763.23	1.4680E00
763.54	1.4826E00
763.85	1.5089E00
764.16	1.5117E00
764.47	1.5296E00
764.78	1.5403E00
765.10	1.5427E00
765.41	1.5442E00
765.72	1.5539E00
766.03	1.5891E00
766.34	1.6000E00
766.65	1.6117E00
766.96	1.6439E00
767.27	1.6321E00
767.58	1.6330E00
767.89	1.6510E00
768.20	1.6762E00
768.51	1.6759E00
768.82	1.6799E00
769.13	1.7141E00
769.44	1.7354E00
769.75	1.7326E00
770.06	1.7363E00
770.37	1.7362E00
770.68	1.7786E00
770.99	1.7899E00
771.30	1.8007E00
771.61	1.8548E00
771.92	1.8138E00
772.23	1.8380E00
772.54	1.8793E00
772.85	1.8581E00
773.16	1.8771E00
773.47	1.9347E00
773.78	1.9197E00
774.09	1.9511E00
774.39	1.9548E00
774.70	1.9602E00
775.01	1.9990E00
775.32	2.0101E00
775.63	2.0330E00
775.94	2.0528E00
776.25	2.0399E00
776.56	2.0605E00
776.87	2.1163E00
777.18	2.1076E00
777.48	2.1285E00
777.79	2.1480E00
778.10	2.1689E00
778.41	2.1850E00
778.72	2.2096E00
779.03	2.2204E00
779.34	2.2682E00
779.65	2.2684E00
779.95	2.3092E00
780.26	2.2909E00
780.57	2.3319E00
780.88	2.3253E00
781.19	2.3680E00
781.50	2.3701E00
781.80	2.3916E00
782.11	2.3958E00
782.42	2.4547E00
782.73	2.4074E00
783.04	2.5018E00
783.34	2.4995E00
783.65	2.5210E00
783.96	2.5279E00
784.27	2.5441E00
784.57	2.5655E00
784.88	2.5948E00
785.19	2.6057E00
785.50	2.6357E00
785.81	2.6683E00
786.11	2.6319E00
786.42	2.6660E00
786.73	2.6919E00
787.04	2.7238E00
787.34	2.7714E00
787.65	2.7862E00
787.96	2.8492E00
788.26	2.8267E00
788.57	2.8854E00
788.88	2.8533E00
789.19	2.9421E00
789.49	2.9143E00
789.80	2.9643E00
790.11	2.9719E00
790.41	3.0032E00
790.72	3.0363E00
791.03	3.0493E00
791.33	3.0786E00
791.64	3.1460E00
791.95	3.0910E00
792.25	3.1891E00
792.56	3.1603E00
792.87	3.2071E00
793.17	3.2289E00
793.48	3.2453E00
793.79	3.2730E00
794.09	3.3376E00
794.40	3.2903E00
794.70	3.3014E00
795.01	3.3136E00
795.32	3.3595E00
795.62	3.4265E00
795.93	3.4307E00
796.23	3.4434E00
796.54	3.4880E00
796.85	3.4725E00
797.15	3.5161E00
797.46	3.5444E00
797.76	3.6343E00
798.07	3.6203E00
798.37	3.6300E00
798.68	3.6836E00
798.99	3.6832E00
799.29	3.7246E00
799.60	3.7887E00
799.90	3.7833E00
800.21	3.8416E00
800.51	3.8717E00
800.82	3.8631E00
801.12	3.9355E00
801.43	3.9256E00
801.73	4.0067E00
802.04	4.0002E00
802.34	3.9891E00
802.65	4.0393E00
802.95	4.1752E00
803.26	4.1462E00
803.56	4.0732E00
803.87	4.1429E00
804.17	4.1692E00
804.48	4.1656E00
804.78	4.2432E00
805.09	4.3172E00
805.39	4.2921E00
805.70	4.3115E00
806.00	4.3774E00
806.30	4.3753E00
806.61	4.4386E00
806.91	4.4636E00
807.22	4.5087E00
807.52	4.5296E00
807.83	4.5539E00
808.13	4.6027E00
808.43	4.5138E00
808.74	4.6392E00
809.04	4.6798E00
809.35	4.6562E00
809.65	4.7667E00
809.95	4.7918E00
810.26	4.8458E00
810.56	4.8673E00
810.86	4.9330E00
811.17	4.9660E00
811.47	4.9645E00
811.77	4.9590E00
812.08	4.9600E00
812.38	5.1083E00
812.69	5.0010E00
812.99	5.1730E00
813.29	5.1977E00
813.59	5.2392E00
813.90	5.2579E00
814.20	5.2604E00
814.50	5.3328E00
814.81	5.2739E00
815.11	5.3995E00
815.41	5.5325E00
815.72	5.4677E00
816.02	5.5042E00
816.32	5.5197E00
816.62	5.4824E00
816.93	5.5887E00
817.23	5.7618E00
817.53	5.6613E00
817.84	5.7812E00
818.14	5.7777E00
818.44	5.7656E00
818.74	5.9340E00
819.04	6.0385E00
819.35	5.9289E00
819.65	5.9171E00
819.95	6.0357E00
820.25	6.0943E00
820.56	6.1547E00
820.86	6.2441E00
821.16	6.2917E00
821.46	6.2895E00
821.76	6.3149E00
822.07	6.2685E00
822.37	6.3796E00
822.67	6.4915E00
822.97	6.5428E00
823.27	6.5407E00
823.57	6.5608E00
823.88	6.2600E00
824.18	6.4016E00
824.48	6.4870E00
824.78	6.6042E00
825.08	6.6810E00
825.38	6.8135E00
825.69	6.8190E00
825.99	6.9147E00
826.29	6.9714E00
826.59	6.9581E00
826.89	7.0865E00
827.19	6.9253E00
827.49	7.3486E00
827.79	7.0992E00
828.09	6.9236E00
828.39	7.0526E00
828.70	7.0487E00
829.00	7.0343E00
829.30	7.1139E00
829.60	7.2196E00
829.90	7.1274E00
830.20	7.0662E00
830.50	7.3587E00
830.80	7.3847E00
831.10	7.1882E00
831.40	7.3192E00
831.70	7.1814E00
832.00	7.1785E00
832.30	7.2195E00
832.60	7.0340E00
832.90	7.0434E00
833.20	7.1584E00
833.50	7.0134E00
833.80	7.0113E00
834.10	7.0081E00
834.40	7.1073E00
834.70	7.3060E00
835.00	7.2209E00
835.30	7.4350E00
835.60	7.4775E00
835.90	7.5264E00
836.20	7.6947E00
836.50	7.7560E00
836.80	7.9562E00
837.10	8.1401E00
837.40	8.0570E00
837.70	8.0051E00
838.00	7.8985E00
838.30	7.8939E00
838.60	8.0977E00
838.90	8.1286E00
839.19	8.3101E00
839.49	8.2463E00
839.79	8.3265E00
840.09	8.2645E00
840.39	8.3196E00
840.69	8.4168E00
840.99	8.6064E00
841.29	8.6624E00
841.59	8.3793E00
841.88	8.4159E00
842.18	8.5730E00
842.48	8.6527E00
842.78	8.5429E00
843.08	8.7436E00
843.38	8.5172E00
843.68	8.6979E00
843.97	8.7900E00
844.27	8.7072E00
844.57	8.7503E00
844.87	8.7632E00
845.17	8.7345E00
845.47	8.5551E00
845.76	8.8265E00
846.06	8.9911E00
846.36	9.3269E00
846.66	8.9821E00
846.96	8.9587E00
847.25	8.7942E00
847.55	8.8776E00
847.85	8.9889E00
848.15	8.8367E00
848.44	8.9632E00
848.74	8.7584E00
849.04	8.8370E00
849.34	8.9370E00
849.63	8.8998E00
849.93	8.6763E00
850.23	8.7263E00
850.53	8.3347E00
850.82	8.4747E00
851.12	8.3132E00
851.42	8.3686E00
851.71	8.4756E00
852.01	8.4967E00
852.31	8.5649E00
852.61	8.5172E00
852.90	8.5727E00
853.20	8.6722E00
853.50	9.0217E00
853.79	8.9494E00
854.09	8.3539E00
854.39	8.1361E00
854.68	8.2327E00
854.98	7.9487E00
855.28	7.8446E00
855.57	8.0973E00
855.87	8.0361E00
856.17	8.0958E00
856.46	8.0249E00
856.76	8.0915E00
857.05	8.4951E00
857.35	8.5019E00
857.65	8.6928E00
857.94	8.7824E00
858.24	8.9500E00
858.53	8.9320E00
858.83	9.1385E00
859.13	8.9123E00
859.42	8.7378E00
859.72	9.1017E00
860.01	9.1557E00
860.31	8.8490E00
860.60	9.0093E00
860.90	9.0952E00
861.20	9.0009E00
861.49	8.8151E00
861.79	9.1259E00
862.08	9.8839E00
862.38	9.3194E00
862.67	8.9900E00
862.97	8.9945E00
863.26	8.8711E00
863.56	9.3848E00
863.85	9.3347E00
864.15	8.8517E00
864.44	9.2136E00
864.74	9.0956E00
865.03	9.2477E00
865.33	9.1147E00
865.62	9.1084E00
865.92	8.8180E00
866.21	9.1406E00
866.51	8.9584E00
866.80	8.9698E00
867.10	8.9745E00
867.39	8.3340E00
867.69	8.8272E00
867.98	8.1060E00
868.27	8.2195E00
868.57	8.2774E00
868.86	8.8337E00
869.16	8.6636E00
869.45	8.5820E00
869.75	8.3750E00
870.04	8.8197E00
870.33	8.9336E00
870.63	8.6174E00
870.92	9.0831E00
871.22	9.9498E00
871.51	8.8559E00
871.80	8.9660E00
872.10	8.9660E00
>>>>>End Processed Spectral Data<<<<<
