SpectraSuite Data File
++++++++++++++++++++++++++++++++++++
Date: Wed May 13 13:51:31 PDT 2015
User: schluterlab
Dark Spectrum Present: Yes
Reference Spectrum Present: No
Number of Sampled Component Spectra: 1
Spectrometers: USB2E3373
Integration Time (usec): 2200000 (USB2E3373)
Spectra Averaged: 3 (USB2E3373)
Boxcar Smoothing: 0 (USB2E3373)
Correct for Electrical Dark: No (USB2E3373)
Strobe/Lamp Enabled: No (USB2E3373)
Correct for Detector Non-linearity: No (USB2E3373)
Correct for Stray Light: No (USB2E3373)
Number of Pixels in Processed Spectrum: 2048
>>>>>Begin Processed Spectral Data<<<<<
178.53	-0.0000E00
178.91	-0.0000E00
179.29	-0.0000E00
179.67	-0.0000E00
180.04	-0.0000E00
180.42	0.0000E00
180.80	0.0000E00
181.18	0.0000E00
181.56	0.0000E00
181.94	0.0000E00
182.31	0.0000E00
182.69	0.0000E00
183.07	0.0000E00
183.45	0.0000E00
183.83	0.0000E00
184.20	-0.0000E00
184.58	0.0000E00
184.96	0.0000E00
185.34	0.0000E00
185.72	0.0000E00
186.09	0.0000E00
186.47	0.0000E00
186.85	0.0000E00
187.23	0.0000E00
187.61	0.0000E00
187.98	0.0000E00
188.36	0.0000E00
188.74	0.0000E00
189.12	0.0000E00
189.49	0.0000E00
189.87	0.0000E00
190.25	0.0000E00
190.63	0.0000E00
191.00	0.0000E00
191.38	0.0000E00
191.76	0.0000E00
192.14	0.0000E00
192.51	0.0000E00
192.89	0.0000E00
193.27	0.0000E00
193.65	0.0000E00
194.02	0.0000E00
194.40	0.0000E00
194.78	0.0000E00
195.15	0.0000E00
195.53	-0.0000E00
195.91	0.0000E00
196.29	0.0000E00
196.66	0.0000E00
197.04	0.0000E00
197.42	0.0000E00
197.79	0.0000E00
198.17	0.0000E00
198.55	0.0000E00
198.92	0.0000E00
199.30	0.0000E00
199.68	0.0000E00
200.05	0.0000E00
200.43	0.0000E00
200.81	0.0000E00
201.18	0.0000E00
201.56	0.0000E00
201.94	0.0000E00
202.31	-0.0000E00
202.69	0.0000E00
203.07	0.0000E00
203.44	0.0000E00
203.82	0.0000E00
204.19	0.0000E00
204.57	0.0000E00
204.95	0.0000E00
205.32	0.0000E00
205.70	0.0000E00
206.08	0.0000E00
206.45	0.0000E00
206.83	0.0000E00
207.20	0.0000E00
207.58	0.0000E00
207.96	0.0000E00
208.33	0.0000E00
208.71	0.0000E00
209.08	0.0000E00
209.46	0.0000E00
209.84	0.0000E00
210.21	0.0000E00
210.59	0.0000E00
210.96	0.0000E00
211.34	0.0000E00
211.71	0.0000E00
212.09	0.0000E00
212.46	0.0000E00
212.84	0.0000E00
213.22	0.0000E00
213.59	0.0000E00
213.97	0.0000E00
214.34	0.0000E00
214.72	0.0000E00
215.09	0.0000E00
215.47	0.0000E00
215.84	0.0000E00
216.22	0.0000E00
216.59	0.0000E00
216.97	0.0000E00
217.34	0.0000E00
217.72	0.0000E00
218.09	0.0000E00
218.47	0.0000E00
218.84	0.0000E00
219.22	0.0000E00
219.59	0.0000E00
219.97	0.0000E00
220.34	0.0000E00
220.72	0.0000E00
221.09	0.0000E00
221.47	0.0000E00
221.84	0.0000E00
222.22	0.0000E00
222.59	0.0000E00
222.97	0.0000E00
223.34	0.0000E00
223.72	0.0000E00
224.09	0.0000E00
224.46	0.0000E00
224.84	0.0000E00
225.21	0.0000E00
225.59	0.0000E00
225.96	0.0000E00
226.34	0.0000E00
226.71	0.0000E00
227.08	0.0000E00
227.46	0.0000E00
227.83	0.0000E00
228.21	0.0000E00
228.58	0.0000E00
228.95	0.0000E00
229.33	0.0000E00
229.70	0.0000E00
230.08	0.0000E00
230.45	0.0000E00
230.82	0.0000E00
231.20	0.0000E00
231.57	0.0000E00
231.95	0.0000E00
232.32	0.0000E00
232.69	0.0000E00
233.07	0.0000E00
233.44	0.0000E00
233.81	0.0000E00
234.19	0.0000E00
234.56	0.0000E00
234.93	0.0000E00
235.31	0.0000E00
235.68	0.0000E00
236.05	0.0000E00
236.43	0.0000E00
236.80	0.0000E00
237.17	0.0000E00
237.55	0.0000E00
237.92	0.0000E00
238.29	0.0000E00
238.67	0.0000E00
239.04	0.0000E00
239.41	0.0000E00
239.79	0.0000E00
240.16	0.0000E00
240.53	0.0000E00
240.91	0.0000E00
241.28	0.0000E00
241.65	0.0000E00
242.02	0.0000E00
242.40	0.0000E00
242.77	0.0000E00
243.14	0.0000E00
243.51	0.0000E00
243.89	0.0000E00
244.26	0.0000E00
244.63	0.0000E00
245.00	0.0000E00
245.38	0.0000E00
245.75	0.0000E00
246.12	0.0000E00
246.49	0.0000E00
246.87	0.0000E00
247.24	0.0000E00
247.61	0.0000E00
247.98	0.0000E00
248.36	0.0000E00
248.73	0.0000E00
249.10	0.0000E00
249.47	0.0000E00
249.84	0.0000E00
250.22	0.0000E00
250.59	0.0000E00
250.96	0.0000E00
251.33	0.0000E00
251.70	0.0000E00
252.08	0.0000E00
252.45	0.0000E00
252.82	0.0000E00
253.19	0.0000E00
253.56	0.0000E00
253.94	0.0000E00
254.31	0.0000E00
254.68	0.0000E00
255.05	0.0000E00
255.42	0.0000E00
255.79	0.0000E00
256.16	0.0000E00
256.54	0.0000E00
256.91	0.0000E00
257.28	0.0000E00
257.65	0.0000E00
258.02	0.0000E00
258.39	0.0000E00
258.76	0.0000E00
259.14	0.0000E00
259.51	0.0000E00
259.88	0.0000E00
260.25	0.0000E00
260.62	0.0000E00
260.99	0.0000E00
261.36	0.0000E00
261.73	0.0000E00
262.10	0.0000E00
262.47	0.0000E00
262.85	0.0000E00
263.22	0.0000E00
263.59	0.0000E00
263.96	0.0000E00
264.33	0.0000E00
264.70	0.0000E00
265.07	0.0000E00
265.44	0.0000E00
265.81	0.0000E00
266.18	0.0000E00
266.55	0.0000E00
266.92	0.0000E00
267.29	0.0000E00
267.66	0.0000E00
268.03	0.0000E00
268.40	0.0000E00
268.77	0.0000E00
269.14	0.0000E00
269.51	0.0000E00
269.88	0.0000E00
270.25	0.0000E00
270.62	0.0000E00
270.99	0.0000E00
271.36	0.0000E00
271.73	0.0000E00
272.10	0.0000E00
272.47	0.0000E00
272.84	0.0000E00
273.21	0.0000E00
273.58	0.0000E00
273.95	0.0000E00
274.32	0.0000E00
274.69	0.0000E00
275.06	0.0000E00
275.43	0.0000E00
275.80	0.0000E00
276.17	0.0000E00
276.54	0.0000E00
276.91	0.0000E00
277.28	0.0000E00
277.65	0.0000E00
278.02	0.0000E00
278.39	0.0000E00
278.76	0.0000E00
279.13	0.0000E00
279.50	0.0000E00
279.87	0.0000E00
280.23	0.0000E00
280.60	0.0000E00
280.97	0.0000E00
281.34	0.0000E00
281.71	0.0000E00
282.08	0.0000E00
282.45	0.0000E00
282.82	0.0000E00
283.19	0.0000E00
283.56	0.0000E00
283.92	0.0000E00
284.29	0.0000E00
284.66	0.0000E00
285.03	0.0000E00
285.40	0.0000E00
285.77	0.0000E00
286.14	0.0000E00
286.51	0.0000E00
286.87	0.0000E00
287.24	0.0000E00
287.61	0.0000E00
287.98	0.0000E00
288.35	0.0000E00
288.72	0.0000E00
289.08	0.0000E00
289.45	0.0000E00
289.82	0.0000E00
290.19	0.0000E00
290.56	0.0000E00
290.93	0.0000E00
291.29	0.0000E00
291.66	0.0000E00
292.03	0.0000E00
292.40	0.0000E00
292.77	0.0000E00
293.13	0.0000E00
293.50	0.0000E00
293.87	0.0000E00
294.24	0.0000E00
294.60	0.0000E00
294.97	0.0000E00
295.34	0.0000E00
295.71	0.0000E00
296.08	0.0000E00
296.44	0.0000E00
296.81	0.0000E00
297.18	0.0000E00
297.55	0.0000E00
297.91	0.0000E00
298.28	0.0000E00
298.65	0.0000E00
299.02	0.0000E00
299.38	0.0000E00
299.75	0.0000E00
300.12	4.8428E-02
300.48	1.3986E-01
300.85	4.6554E-02
301.22	1.3778E-01
301.59	4.6095E-02
301.95	5.4493E-02
302.32	6.5048E-02
302.69	6.8977E-02
303.05	4.1560E-02
303.42	5.7585E-02
303.79	6.7877E-02
304.15	4.7005E-02
304.52	4.2266E-02
304.89	4.1589E-02
305.25	9.3726E-02
305.62	5.2718E-02
305.99	7.1389E-02
306.35	3.8751E-02
306.72	5.0227E-02
307.09	6.9639E-02
307.45	5.9801E-02
307.82	3.7590E-02
308.19	4.9220E-02
308.55	4.8040E-02
308.92	6.2686E-02
309.29	4.7114E-02
309.65	1.2532E-01
310.02	4.9721E-02
310.38	4.4142E-02
310.75	5.8560E-02
311.12	5.7991E-02
311.48	9.8234E-02
311.85	7.6822E-02
312.22	5.5687E-02
312.58	1.0437E-01
312.95	6.7097E-02
313.31	6.2818E-02
313.68	8.2433E-02
314.05	1.3494E-01
314.41	7.8438E-02
314.78	5.1471E-02
315.14	1.4860E-01
315.51	1.6212E-01
315.87	7.0854E-02
316.24	1.0564E-01
316.61	1.0009E-01
316.97	7.0937E-02
317.34	1.3761E-01
317.70	9.4467E-02
318.07	1.0017E-01
318.43	1.2254E-01
318.80	8.6616E-02
319.16	1.1145E-01
319.53	7.6855E-02
319.89	1.6403E-01
320.26	1.3373E-01
320.62	1.5303E-01
320.99	1.4511E-01
321.35	8.3688E-02
321.72	1.2776E-01
322.08	1.6838E-01
322.45	1.3974E-01
322.81	1.1140E-01
323.18	3.9637E-01
323.54	1.9776E-01
323.91	1.4252E-01
324.27	3.1363E-01
324.64	2.4961E-01
325.00	1.9507E-01
325.37	3.0667E-01
325.73	1.1472E-01
326.10	4.6821E-01
326.46	2.1128E-01
326.83	1.9665E-01
327.19	3.9519E-01
327.56	1.5942E-01
327.92	2.3201E-01
328.29	1.8161E-01
328.65	2.2824E-01
329.01	2.8727E-01
329.38	1.9464E-01
329.74	1.7256E-01
330.11	2.7129E-01
330.47	1.7595E-01
330.84	2.4142E-01
331.20	2.4600E-01
331.56	2.2274E-01
331.93	2.5447E-01
332.29	2.6062E-01
332.66	1.7179E-01
333.02	2.1062E-01
333.38	3.1571E-01
333.75	1.5384E-01
334.11	3.1845E-01
334.48	2.3538E-01
334.84	2.1985E-01
335.20	2.7574E-01
335.57	5.0866E-01
335.93	3.3963E-01
336.29	2.6239E-01
336.66	2.4023E-01
337.02	1.9564E-01
337.38	2.1046E-01
337.75	2.1792E-01
338.11	1.8717E-01
338.47	2.7431E-01
338.84	2.3739E-01
339.20	1.9419E-01
339.56	5.8158E-01
339.93	2.2499E-01
340.29	2.3997E-01
340.65	2.5310E-01
341.02	4.3505E-01
341.38	2.8803E-01
341.74	3.2193E-01
342.11	3.2195E-01
342.47	3.2705E-01
342.83	2.2270E-01
343.20	4.1352E-01
343.56	2.5695E-01
343.92	4.2165E-01
344.28	2.1880E-01
344.65	3.4096E-01
345.01	2.0903E-01
345.37	3.4688E-01
345.73	3.3530E-01
346.10	2.7817E-01
346.46	3.4972E-01
346.82	2.6378E-01
347.19	6.0073E-01
347.55	2.4630E-01
347.91	2.5618E-01
348.27	2.8197E-01
348.63	2.4676E-01
349.00	2.5722E-01
349.36	5.0601E-01
349.72	3.2983E-01
350.08	4.9912E-01
350.45	3.0410E-01
350.81	2.8761E-01
351.17	3.9364E-01
351.53	4.1330E-01
351.89	3.3713E-01
352.26	4.0316E-01
352.62	3.1638E-01
352.98	3.5443E-01
353.34	3.2428E-01
353.70	4.5553E-01
354.07	3.8824E-01
354.43	4.1045E-01
354.79	4.1577E-01
355.15	3.3129E-01
355.51	3.1163E-01
355.87	3.5220E-01
356.24	3.5031E-01
356.60	3.3964E-01
356.96	3.6171E-01
357.32	2.9389E-01
357.68	2.8204E-01
358.04	2.3941E-01
358.40	2.5941E-01
358.77	2.3910E-01
359.13	3.0423E-01
359.49	3.5565E-01
359.85	3.8609E-01
360.21	3.0060E-01
360.57	3.6529E-01
360.93	3.5884E-01
361.29	3.9646E-01
361.66	3.0414E-01
362.02	2.9371E-01
362.38	3.8596E-01
362.74	3.5731E-01
363.10	4.3879E-01
363.46	4.6250E-01
363.82	3.8678E-01
364.18	4.8909E-01
364.54	4.6324E-01
364.90	4.5890E-01
365.26	4.5536E-01
365.62	5.5135E-01
365.98	5.0326E-01
366.35	4.1834E-01
366.71	5.2569E-01
367.07	6.5968E-01
367.43	4.2285E-01
367.79	6.0478E-01
368.15	5.4008E-01
368.51	6.5314E-01
368.87	5.5854E-01
369.23	6.1103E-01
369.59	4.8934E-01
369.95	5.4910E-01
370.31	5.3230E-01
370.67	6.0394E-01
371.03	4.9505E-01
371.39	5.0006E-01
371.75	5.1893E-01
372.11	5.3270E-01
372.47	4.6444E-01
372.83	4.7461E-01
373.19	3.7988E-01
373.55	4.7369E-01
373.91	4.9311E-01
374.27	5.1476E-01
374.63	5.0255E-01
374.99	4.6185E-01
375.35	4.6982E-01
375.71	4.9966E-01
376.07	5.3475E-01
376.42	5.4588E-01
376.78	5.1450E-01
377.14	5.9360E-01
377.50	7.0678E-01
377.86	6.2374E-01
378.22	6.3310E-01
378.58	6.4586E-01
378.94	6.1366E-01
379.30	6.0492E-01
379.66	5.6792E-01
380.02	5.5576E-01
380.38	5.6795E-01
380.74	6.3228E-01
381.09	6.5251E-01
381.45	5.9800E-01
381.81	5.4878E-01
382.17	5.2323E-01
382.53	5.0894E-01
382.89	4.3131E-01
383.25	4.2347E-01
383.61	4.1232E-01
383.97	4.0176E-01
384.32	4.2681E-01
384.68	4.6090E-01
385.04	5.6642E-01
385.40	5.9522E-01
385.76	6.0531E-01
386.12	5.3455E-01
386.48	5.6045E-01
386.83	5.2806E-01
387.19	5.4357E-01
387.55	6.0011E-01
387.91	5.9296E-01
388.27	5.4393E-01
388.62	6.0566E-01
388.98	5.6778E-01
389.34	6.4690E-01
389.70	6.4225E-01
390.06	6.8813E-01
390.42	6.9760E-01
390.77	6.9875E-01
391.13	7.4907E-01
391.49	7.3350E-01
391.85	7.7423E-01
392.20	6.7551E-01
392.56	6.1979E-01
392.92	5.8117E-01
393.28	4.9558E-01
393.64	4.4457E-01
393.99	4.4556E-01
394.35	5.0690E-01
394.71	5.6995E-01
395.07	6.4501E-01
395.42	7.1422E-01
395.78	7.2889E-01
396.14	6.5634E-01
396.50	6.2366E-01
396.85	5.7738E-01
397.21	5.1944E-01
397.57	5.4916E-01
397.92	6.0672E-01
398.28	6.5811E-01
398.64	7.8234E-01
399.00	6.2608E-01
399.35	6.4852E-01
399.71	6.9515E-01
400.07	6.7822E-01
400.42	6.6300E-01
400.78	6.7999E-01
401.14	6.8214E-01
401.49	6.3248E-01
401.85	6.2875E-01
402.21	6.3865E-01
402.57	6.3541E-01
402.92	6.6957E-01
403.28	6.3668E-01
403.63	6.3360E-01
403.99	6.4796E-01
404.35	6.2938E-01
404.70	6.1752E-01
405.06	6.2737E-01
405.42	6.4119E-01
405.77	5.9631E-01
406.13	5.9592E-01
406.49	5.9179E-01
406.84	5.9889E-01
407.20	5.8471E-01
407.55	6.3024E-01
407.91	6.4202E-01
408.27	6.0146E-01
408.62	6.0475E-01
408.98	6.1204E-01
409.34	6.2303E-01
409.69	5.9642E-01
410.05	6.2792E-01
410.40	5.9957E-01
410.76	5.5519E-01
411.11	5.5989E-01
411.47	6.0730E-01
411.83	5.7511E-01
412.18	5.8619E-01
412.54	5.7495E-01
412.89	5.7081E-01
413.25	5.9282E-01
413.60	6.1832E-01
413.96	5.7985E-01
414.31	5.8360E-01
414.67	6.1608E-01
415.03	6.0361E-01
415.38	6.1836E-01
415.74	6.1127E-01
416.09	6.0692E-01
416.45	6.1585E-01
416.80	6.0453E-01
417.16	5.9889E-01
417.51	5.9521E-01
417.87	5.7346E-01
418.22	5.6666E-01
418.58	5.7861E-01
418.93	5.5389E-01
419.29	5.9368E-01
419.64	5.7698E-01
420.00	5.4549E-01
420.35	5.3506E-01
420.71	5.6180E-01
421.06	5.6408E-01
421.42	5.7817E-01
421.77	5.6978E-01
422.12	5.6895E-01
422.48	5.3849E-01
422.83	5.7564E-01
423.19	5.4382E-01
423.54	5.4376E-01
423.90	5.5078E-01
424.25	5.1963E-01
424.61	5.7359E-01
424.96	5.3682E-01
425.31	5.3363E-01
425.67	5.1135E-01
426.02	5.3454E-01
426.38	5.3379E-01
426.73	5.0626E-01
427.09	5.2944E-01
427.44	5.0730E-01
427.79	5.1341E-01
428.15	5.2878E-01
428.50	5.2504E-01
428.85	5.3807E-01
429.21	4.9592E-01
429.56	4.8537E-01
429.92	4.9479E-01
430.27	5.1156E-01
430.62	5.1118E-01
430.98	5.1738E-01
431.33	5.0558E-01
431.68	4.8867E-01
432.04	4.8520E-01
432.39	4.9233E-01
432.74	5.1043E-01
433.10	4.7819E-01
433.45	5.0641E-01
433.80	5.0405E-01
434.16	5.1482E-01
434.51	4.9051E-01
434.86	5.1005E-01
435.22	4.9189E-01
435.57	5.2571E-01
435.92	5.1517E-01
436.28	5.1265E-01
436.63	4.7614E-01
436.98	5.0830E-01
437.34	5.0473E-01
437.69	4.8000E-01
438.04	4.6709E-01
438.39	4.9970E-01
438.75	5.1185E-01
439.10	4.6189E-01
439.45	5.0182E-01
439.81	4.9613E-01
440.16	4.6680E-01
440.51	4.8772E-01
440.86	4.8607E-01
441.22	4.7497E-01
441.57	4.7957E-01
441.92	4.6617E-01
442.27	4.8842E-01
442.63	4.7815E-01
442.98	5.1102E-01
443.33	5.0008E-01
443.68	4.6486E-01
444.03	4.3887E-01
444.39	4.4077E-01
444.74	4.7890E-01
445.09	4.8553E-01
445.44	4.8683E-01
445.79	4.2955E-01
446.15	4.6154E-01
446.50	4.7713E-01
446.85	4.4893E-01
447.20	4.3680E-01
447.55	4.7238E-01
447.91	4.5437E-01
448.26	4.6612E-01
448.61	4.6117E-01
448.96	4.5197E-01
449.31	4.5845E-01
449.66	4.6285E-01
450.02	4.5647E-01
450.37	4.5697E-01
450.72	4.5035E-01
451.07	4.8596E-01
451.42	4.8266E-01
451.77	4.5613E-01
452.12	4.5536E-01
452.47	4.7665E-01
452.83	4.3820E-01
453.18	4.6339E-01
453.53	4.5859E-01
453.88	4.3161E-01
454.23	4.2636E-01
454.58	4.2649E-01
454.93	4.5770E-01
455.28	4.5485E-01
455.63	4.4150E-01
455.98	4.3138E-01
456.34	4.5434E-01
456.69	4.4073E-01
457.04	4.4434E-01
457.39	4.1652E-01
457.74	4.2575E-01
458.09	4.1434E-01
458.44	4.1376E-01
458.79	4.0456E-01
459.14	4.1819E-01
459.49	4.3536E-01
459.84	4.1125E-01
460.19	4.3760E-01
460.54	4.3470E-01
460.89	4.0094E-01
461.24	4.3845E-01
461.59	4.1968E-01
461.94	4.2557E-01
462.29	3.9764E-01
462.64	4.2052E-01
462.99	4.2462E-01
463.34	4.4868E-01
463.69	4.2088E-01
464.04	3.9268E-01
464.39	4.0832E-01
464.74	4.1344E-01
465.09	4.2469E-01
465.44	3.9996E-01
465.79	4.1283E-01
466.14	4.1474E-01
466.49	4.0789E-01
466.84	4.0389E-01
467.19	4.1795E-01
467.54	4.1923E-01
467.89	3.9916E-01
468.24	3.7801E-01
468.59	3.9061E-01
468.94	3.8318E-01
469.29	3.8473E-01
469.64	3.9779E-01
469.99	3.8294E-01
470.34	3.7085E-01
470.68	3.9484E-01
471.03	3.8095E-01
471.38	3.8187E-01
471.73	3.6406E-01
472.08	3.5957E-01
472.43	3.4728E-01
472.78	3.6661E-01
473.13	3.6235E-01
473.48	3.5636E-01
473.83	3.4962E-01
474.17	3.5460E-01
474.52	3.5077E-01
474.87	3.3651E-01
475.22	3.4345E-01
475.57	3.2681E-01
475.92	3.1858E-01
476.27	3.2786E-01
476.61	3.1945E-01
476.96	3.1123E-01
477.31	3.0160E-01
477.66	3.0750E-01
478.01	3.0588E-01
478.36	3.0413E-01
478.70	2.9993E-01
479.05	3.0433E-01
479.40	2.9036E-01
479.75	2.8714E-01
480.10	2.8929E-01
480.45	2.8242E-01
480.79	2.8103E-01
481.14	2.8509E-01
481.49	2.7812E-01
481.84	2.7314E-01
482.19	2.7124E-01
482.53	2.7056E-01
482.88	2.6832E-01
483.23	2.6378E-01
483.58	2.5849E-01
483.92	2.6485E-01
484.27	2.5680E-01
484.62	2.5499E-01
484.97	2.4949E-01
485.31	2.4830E-01
485.66	2.5363E-01
486.01	2.5339E-01
486.36	2.4149E-01
486.70	2.4795E-01
487.05	2.4668E-01
487.40	2.4685E-01
487.75	2.3949E-01
488.09	2.3971E-01
488.44	2.4196E-01
488.79	2.3824E-01
489.13	2.3534E-01
489.48	2.3852E-01
489.83	2.3881E-01
490.17	2.3245E-01
490.52	2.3233E-01
490.87	2.3347E-01
491.22	2.3696E-01
491.56	2.3341E-01
491.91	2.3628E-01
492.26	2.3356E-01
492.60	2.3389E-01
492.95	2.3584E-01
493.30	2.3537E-01
493.64	2.3253E-01
493.99	2.3382E-01
494.34	2.3097E-01
494.68	2.2855E-01
495.03	2.3409E-01
495.37	2.3198E-01
495.72	2.3442E-01
496.07	2.2943E-01
496.41	2.3076E-01
496.76	2.2938E-01
497.11	2.3136E-01
497.45	2.3050E-01
497.80	2.3106E-01
498.14	2.3093E-01
498.49	2.3097E-01
498.84	2.3190E-01
499.18	2.3140E-01
499.53	2.3135E-01
499.87	2.2912E-01
500.22	2.3172E-01
500.56	2.3139E-01
500.91	2.3095E-01
501.26	2.3067E-01
501.60	2.3021E-01
501.95	2.2836E-01
502.29	2.3135E-01
502.64	2.2725E-01
502.98	2.3059E-01
503.33	2.2880E-01
503.67	2.2938E-01
504.02	2.2895E-01
504.36	2.2861E-01
504.71	2.2913E-01
505.06	2.2703E-01
505.40	2.2724E-01
505.75	2.2851E-01
506.09	2.2867E-01
506.44	2.2859E-01
506.78	2.2635E-01
507.13	2.2743E-01
507.47	2.2577E-01
507.82	2.2576E-01
508.16	2.2777E-01
508.51	2.2565E-01
508.85	2.2294E-01
509.19	2.2568E-01
509.54	2.2543E-01
509.88	2.2573E-01
510.23	2.2239E-01
510.57	2.2348E-01
510.92	2.2270E-01
511.26	2.2301E-01
511.61	2.2282E-01
511.95	2.2291E-01
512.30	2.2183E-01
512.64	2.2346E-01
512.98	2.1934E-01
513.33	2.2103E-01
513.67	2.2163E-01
514.02	2.2087E-01
514.36	2.1880E-01
514.70	2.2037E-01
515.05	2.1776E-01
515.39	2.1945E-01
515.74	2.1732E-01
516.08	2.1621E-01
516.42	2.1804E-01
516.77	2.1848E-01
517.11	2.1852E-01
517.46	2.1975E-01
517.80	2.1660E-01
518.14	2.1820E-01
518.49	2.1606E-01
518.83	2.1701E-01
519.17	2.1700E-01
519.52	2.1738E-01
519.86	2.1625E-01
520.20	2.1546E-01
520.55	2.1614E-01
520.89	2.1469E-01
521.23	2.1684E-01
521.58	2.1639E-01
521.92	2.1811E-01
522.26	2.1936E-01
522.61	2.1580E-01
522.95	2.1747E-01
523.29	2.1445E-01
523.64	2.1463E-01
523.98	2.1569E-01
524.32	2.1643E-01
524.66	2.1800E-01
525.01	2.1800E-01
525.35	2.1868E-01
525.69	2.1935E-01
526.04	2.1859E-01
526.38	2.1556E-01
526.72	2.2008E-01
527.06	2.1846E-01
527.41	2.2034E-01
527.75	2.2235E-01
528.09	2.2060E-01
528.43	2.2411E-01
528.78	2.2133E-01
529.12	2.2385E-01
529.46	2.2541E-01
529.80	2.2455E-01
530.15	2.2507E-01
530.49	2.2523E-01
530.83	2.2641E-01
531.17	2.2638E-01
531.51	2.2559E-01
531.86	2.2757E-01
532.20	2.2874E-01
532.54	2.2808E-01
532.88	2.2969E-01
533.22	2.3156E-01
533.57	2.3264E-01
533.91	2.3195E-01
534.25	2.3390E-01
534.59	2.3273E-01
534.93	2.3479E-01
535.27	2.3379E-01
535.62	2.3805E-01
535.96	2.3731E-01
536.30	2.3779E-01
536.64	2.3813E-01
536.98	2.4020E-01
537.32	2.3937E-01
537.66	2.3944E-01
538.01	2.4186E-01
538.35	2.4404E-01
538.69	2.4098E-01
539.03	2.4670E-01
539.37	2.4428E-01
539.71	2.4602E-01
540.05	2.4661E-01
540.39	2.4737E-01
540.73	2.4620E-01
541.07	2.4695E-01
541.42	2.4739E-01
541.76	2.4765E-01
542.10	2.4905E-01
542.44	2.5007E-01
542.78	2.5035E-01
543.12	2.4967E-01
543.46	2.5519E-01
543.80	2.5213E-01
544.14	2.5184E-01
544.48	2.5093E-01
544.82	2.5376E-01
545.16	2.5387E-01
545.50	2.5267E-01
545.84	2.5519E-01
546.18	2.5357E-01
546.52	2.5647E-01
546.86	2.5422E-01
547.20	2.5755E-01
547.54	2.6051E-01
547.88	2.5613E-01
548.22	2.5689E-01
548.56	2.5814E-01
548.90	2.5616E-01
549.24	2.5842E-01
549.58	2.5921E-01
549.92	2.5752E-01
550.26	2.6179E-01
550.60	2.5805E-01
550.94	2.5700E-01
551.28	2.6040E-01
551.62	2.5847E-01
551.96	2.6098E-01
552.30	2.6236E-01
552.64	2.6087E-01
552.98	2.6122E-01
553.32	2.6173E-01
553.66	2.6025E-01
554.00	2.6103E-01
554.34	2.6161E-01
554.68	2.6265E-01
555.02	2.6297E-01
555.36	2.6396E-01
555.69	2.6282E-01
556.03	2.6264E-01
556.37	2.6406E-01
556.71	2.6160E-01
557.05	2.6116E-01
557.39	2.6163E-01
557.73	2.6207E-01
558.07	2.6424E-01
558.41	2.6302E-01
558.75	2.6355E-01
559.08	2.6353E-01
559.42	2.6095E-01
559.76	2.6516E-01
560.10	2.6492E-01
560.44	2.6483E-01
560.78	2.6195E-01
561.12	2.6390E-01
561.45	2.6337E-01
561.79	2.6465E-01
562.13	2.6453E-01
562.47	2.6488E-01
562.81	2.6487E-01
563.15	2.6506E-01
563.48	2.6549E-01
563.82	2.6242E-01
564.16	2.6470E-01
564.50	2.6486E-01
564.84	2.6539E-01
565.17	2.6546E-01
565.51	2.6496E-01
565.85	2.6696E-01
566.19	2.6370E-01
566.52	2.6750E-01
566.86	2.6445E-01
567.20	2.6708E-01
567.54	2.6598E-01
567.88	2.6653E-01
568.21	2.6616E-01
568.55	2.6772E-01
568.89	2.6787E-01
569.23	2.6755E-01
569.56	2.6691E-01
569.90	2.6821E-01
570.24	2.6997E-01
570.57	2.6974E-01
570.91	2.7036E-01
571.25	2.6652E-01
571.59	2.6978E-01
571.92	2.6955E-01
572.26	2.7065E-01
572.60	2.7314E-01
572.93	2.7169E-01
573.27	2.7397E-01
573.61	2.7438E-01
573.95	2.7011E-01
574.28	2.7474E-01
574.62	2.7514E-01
574.96	2.7516E-01
575.29	2.7438E-01
575.63	2.7898E-01
575.97	2.7816E-01
576.30	2.8461E-01
576.64	2.8103E-01
576.98	2.8061E-01
577.31	2.8202E-01
577.65	2.8475E-01
577.98	2.8258E-01
578.32	2.8515E-01
578.66	2.8675E-01
578.99	2.8704E-01
579.33	2.8818E-01
579.67	2.8656E-01
580.00	2.9022E-01
580.34	2.8949E-01
580.67	2.9095E-01
581.01	2.9321E-01
581.35	2.9437E-01
581.68	2.9552E-01
582.02	2.9426E-01
582.35	2.9667E-01
582.69	2.9699E-01
583.02	3.0122E-01
583.36	2.9827E-01
583.70	2.9780E-01
584.03	2.9999E-01
584.37	2.9822E-01
584.70	3.0443E-01
585.04	3.0432E-01
585.37	3.0266E-01
585.71	3.0766E-01
586.04	3.0683E-01
586.38	3.0453E-01
586.72	3.0856E-01
587.05	3.1007E-01
587.39	3.1145E-01
587.72	3.0933E-01
588.06	3.1175E-01
588.39	3.1128E-01
588.73	3.1431E-01
589.06	3.1235E-01
589.40	3.1706E-01
589.73	3.1886E-01
590.07	3.1932E-01
590.40	3.1952E-01
590.73	3.2363E-01
591.07	3.2005E-01
591.40	3.2699E-01
591.74	3.1980E-01
592.07	3.2413E-01
592.41	3.2569E-01
592.74	3.2677E-01
593.08	3.2461E-01
593.41	3.2689E-01
593.75	3.2441E-01
594.08	3.2953E-01
594.41	3.2782E-01
594.75	3.2924E-01
595.08	3.2897E-01
595.42	3.2510E-01
595.75	3.3051E-01
596.09	3.3014E-01
596.42	3.2898E-01
596.75	3.3277E-01
597.09	3.3477E-01
597.42	3.3116E-01
597.75	3.3500E-01
598.09	3.3599E-01
598.42	3.3344E-01
598.76	3.3548E-01
599.09	3.3975E-01
599.42	3.3947E-01
599.76	3.3771E-01
600.09	3.3690E-01
600.42	3.4224E-01
600.76	3.3559E-01
601.09	3.3944E-01
601.42	3.4315E-01
601.76	3.3883E-01
602.09	3.3835E-01
602.42	3.4038E-01
602.76	3.3913E-01
603.09	3.3842E-01
603.42	3.4458E-01
603.76	3.4042E-01
604.09	3.4081E-01
604.42	3.4344E-01
604.76	3.4065E-01
605.09	3.4586E-01
605.42	3.4255E-01
605.75	3.4415E-01
606.09	3.4218E-01
606.42	3.4355E-01
606.75	3.4550E-01
607.09	3.4563E-01
607.42	3.4659E-01
607.75	3.4649E-01
608.08	3.4551E-01
608.42	3.4834E-01
608.75	3.4436E-01
609.08	3.4867E-01
609.41	3.4796E-01
609.75	3.4634E-01
610.08	3.4824E-01
610.41	3.5052E-01
610.74	3.4935E-01
611.07	3.4942E-01
611.41	3.4902E-01
611.74	3.5014E-01
612.07	3.5199E-01
612.40	3.4713E-01
612.73	3.5071E-01
613.07	3.5253E-01
613.40	3.4870E-01
613.73	3.4791E-01
614.06	3.5078E-01
614.39	3.5218E-01
614.72	3.5337E-01
615.06	3.5268E-01
615.39	3.5712E-01
615.72	3.5126E-01
616.05	3.5459E-01
616.38	3.5540E-01
616.71	3.5605E-01
617.05	3.5421E-01
617.38	3.5618E-01
617.71	3.5401E-01
618.04	3.5590E-01
618.37	3.5371E-01
618.70	3.5518E-01
619.03	3.5643E-01
619.36	3.5083E-01
619.69	3.5829E-01
620.03	3.5448E-01
620.36	3.5484E-01
620.69	3.5320E-01
621.02	3.5629E-01
621.35	3.5546E-01
621.68	3.5201E-01
622.01	3.5142E-01
622.34	3.5279E-01
622.67	3.5212E-01
623.00	3.5371E-01
623.33	3.5437E-01
623.66	3.5177E-01
623.99	3.5296E-01
624.32	3.5145E-01
624.65	3.5268E-01
624.99	3.5224E-01
625.32	3.5354E-01
625.65	3.5325E-01
625.98	3.4812E-01
626.31	3.5273E-01
626.64	3.5323E-01
626.97	3.5382E-01
627.30	3.5110E-01
627.63	3.5267E-01
627.96	3.4971E-01
628.29	3.4963E-01
628.62	3.5344E-01
628.95	3.5313E-01
629.28	3.4748E-01
629.61	3.5819E-01
629.94	3.5330E-01
630.26	3.5412E-01
630.59	3.5611E-01
630.92	3.5391E-01
631.25	3.5566E-01
631.58	3.5968E-01
631.91	3.5449E-01
632.24	3.6178E-01
632.57	3.5821E-01
632.90	3.5869E-01
633.23	3.5926E-01
633.56	3.6131E-01
633.89	3.6177E-01
634.22	3.6302E-01
634.55	3.6432E-01
634.88	3.6817E-01
635.20	3.6733E-01
635.53	3.6996E-01
635.86	3.7042E-01
636.19	3.7420E-01
636.52	3.7543E-01
636.85	3.7258E-01
637.18	3.7682E-01
637.51	3.7398E-01
637.83	3.7806E-01
638.16	3.7418E-01
638.49	3.8537E-01
638.82	3.8365E-01
639.15	3.8672E-01
639.48	3.8973E-01
639.81	3.9150E-01
640.13	3.8799E-01
640.46	3.9369E-01
640.79	3.9359E-01
641.12	3.9739E-01
641.45	3.9653E-01
641.77	3.9422E-01
642.10	4.0330E-01
642.43	4.0420E-01
642.76	4.0649E-01
643.09	4.0376E-01
643.41	4.0707E-01
643.74	4.0746E-01
644.07	4.0710E-01
644.40	4.1089E-01
644.73	4.1506E-01
645.05	4.1686E-01
645.38	4.1967E-01
645.71	4.2057E-01
646.04	4.2059E-01
646.36	4.2001E-01
646.69	4.2617E-01
647.02	4.2681E-01
647.35	4.2391E-01
647.67	4.2976E-01
648.00	4.2854E-01
648.33	4.3358E-01
648.66	4.3103E-01
648.98	4.3692E-01
649.31	4.3555E-01
649.64	4.3753E-01
649.96	4.4185E-01
650.29	4.4437E-01
650.62	4.4496E-01
650.94	4.4416E-01
651.27	4.4376E-01
651.60	4.4478E-01
651.92	4.5244E-01
652.25	4.5339E-01
652.58	4.5251E-01
652.90	4.5442E-01
653.23	4.5497E-01
653.56	4.5655E-01
653.88	4.5827E-01
654.21	4.5818E-01
654.54	4.6025E-01
654.86	4.6605E-01
655.19	4.6097E-01
655.52	4.6826E-01
655.84	4.6690E-01
656.17	4.6899E-01
656.49	4.7430E-01
656.82	4.6922E-01
657.15	4.7443E-01
657.47	4.7443E-01
657.80	4.7464E-01
658.13	4.7665E-01
658.45	4.7878E-01
658.78	4.7802E-01
659.10	4.8469E-01
659.43	4.8380E-01
659.75	4.8236E-01
660.08	4.8048E-01
660.41	4.8672E-01
660.73	4.8713E-01
661.06	4.9050E-01
661.38	4.8919E-01
661.71	4.9124E-01
662.03	4.9127E-01
662.36	4.9757E-01
662.68	4.9583E-01
663.01	4.9035E-01
663.33	4.9469E-01
663.66	4.9853E-01
663.98	4.9530E-01
664.31	4.9623E-01
664.63	5.0551E-01
664.96	5.0240E-01
665.28	5.0611E-01
665.61	5.0503E-01
665.93	5.0574E-01
666.26	5.0854E-01
666.58	5.0947E-01
666.91	5.0602E-01
667.23	5.1169E-01
667.56	5.0538E-01
667.88	5.1328E-01
668.21	5.1277E-01
668.53	5.1088E-01
668.86	5.2082E-01
669.18	5.1310E-01
669.50	5.2467E-01
669.83	5.2275E-01
670.15	5.2449E-01
670.48	5.2340E-01
670.80	5.2162E-01
671.13	5.1941E-01
671.45	5.2563E-01
671.77	5.2797E-01
672.10	5.2403E-01
672.42	5.3218E-01
672.75	5.2910E-01
673.07	5.3343E-01
673.39	5.2830E-01
673.72	5.3190E-01
674.04	5.3605E-01
674.37	5.3940E-01
674.69	5.3597E-01
675.01	5.4056E-01
675.34	5.4205E-01
675.66	5.4346E-01
675.98	5.3788E-01
676.31	5.4679E-01
676.63	5.4818E-01
676.95	5.4542E-01
677.28	5.4874E-01
677.60	5.4950E-01
677.92	5.4762E-01
678.25	5.5348E-01
678.57	5.5437E-01
678.89	5.5272E-01
679.22	5.6087E-01
679.54	5.5826E-01
679.86	5.5922E-01
680.18	5.6005E-01
680.51	5.6199E-01
680.83	5.6772E-01
681.15	5.6206E-01
681.48	5.6562E-01
681.80	5.6981E-01
682.12	5.6634E-01
682.44	5.7562E-01
682.77	5.7579E-01
683.09	5.8010E-01
683.41	5.7644E-01
683.73	5.8241E-01
684.06	5.8153E-01
684.38	5.8284E-01
684.70	5.8210E-01
685.02	5.8792E-01
685.34	5.9369E-01
685.67	5.8806E-01
685.99	5.9643E-01
686.31	5.9115E-01
686.63	6.0140E-01
686.96	5.9801E-01
687.28	6.0511E-01
687.60	5.9687E-01
687.92	6.0310E-01
688.24	6.0963E-01
688.56	6.1101E-01
688.89	6.1296E-01
689.21	6.1004E-01
689.53	6.1243E-01
689.85	6.2174E-01
690.17	6.1792E-01
690.49	6.2721E-01
690.82	6.2704E-01
691.14	6.2716E-01
691.46	6.3095E-01
691.78	6.3536E-01
692.10	6.2791E-01
692.42	6.3431E-01
692.74	6.3983E-01
693.06	6.4066E-01
693.39	6.5187E-01
693.71	6.5213E-01
694.03	6.5251E-01
694.35	6.5492E-01
694.67	6.5623E-01
694.99	6.6296E-01
695.31	6.6554E-01
695.63	6.6441E-01
695.95	6.7007E-01
696.27	6.6859E-01
696.59	6.7463E-01
696.91	6.8366E-01
697.23	6.8261E-01
697.56	6.8076E-01
697.88	6.8838E-01
698.20	6.8747E-01
698.52	6.9452E-01
698.84	6.9881E-01
699.16	7.0418E-01
699.48	6.9717E-01
699.80	7.0666E-01
700.12	7.1296E-01
700.44	7.1455E-01
700.76	7.1598E-01
701.08	7.2077E-01
701.40	7.2359E-01
701.72	7.3177E-01
702.04	7.3076E-01
702.36	7.3715E-01
702.68	7.3962E-01
703.00	7.4465E-01
703.32	7.4917E-01
703.64	7.5008E-01
703.96	7.4256E-01
704.28	7.5449E-01
704.60	7.6287E-01
704.91	7.6558E-01
705.23	7.6708E-01
705.55	7.7503E-01
705.87	7.6925E-01
706.19	7.7210E-01
706.51	7.7773E-01
706.83	7.8074E-01
707.15	8.0123E-01
707.47	7.8478E-01
707.79	7.9910E-01
708.11	8.0084E-01
708.43	8.0524E-01
708.74	8.1162E-01
709.06	8.2368E-01
709.38	8.1770E-01
709.70	8.1243E-01
710.02	8.2417E-01
710.34	8.2172E-01
710.66	8.4215E-01
710.98	8.3737E-01
711.29	8.3689E-01
711.61	8.5105E-01
711.93	8.5701E-01
712.25	8.4918E-01
712.57	8.6101E-01
712.89	8.6448E-01
713.20	8.6502E-01
713.52	8.7445E-01
713.84	8.8120E-01
714.16	8.7486E-01
714.48	8.7774E-01
714.80	8.9183E-01
715.11	8.8990E-01
715.43	9.0185E-01
715.75	9.0679E-01
716.07	9.1692E-01
716.39	9.0008E-01
716.70	9.1114E-01
717.02	9.0639E-01
717.34	9.3341E-01
717.66	9.2474E-01
717.97	9.3563E-01
718.29	9.4056E-01
718.61	9.5286E-01
718.93	9.5252E-01
719.24	9.5615E-01
719.56	9.7815E-01
719.88	9.6860E-01
720.20	9.8359E-01
720.51	9.9729E-01
720.83	9.9221E-01
721.15	1.0100E00
721.46	1.0048E00
721.78	1.0103E00
722.10	1.0255E00
722.42	1.0350E00
722.73	1.0414E00
723.05	1.0289E00
723.37	1.0431E00
723.68	1.0532E00
724.00	1.0541E00
724.32	1.0724E00
724.63	1.0704E00
724.95	1.0662E00
725.27	1.0773E00
725.58	1.0841E00
725.90	1.0840E00
726.22	1.1024E00
726.53	1.0801E00
726.85	1.0956E00
727.16	1.1176E00
727.48	1.0996E00
727.80	1.1126E00
728.11	1.1201E00
728.43	1.1167E00
728.74	1.1108E00
729.06	1.1345E00
729.38	1.1306E00
729.69	1.1358E00
730.01	1.1231E00
730.32	1.1096E00
730.64	1.1094E00
730.96	1.0813E00
731.27	1.0605E00
731.59	1.0030E00
731.90	1.0408E00
732.22	1.0860E00
732.53	1.1179E00
732.85	1.1476E00
733.16	1.1599E00
733.48	1.1750E00
733.80	1.1760E00
734.11	1.2009E00
734.43	1.1989E00
734.74	1.1981E00
735.06	1.2115E00
735.37	1.2206E00
735.69	1.2037E00
736.00	1.2091E00
736.32	1.2002E00
736.63	1.2258E00
736.95	1.2022E00
737.26	1.2201E00
737.58	1.2219E00
737.89	1.2287E00
738.21	1.2224E00
738.52	1.2261E00
738.83	1.2190E00
739.15	1.2203E00
739.46	1.2579E00
739.78	1.2354E00
740.09	1.2509E00
740.41	1.2537E00
740.72	1.2584E00
741.04	1.2602E00
741.35	1.2657E00
741.66	1.2793E00
741.98	1.2761E00
742.29	1.2909E00
742.61	1.2830E00
742.92	1.2885E00
743.23	1.2919E00
743.55	1.3030E00
743.86	1.2919E00
744.18	1.2997E00
744.49	1.3012E00
744.80	1.2981E00
745.12	1.2993E00
745.43	1.3013E00
745.74	1.2990E00
746.06	1.2897E00
746.37	1.2877E00
746.68	1.2979E00
747.00	1.2954E00
747.31	1.2827E00
747.62	1.2750E00
747.94	1.2949E00
748.25	1.2958E00
748.56	1.2981E00
748.88	1.2795E00
749.19	1.2899E00
749.50	1.2923E00
749.82	1.2834E00
750.13	1.2913E00
750.44	1.2928E00
750.75	1.2769E00
751.07	1.2956E00
751.38	1.3024E00
751.69	1.2774E00
752.01	1.2956E00
752.32	1.2951E00
752.63	1.2971E00
752.94	1.3043E00
753.26	1.3089E00
753.57	1.2954E00
753.88	1.3033E00
754.19	1.3057E00
754.51	1.3092E00
754.82	1.3051E00
755.13	1.3202E00
755.44	1.3196E00
755.75	1.3227E00
756.07	1.3224E00
756.38	1.3373E00
756.69	1.3333E00
757.00	1.3420E00
757.31	1.3585E00
757.63	1.3665E00
757.94	1.3685E00
758.25	1.3830E00
758.56	1.3492E00
758.87	1.3972E00
759.18	1.4004E00
759.50	1.4039E00
759.81	1.4056E00
760.12	1.1155E00
760.43	5.3747E-01
760.74	4.4710E-01
761.05	4.0574E-01
761.36	4.6077E-01
761.67	5.8523E-01
761.99	6.6664E-01
762.30	7.1802E-01
762.61	7.0244E-01
762.92	6.5313E-01
763.23	6.4898E-01
763.54	6.4886E-01
763.85	6.7008E-01
764.16	6.9502E-01
764.47	8.3071E-01
764.78	7.9117E-01
765.10	8.9678E-01
765.41	9.1384E-01
765.72	1.0375E00
766.03	1.0258E00
766.34	1.0894E00
766.65	1.1672E00
766.96	1.2835E00
767.27	1.2782E00
767.58	1.3397E00
767.89	1.3881E00
768.20	1.4275E00
768.51	1.4407E00
768.82	1.4522E00
769.13	1.5083E00
769.44	1.4960E00
769.75	1.5306E00
770.06	1.5134E00
770.37	1.5452E00
770.68	1.5723E00
770.99	1.5644E00
771.30	1.5661E00
771.61	1.5923E00
771.92	1.5785E00
772.23	1.6071E00
772.54	1.6023E00
772.85	1.5993E00
773.16	1.6038E00
773.47	1.6424E00
773.78	1.6502E00
774.09	1.6483E00
774.39	1.6450E00
774.70	1.6201E00
775.01	1.6387E00
775.32	1.6272E00
775.63	1.6733E00
775.94	1.6609E00
776.25	1.6604E00
776.56	1.6616E00
776.87	1.6792E00
777.18	1.6667E00
777.48	1.7032E00
777.79	1.6558E00
778.10	1.6992E00
778.41	1.7057E00
778.72	1.6801E00
779.03	1.7007E00
779.34	1.7230E00
779.65	1.7201E00
779.95	1.7360E00
780.26	1.7004E00
780.57	1.7594E00
780.88	1.7416E00
781.19	1.7427E00
781.50	1.7438E00
781.80	1.7346E00
782.11	1.7474E00
782.42	1.7596E00
782.73	1.7654E00
783.04	1.7746E00
783.34	1.7522E00
783.65	1.7379E00
783.96	1.7584E00
784.27	1.7481E00
784.57	1.7793E00
784.88	1.7631E00
785.19	1.8067E00
785.50	1.7843E00
785.81	1.7767E00
786.11	1.7646E00
786.42	1.7324E00
786.73	1.7309E00
787.04	1.7836E00
787.34	1.7367E00
787.65	1.7274E00
787.96	1.7104E00
788.26	1.6984E00
788.57	1.7277E00
788.88	1.6984E00
789.19	1.6601E00
789.49	1.6694E00
789.80	1.6929E00
790.11	1.6678E00
790.41	1.6750E00
790.72	1.7130E00
791.03	1.6699E00
791.33	1.6731E00
791.64	1.7138E00
791.95	1.7002E00
792.25	1.7438E00
792.56	1.7090E00
792.87	1.7611E00
793.17	1.7217E00
793.48	1.7833E00
793.79	1.8019E00
794.09	1.8274E00
794.40	1.8535E00
794.70	1.8389E00
795.01	1.8577E00
795.32	1.8028E00
795.62	1.8336E00
795.93	1.7536E00
796.23	1.7404E00
796.54	1.7232E00
796.85	1.7387E00
797.15	1.7554E00
797.46	1.7956E00
797.76	1.8124E00
798.07	1.8722E00
798.37	1.8429E00
798.68	1.8517E00
798.99	1.8414E00
799.29	1.8567E00
799.60	1.8571E00
799.90	1.8201E00
800.21	1.8048E00
800.51	1.7995E00
800.82	1.8262E00
801.12	1.8427E00
801.43	1.8124E00
801.73	1.8125E00
802.04	1.7896E00
802.34	1.7724E00
802.65	1.8032E00
802.95	1.8031E00
803.26	1.8095E00
803.56	1.7915E00
803.87	1.7905E00
804.17	1.7910E00
804.48	1.7938E00
804.78	1.8465E00
805.09	1.8379E00
805.39	1.8912E00
805.70	1.9384E00
806.00	1.9167E00
806.30	1.9530E00
806.61	1.9325E00
806.91	1.9571E00
807.22	1.9956E00
807.52	1.9758E00
807.83	1.9619E00
808.13	1.9782E00
808.43	1.9259E00
808.74	1.9691E00
809.04	1.8925E00
809.35	1.8686E00
809.65	1.8785E00
809.95	1.8384E00
810.26	1.8016E00
810.56	1.8264E00
810.86	1.8186E00
811.17	1.7423E00
811.47	1.7469E00
811.77	1.6766E00
812.08	1.6513E00
812.38	1.6466E00
812.69	1.5963E00
812.99	1.6194E00
813.29	1.5375E00
813.59	1.4638E00
813.90	1.4364E00
814.20	1.3899E00
814.50	1.3576E00
814.81	1.3059E00
815.11	1.2752E00
815.41	1.2003E00
815.72	1.1994E00
816.02	1.1494E00
816.32	1.1159E00
816.62	1.0770E00
816.93	1.1363E00
817.23	1.1140E00
817.53	1.1075E00
817.84	1.1097E00
818.14	1.0854E00
818.44	1.1327E00
818.74	1.2108E00
819.04	1.1644E00
819.35	1.1431E00
819.65	1.1602E00
819.95	1.1706E00
820.25	1.2075E00
820.56	1.2936E00
820.86	1.3492E00
821.16	1.4424E00
821.46	1.4025E00
821.76	1.3782E00
822.07	1.4522E00
822.37	1.3179E00
822.67	1.3948E00
822.97	1.2267E00
823.27	1.0640E00
823.57	1.0450E00
823.88	1.0707E00
824.18	1.1041E00
824.48	1.1475E00
824.78	1.1795E00
825.08	1.2778E00
825.38	1.3164E00
825.69	1.2481E00
825.99	1.2794E00
826.29	1.2952E00
826.59	1.2730E00
826.89	1.2904E00
827.19	1.3922E00
827.49	1.2719E00
827.79	1.1908E00
828.09	1.1164E00
828.39	1.1090E00
828.70	1.1028E00
829.00	1.1530E00
829.30	1.0720E00
829.60	1.0670E00
829.90	1.0975E00
830.20	1.0200E00
830.50	1.0289E00
830.80	1.0798E00
831.10	9.9792E-01
831.40	1.0769E00
831.70	1.0631E00
832.00	1.0495E00
832.30	9.7474E-01
832.60	9.9159E-01
832.90	9.7037E-01
833.20	9.9967E-01
833.50	9.6710E-01
833.80	9.5573E-01
834.10	9.6107E-01
834.40	1.0247E00
834.70	1.0328E00
835.00	9.8088E-01
835.30	9.8724E-01
835.60	9.7791E-01
835.90	9.8585E-01
836.20	1.0166E00
836.50	1.0093E00
836.80	1.1331E00
837.10	1.4103E00
837.40	1.0618E00
837.70	1.1162E00
838.00	1.0161E00
838.30	1.0780E00
838.60	1.1055E00
838.90	1.0673E00
839.19	1.3143E00
839.49	1.0243E00
839.79	1.0923E00
840.09	1.0289E00
840.39	1.0918E00
840.69	1.1170E00
840.99	1.2689E00
841.29	1.1823E00
841.59	1.0602E00
841.88	1.0388E00
842.18	1.1105E00
842.48	1.0838E00
842.78	1.0574E00
843.08	1.0723E00
843.38	1.0479E00
843.68	1.2047E00
843.97	1.2224E00
844.27	1.1370E00
844.57	1.0968E00
844.87	1.0856E00
845.17	1.0829E00
845.47	1.0666E00
845.76	1.1457E00
846.06	1.1742E00
846.36	1.5652E00
846.66	1.1138E00
846.96	1.1349E00
847.25	1.0585E00
847.55	1.0766E00
847.85	1.1115E00
848.15	1.0673E00
848.44	1.0818E00
848.74	1.0569E00
849.04	1.0733E00
849.34	1.1607E00
849.63	1.0621E00
849.93	1.0414E00
850.23	1.0561E00
850.53	1.0289E00
850.82	1.0143E00
851.12	1.0195E00
851.42	1.0868E00
851.71	1.0507E00
852.01	1.0110E00
852.31	1.0813E00
852.61	1.0163E00
852.90	1.0531E00
853.20	1.1179E00
853.50	1.3471E00
853.79	1.2651E00
854.09	1.0241E00
854.39	9.8102E-01
854.68	1.0064E00
854.98	9.6461E-01
855.28	1.0417E00
855.57	1.1726E00
855.87	1.0548E00
856.17	1.0648E00
856.46	9.8104E-01
856.76	9.6518E-01
857.05	1.1007E00
857.35	1.0145E00
857.65	1.2228E00
857.94	1.1513E00
858.24	1.2086E00
858.53	1.0705E00
858.83	1.4633E00
859.13	1.0622E00
859.42	1.0418E00
859.72	1.1996E00
860.01	1.1029E00
860.31	1.0630E00
860.60	1.0592E00
860.90	1.2205E00
861.20	1.0871E00
861.49	1.0559E00
861.79	1.1202E00
862.08	2.0186E00
862.38	1.3412E00
862.67	1.0829E00
862.97	1.1245E00
863.26	1.1035E00
863.56	1.2535E00
863.85	1.4285E00
864.15	1.0656E00
864.44	1.1243E00
864.74	1.1148E00
865.03	1.3118E00
865.33	1.2423E00
865.62	1.1246E00
865.92	1.1083E00
866.21	1.1038E00
866.51	1.0553E00
866.80	1.2584E00
867.10	1.3972E00
867.39	1.1680E00
867.69	1.3728E00
867.98	1.0366E00
868.27	1.0261E00
868.57	1.0385E00
868.86	1.2765E00
869.16	1.0686E00
869.45	1.0826E00
869.75	1.0419E00
870.04	1.0878E00
870.33	1.2642E00
870.63	1.0824E00
870.92	1.1371E00
871.22	2.0415E00
871.51	1.1201E00
871.80	1.2866E00
872.10	1.2866E00
>>>>>End Processed Spectral Data<<<<<
