SpectraSuite Data File
++++++++++++++++++++++++++++++++++++
Date: Wed May 13 16:47:45 PDT 2015
User: schluterlab
Dark Spectrum Present: Yes
Reference Spectrum Present: Yes
Number of Sampled Component Spectra: 1
Spectrometers: USB2E3373
Integration Time (usec): 3000 (USB2E3373)
Spectra Averaged: 3 (USB2E3373)
Boxcar Smoothing: 0 (USB2E3373)
Correct for Electrical Dark: No (USB2E3373)
Strobe/Lamp Enabled: No (USB2E3373)
Correct for Detector Non-linearity: No (USB2E3373)
Correct for Stray Light: No (USB2E3373)
Number of Pixels in Processed Spectrum: 2048
>>>>>Begin Processed Spectral Data<<<<<
178.53	0.000
178.91	-1125.000
179.29	-1375.000
179.67	-205.556
180.04	-1125.000
180.42	2600.000
180.80	900.000
181.18	-1050.000
181.56	585.714
181.94	0.000
182.31	-714.286
182.69	1833.333
183.07	-525.000
183.45	-500.000
183.83	509.091
184.20	-460.000
184.58	2300.000
184.96	4600.000
185.34	-800.000
185.72	-562.500
186.09	-2550.000
186.47	2800.000
186.85	2250.000
187.23	4500.000
187.61	-1533.333
187.98	1275.000
188.36	545.455
188.74	463.636
189.12	-940.000
189.49	570.000
189.87	-4600.000
190.25	-1050.000
190.63	400.000
191.00	407.692
191.38	716.667
191.76	-1050.000
192.14	1150.000
192.51	550.000
192.89	800.000
193.27	587.500
193.65	-1450.000
194.02	580.000
194.40	980.000
194.78	610.000
195.15	491.667
195.53	600.000
195.91	-2000.000
196.29	325.000
196.66	310.526
197.04	-410.000
197.42	0.000
197.79	610.000
198.17	-4200.000
198.55	671.429
198.92	687.500
199.30	960.000
199.68	0.000
200.05	394.444
200.43	714.286
200.81	3800.000
201.18	1433.333
201.56	-1400.000
201.94	644.444
202.31	533.333
202.69	391.667
203.07	550.000
203.44	0.000
203.82	1300.000
204.19	742.857
204.57	492.857
204.95	625.000
205.32	1466.667
205.70	509.091
206.08	350.000
206.45	2350.000
206.83	350.000
207.20	750.000
207.58	940.000
207.96	305.556
208.33	662.500
208.71	-1000.000
209.08	757.143
209.46	633.333
209.84	445.455
210.21	-1333.333
210.59	1175.000
210.96	-450.000
211.34	2100.000
211.71	560.000
212.09	733.333
212.46	0.000
212.84	1733.333
213.22	1250.000
213.59	-4200.000
213.97	683.333
214.34	814.286
214.72	600.000
215.09	1040.000
215.47	-2150.000
215.84	-2200.000
216.22	1566.667
216.59	428.571
216.97	1125.000
217.34	427.273
217.72	-733.333
218.09	0.000
218.47	-5700.000
218.84	533.333
219.22	628.571
219.59	2000.000
219.97	-571.429
220.34	1080.000
220.72	-1533.333
221.09	364.286
221.47	1225.000
221.84	-900.000
222.22	0.000
222.59	1225.000
222.97	-2300.000
223.34	1360.000
223.72	392.308
224.09	840.000
224.46	2550.000
224.84	-5100.000
225.21	-980.000
225.59	-3600.000
225.96	620.000
226.34	305.000
226.71	2600.000
227.08	600.000
227.46	520.000
227.83	-1125.000
228.21	-2300.000
228.58	511.111
228.95	-1800.000
229.33	-2300.000
229.70	1633.333
230.08	800.000
230.45	-700.000
230.82	366.667
231.20	833.333
231.57	642.857
231.95	500.000
232.32	236.364
232.69	390.909
233.07	571.429
233.44	269.231
233.81	-1500.000
234.19	342.105
234.56	391.667
234.93	333.333
235.31	436.364
235.68	276.923
236.05	278.571
236.43	154.545
236.80	231.579
237.17	3000.000
237.55	204.762
237.92	182.143
238.29	228.571
238.67	122.581
239.04	172.414
239.41	144.444
239.79	108.696
240.16	85.714
240.53	106.818
240.91	72.549
241.28	100.000
241.65	78.000
242.02	92.754
242.40	59.677
242.77	76.667
243.14	68.817
243.51	58.427
243.89	54.118
244.26	37.778
244.63	40.860
245.00	38.298
245.38	42.574
245.75	35.514
246.12	38.532
246.49	46.715
246.87	47.200
247.24	34.615
247.61	37.857
247.98	35.294
248.36	24.324
248.73	31.847
249.10	33.758
249.47	27.119
249.84	30.481
250.22	26.203
250.59	26.627
250.96	28.788
251.33	27.488
251.70	26.238
252.08	21.429
252.45	20.628
252.82	19.130
253.19	23.404
253.56	23.137
253.94	26.141
254.31	18.359
254.68	19.231
255.05	20.295
255.42	18.699
255.79	18.750
256.16	18.051
256.54	17.668
256.91	17.438
257.28	12.230
257.65	18.812
258.02	17.702
258.39	17.981
258.76	14.047
259.14	15.774
259.51	13.678
259.88	13.043
260.25	15.710
260.62	16.474
260.99	11.180
261.36	16.517
261.73	12.321
262.10	13.663
262.47	13.239
262.85	13.649
263.22	9.402
263.59	16.524
263.96	13.736
264.33	13.316
264.70	13.158
265.07	15.090
265.44	12.626
265.81	12.652
266.18	11.055
266.55	10.732
266.92	12.285
267.29	13.657
267.66	11.239
268.03	11.364
268.40	11.916
268.77	10.501
269.14	11.036
269.51	12.415
269.88	9.790
270.25	10.384
270.62	11.236
270.99	13.978
271.36	10.086
271.73	10.047
272.10	11.739
272.47	14.194
272.84	10.606
273.21	11.321
273.58	10.044
273.95	9.853
274.32	10.124
274.69	9.850
275.06	10.236
275.43	10.638
275.80	10.621
276.17	9.572
276.54	11.642
276.91	11.462
277.28	8.789
277.65	10.638
278.02	7.867
278.39	11.719
278.76	9.455
279.13	10.189
279.50	10.801
279.87	9.163
280.23	10.978
280.60	9.284
280.97	8.688
281.34	9.735
281.71	9.455
282.08	9.021
282.45	6.909
282.82	9.947
283.19	7.130
283.56	10.351
283.92	8.291
284.29	8.113
284.66	8.711
285.03	7.595
285.40	7.570
285.77	8.586
286.14	7.772
286.51	9.333
286.87	7.863
287.24	9.772
287.61	7.865
287.98	8.766
288.35	7.607
288.72	7.321
289.08	10.955
289.45	6.425
289.82	7.480
290.19	6.750
290.56	7.963
290.93	7.704
291.29	7.515
291.66	9.440
292.03	9.302
292.40	8.811
292.77	7.249
293.13	6.866
293.50	7.872
293.87	8.593
294.24	4.741
294.60	6.987
294.97	6.105
295.34	7.898
295.71	8.097
296.08	6.838
296.44	6.740
296.81	5.812
297.18	7.588
297.55	5.409
297.91	5.805
298.28	8.300
298.65	7.572
299.02	6.324
299.38	5.046
299.75	5.930
300.12	6.258
300.48	6.375
300.85	6.289
301.22	6.369
301.59	5.303
301.95	5.919
302.32	7.189
302.69	6.930
303.05	6.424
303.42	5.556
303.79	6.455
304.15	5.012
304.52	5.098
304.89	5.343
305.25	5.452
305.62	5.323
305.99	6.966
306.35	5.817
306.72	6.278
307.09	6.215
307.45	7.658
307.82	5.022
308.19	6.402
308.55	6.365
308.92	5.263
309.29	5.280
309.65	4.772
310.02	5.920
310.38	6.022
310.75	5.808
311.12	5.425
311.48	5.329
311.85	6.184
312.22	5.203
312.58	5.509
312.95	5.491
313.31	5.922
313.68	5.925
314.05	7.890
314.41	6.834
314.78	5.539
315.14	6.058
315.51	5.664
315.87	6.436
316.24	5.164
316.61	4.971
316.97	5.284
317.34	5.088
317.70	5.736
318.07	7.507
318.43	6.067
318.80	6.186
319.16	5.179
319.53	5.253
319.89	6.571
320.26	6.600
320.62	5.258
320.99	6.566
321.35	6.162
321.72	5.955
322.08	6.910
322.45	6.169
322.81	7.655
323.18	7.225
323.54	6.308
323.91	6.415
324.27	5.927
324.64	4.846
325.00	5.050
325.37	6.460
325.73	6.643
326.10	5.914
326.46	5.735
326.83	5.349
327.19	6.319
327.56	5.488
327.92	6.212
328.29	6.744
328.65	6.630
329.01	6.137
329.38	6.198
329.74	6.371
330.11	5.561
330.47	6.703
330.84	6.893
331.20	5.920
331.56	5.963
331.93	4.815
332.29	6.389
332.66	6.726
333.02	6.307
333.38	7.046
333.75	7.130
334.11	5.961
334.48	5.679
334.84	6.250
335.20	6.636
335.57	5.168
335.93	5.446
336.29	5.311
336.66	6.673
337.02	5.430
337.38	5.648
337.75	5.169
338.11	6.804
338.47	5.249
338.84	6.049
339.20	5.321
339.56	6.113
339.93	6.545
340.29	5.344
340.65	6.328
341.02	6.283
341.38	6.228
341.74	5.263
342.11	5.415
342.47	6.344
342.83	6.336
343.20	7.446
343.56	5.813
343.92	5.263
344.28	6.037
344.65	6.019
345.01	6.313
345.37	5.918
345.73	6.091
346.10	5.371
346.46	5.254
346.82	6.096
347.19	4.678
347.55	5.911
347.91	6.230
348.27	6.902
348.63	5.435
349.00	5.340
349.36	5.829
349.72	5.934
350.08	5.592
350.45	5.533
350.81	4.874
351.17	6.159
351.53	5.979
351.89	6.188
352.26	5.998
352.62	6.095
352.98	5.267
353.34	5.505
353.70	4.173
354.07	6.452
354.43	6.190
354.79	5.068
355.15	5.347
355.51	5.835
355.87	5.633
356.24	6.352
356.60	4.330
356.96	4.827
357.32	4.334
357.68	5.669
358.04	5.859
358.40	5.701
358.77	6.260
359.13	4.578
359.49	4.549
359.85	3.889
360.21	4.785
360.57	5.525
360.93	4.615
361.29	5.669
361.66	4.876
362.02	5.224
362.38	5.171
362.74	4.985
363.10	4.515
363.46	4.622
363.82	5.140
364.18	5.800
364.54	5.646
364.90	5.807
365.26	4.559
365.62	6.355
365.98	4.456
366.35	4.513
366.71	5.061
367.07	4.880
367.43	4.572
367.79	6.067
368.15	6.178
368.51	4.142
368.87	4.782
369.23	4.828
369.59	5.358
369.95	5.294
370.31	5.057
370.67	4.928
371.03	5.169
371.39	5.248
371.75	4.191
372.11	5.477
372.47	5.499
372.83	5.476
373.19	4.408
373.55	4.730
373.91	5.228
374.27	4.674
374.63	4.145
374.99	6.003
375.35	4.466
375.71	4.935
376.07	5.007
376.42	4.608
376.78	5.898
377.14	4.410
377.50	5.364
377.86	4.455
378.22	4.994
378.58	5.075
378.94	4.274
379.30	3.817
379.66	4.759
380.02	4.975
380.38	4.918
380.74	5.462
381.09	4.890
381.45	5.286
381.81	5.283
382.17	4.841
382.53	5.157
382.89	4.938
383.25	4.440
383.61	5.143
383.97	4.565
384.32	5.240
384.68	4.771
385.04	4.733
385.40	4.396
385.76	4.791
386.12	4.728
386.48	5.475
386.83	5.645
387.19	5.442
387.55	5.380
387.91	5.139
388.27	4.537
388.62	5.409
388.98	5.037
389.34	6.070
389.70	4.905
390.06	6.337
390.42	5.383
390.77	4.898
391.13	5.552
391.49	5.964
391.85	5.092
392.20	4.227
392.56	5.492
392.92	5.356
393.28	4.793
393.64	5.336
393.99	5.315
394.35	4.963
394.71	5.144
395.07	4.860
395.42	4.697
395.78	5.407
396.14	4.780
396.50	6.140
396.85	5.912
397.21	5.055
397.57	5.084
397.92	4.928
398.28	4.596
398.64	5.317
399.00	5.428
399.35	4.456
399.71	5.556
400.07	5.500
400.42	5.767
400.78	6.152
401.14	4.817
401.49	5.612
401.85	5.082
402.21	5.569
402.57	5.429
402.92	4.918
403.28	5.621
403.63	5.074
403.99	5.732
404.35	5.152
404.70	5.755
405.06	5.300
405.42	5.115
405.77	4.629
406.13	5.079
406.49	5.441
406.84	4.962
407.20	4.669
407.55	4.786
407.91	4.800
408.27	5.424
408.62	5.539
408.98	5.147
409.34	4.920
409.69	4.710
410.05	4.647
410.40	5.199
410.76	4.480
411.11	5.127
411.47	4.728
411.83	5.742
412.18	5.257
412.54	4.857
412.89	5.301
413.25	4.664
413.60	5.930
413.96	4.736
414.31	4.860
414.67	5.323
415.03	4.901
415.38	5.670
415.74	5.273
416.09	5.421
416.45	5.087
416.80	5.486
417.16	5.563
417.51	5.508
417.87	4.881
418.22	5.804
418.58	5.746
418.93	5.344
419.29	5.092
419.64	5.668
420.00	5.366
420.35	5.043
420.71	5.320
421.06	5.310
421.42	5.731
421.77	5.661
422.12	3.930
422.48	4.047
422.83	4.892
423.19	5.580
423.54	5.340
423.90	5.217
424.25	5.639
424.61	4.940
424.96	4.898
425.31	5.537
425.67	4.888
426.02	5.143
426.38	5.006
426.73	4.974
427.09	4.498
427.44	4.715
427.79	5.003
428.15	5.536
428.50	5.091
428.85	5.959
429.21	4.970
429.56	4.303
429.92	4.429
430.27	4.121
430.62	4.199
430.98	4.982
431.33	5.258
431.68	4.869
432.04	4.846
432.39	4.740
432.74	5.386
433.10	5.207
433.45	5.131
433.80	4.213
434.16	4.594
434.51	4.316
434.86	5.074
435.22	4.447
435.57	4.742
435.92	3.862
436.28	5.160
436.63	5.519
436.98	4.923
437.34	4.890
437.69	4.959
438.04	4.384
438.39	4.597
438.75	5.462
439.10	5.419
439.45	5.136
439.81	4.169
440.16	4.630
440.51	4.979
440.86	5.501
441.22	4.672
441.57	4.618
441.92	4.964
442.27	4.575
442.63	4.160
442.98	5.183
443.33	5.272
443.68	4.646
444.03	5.076
444.39	3.944
444.74	4.816
445.09	5.013
445.44	5.139
445.79	4.354
446.15	5.241
446.50	5.223
446.85	4.573
447.20	4.742
447.55	5.193
447.91	4.744
448.26	4.786
448.61	4.975
448.96	5.426
449.31	5.343
449.66	5.234
450.02	4.791
450.37	4.705
450.72	4.963
451.07	4.875
451.42	4.924
451.77	4.815
452.12	5.485
452.47	5.224
452.83	4.953
453.18	5.196
453.53	5.009
453.88	4.017
454.23	5.021
454.58	4.664
454.93	6.039
455.28	4.177
455.63	4.672
455.98	5.417
456.34	4.523
456.69	4.947
457.04	6.130
457.39	5.202
457.74	4.701
458.09	4.715
458.44	4.789
458.79	4.664
459.14	4.910
459.49	5.020
459.84	4.044
460.19	4.184
460.54	4.977
460.89	4.498
461.24	5.464
461.59	5.694
461.94	4.871
462.29	5.401
462.64	5.552
462.99	5.335
463.34	6.067
463.69	5.253
464.04	5.043
464.39	5.855
464.74	5.229
465.09	4.765
465.44	4.931
465.79	4.810
466.14	4.981
466.49	4.839
466.84	5.079
467.19	4.768
467.54	5.250
467.89	5.102
468.24	5.236
468.59	4.762
468.94	4.337
469.29	4.820
469.64	5.823
469.99	4.736
470.34	5.020
470.68	5.101
471.03	5.034
471.38	5.351
471.73	5.663
472.08	5.987
472.43	4.962
472.78	5.859
473.13	5.006
473.48	5.119
473.83	5.549
474.17	4.418
474.52	5.397
474.87	4.904
475.22	5.572
475.57	4.997
475.92	4.036
476.27	4.284
476.61	5.240
476.96	3.903
477.31	4.291
477.66	4.814
478.01	4.861
478.36	4.865
478.70	4.829
479.05	5.112
479.40	4.504
479.75	4.830
480.10	4.175
480.45	5.045
480.79	4.348
481.14	4.452
481.49	4.794
481.84	5.030
482.19	4.634
482.53	4.450
482.88	4.979
483.23	4.907
483.58	5.096
483.92	4.780
484.27	3.747
484.62	4.267
484.97	4.415
485.31	4.041
485.66	3.220
486.01	3.077
486.36	2.981
486.70	2.727
487.05	3.293
487.40	3.320
487.75	3.423
488.09	3.700
488.44	3.536
488.79	4.014
489.13	4.202
489.48	3.915
489.83	4.057
490.17	4.253
490.52	4.119
490.87	4.071
491.22	4.229
491.56	3.781
491.91	4.514
492.26	3.904
492.60	4.793
492.95	3.601
493.30	4.159
493.64	4.480
493.99	4.364
494.34	4.440
494.68	4.533
495.03	3.994
495.37	4.328
495.72	4.142
496.07	4.872
496.41	3.894
496.76	4.002
497.11	4.548
497.45	4.006
497.80	4.463
498.14	4.106
498.49	4.439
498.84	3.979
499.18	4.476
499.53	4.368
499.87	4.334
500.22	4.428
500.56	5.000
500.91	3.894
501.26	4.220
501.60	4.746
501.95	4.491
502.29	4.686
502.64	4.143
502.98	4.441
503.33	4.296
503.67	4.223
504.02	4.303
504.36	4.445
504.71	4.494
505.06	4.627
505.40	4.278
505.75	4.532
506.09	4.179
506.44	4.341
506.78	4.627
507.13	4.139
507.47	4.495
507.82	4.863
508.16	4.357
508.51	4.769
508.85	4.171
509.19	4.082
509.54	4.898
509.88	4.688
510.23	4.216
510.57	5.057
510.92	4.298
511.26	4.625
511.61	4.564
511.95	4.332
512.30	4.454
512.64	5.051
512.98	5.091
513.33	5.300
513.67	4.803
514.02	4.113
514.36	5.025
514.70	4.095
515.05	5.020
515.39	5.609
515.74	5.011
516.08	4.975
516.42	4.883
516.77	5.240
517.11	4.051
517.46	5.361
517.80	4.820
518.14	4.574
518.49	4.667
518.83	4.773
519.17	5.543
519.52	4.754
519.86	4.849
520.20	5.549
520.55	4.847
520.89	4.988
521.23	5.790
521.58	5.282
521.92	5.144
522.26	4.576
522.61	5.234
522.95	5.402
523.29	5.173
523.64	5.366
523.98	4.868
524.32	5.066
524.66	6.133
525.01	5.208
525.35	4.647
525.69	5.049
526.04	5.171
526.38	5.613
526.72	5.828
527.06	5.273
527.41	4.827
527.75	5.466
528.09	5.588
528.43	5.163
528.78	5.286
529.12	5.758
529.46	5.205
529.80	5.260
530.15	5.358
530.49	5.477
530.83	5.316
531.17	5.679
531.51	6.420
531.86	5.290
532.20	5.802
532.54	5.894
532.88	5.135
533.22	5.497
533.57	5.370
533.91	5.418
534.25	5.529
534.59	5.064
534.93	5.354
535.27	4.949
535.62	4.945
535.96	5.085
536.30	4.704
536.64	5.023
536.98	5.707
537.32	5.003
537.66	5.333
538.01	5.398
538.35	5.430
538.69	5.424
539.03	5.003
539.37	4.856
539.71	4.407
540.05	5.033
540.39	4.850
540.73	5.563
541.07	6.489
541.42	5.806
541.76	5.935
542.10	5.886
542.44	5.298
542.78	6.192
543.12	5.374
543.46	5.836
543.80	5.921
544.14	4.942
544.48	5.968
544.82	4.811
545.16	4.945
545.50	4.820
545.84	5.511
546.18	6.061
546.52	5.437
546.86	5.086
547.20	5.192
547.54	5.210
547.88	6.378
548.22	5.355
548.56	5.220
548.90	4.930
549.24	4.175
549.58	5.525
549.92	5.220
550.26	5.185
550.60	4.910
550.94	6.056
551.28	5.048
551.62	5.320
551.96	5.684
552.30	6.075
552.64	5.003
552.98	5.966
553.32	6.069
553.66	6.271
554.00	5.971
554.34	5.935
554.68	5.794
555.02	4.795
555.36	5.776
555.69	5.413
556.03	5.047
556.37	4.570
556.71	4.638
557.05	6.232
557.39	5.878
557.73	5.505
558.07	5.874
558.41	6.151
558.75	5.143
559.08	5.667
559.42	4.762
559.76	6.103
560.10	5.139
560.44	5.800
560.78	4.790
561.12	5.277
561.45	5.802
561.79	5.867
562.13	5.164
562.47	5.601
562.81	5.370
563.15	5.351
563.48	5.106
563.82	5.219
564.16	5.101
564.50	4.753
564.84	5.689
565.17	4.698
565.51	5.304
565.85	4.949
566.19	4.947
566.52	5.003
566.86	5.003
567.20	4.953
567.54	4.680
567.88	4.291
568.21	5.026
568.55	4.499
568.89	4.232
569.23	4.189
569.56	4.089
569.90	4.189
570.24	3.911
570.57	3.876
570.91	3.620
571.25	3.860
571.59	3.682
571.92	3.773
572.26	3.466
572.60	3.544
572.93	3.718
573.27	3.638
573.61	4.104
573.95	3.928
574.28	3.266
574.62	3.450
574.96	3.250
575.29	3.201
575.63	3.582
575.97	3.723
576.30	3.744
576.64	3.311
576.98	3.330
577.31	3.212
577.65	3.453
577.98	3.076
578.32	3.018
578.66	3.229
578.99	3.196
579.33	3.437
579.67	3.235
580.00	3.165
580.34	3.678
580.67	3.427
581.01	3.441
581.35	3.354
581.68	3.143
582.02	3.044
582.35	3.074
582.69	3.316
583.02	3.076
583.36	3.505
583.70	3.521
584.03	3.605
584.37	3.584
584.70	3.422
585.04	3.571
585.37	3.169
585.71	3.595
586.04	3.648
586.38	3.553
586.72	3.701
587.05	3.586
587.39	3.298
587.72	3.453
588.06	3.282
588.39	3.759
588.73	3.725
589.06	3.646
589.40	3.771
589.73	3.731
590.07	3.843
590.40	3.727
590.73	3.981
591.07	4.681
591.40	4.049
591.74	4.632
592.07	4.450
592.41	4.506
592.74	4.419
593.08	3.797
593.41	3.701
593.75	3.592
594.08	3.822
594.41	3.888
594.75	3.512
595.08	3.973
595.42	4.028
595.75	3.668
596.09	4.694
596.42	4.361
596.75	4.390
597.09	4.762
597.42	4.132
597.75	4.312
598.09	4.000
598.42	4.124
598.76	4.094
599.09	3.991
599.42	3.930
599.76	4.356
600.09	3.898
600.42	3.652
600.76	3.929
601.09	4.262
601.42	3.767
601.76	4.175
602.09	3.676
602.42	4.180
602.76	4.434
603.09	3.895
603.42	4.061
603.76	4.230
604.09	3.839
604.42	4.321
604.76	4.935
605.09	3.888
605.42	4.233
605.75	4.263
606.09	3.782
606.42	3.964
606.75	4.106
607.09	4.688
607.42	4.193
607.75	3.797
608.08	3.908
608.42	5.199
608.75	4.463
609.08	4.995
609.41	4.712
609.75	4.621
610.08	4.430
610.41	3.538
610.74	4.305
611.07	4.496
611.41	4.661
611.74	4.927
612.07	4.451
612.40	4.932
612.73	4.842
613.07	4.688
613.40	4.950
613.73	3.933
614.06	4.731
614.39	5.034
614.72	4.947
615.06	5.410
615.39	4.459
615.72	4.806
616.05	4.413
616.38	5.114
616.71	4.276
617.05	5.300
617.38	4.690
617.71	4.985
618.04	5.228
618.37	5.322
618.70	5.414
619.03	5.724
619.36	4.888
619.69	5.563
620.03	6.937
620.36	5.481
620.69	5.890
621.02	5.752
621.35	5.795
621.68	5.685
622.01	4.954
622.34	6.203
622.67	4.791
623.00	4.916
623.33	5.432
623.66	5.861
623.99	5.081
624.32	5.207
624.65	5.226
624.99	6.091
625.32	5.069
625.65	6.086
625.98	5.995
626.31	6.299
626.64	6.286
626.97	5.320
627.30	6.068
627.63	7.137
627.96	6.308
628.29	6.824
628.62	7.319
628.95	7.453
629.28	6.387
629.61	7.699
629.94	6.095
630.26	5.720
630.59	6.578
630.92	6.513
631.25	5.923
631.58	7.007
631.91	5.882
632.24	6.646
632.57	7.975
632.90	7.237
633.23	8.054
633.56	6.893
633.89	7.814
634.22	7.605
634.55	7.574
634.88	6.707
635.20	7.407
635.53	9.157
635.86	7.673
636.19	7.412
636.52	6.805
636.85	8.133
637.18	7.373
637.51	8.865
637.83	4.932
638.16	7.161
638.49	8.564
638.82	8.723
639.15	8.375
639.48	7.731
639.81	8.177
640.13	9.375
640.46	8.188
640.79	8.851
641.12	7.015
641.45	7.123
641.77	7.953
642.10	8.480
642.43	6.607
642.76	8.359
643.09	8.589
643.41	8.346
643.74	10.957
644.07	8.079
644.40	9.202
644.73	9.921
645.05	9.984
645.38	8.373
645.71	8.857
646.04	11.130
646.36	14.023
646.69	10.535
647.02	9.524
647.35	9.622
647.67	9.912
648.00	11.545
648.33	7.921
648.66	8.030
648.98	10.945
649.31	8.072
649.64	8.969
649.96	9.836
650.29	7.425
650.62	7.767
650.94	10.535
651.27	10.980
651.60	10.982
651.92	11.342
652.25	8.306
652.58	9.034
652.90	10.427
653.23	7.858
653.56	8.976
653.88	9.984
654.21	11.532
654.54	9.241
654.86	9.813
655.19	8.514
655.52	4.603
655.84	2.502
656.17	2.997
656.49	3.861
656.82	3.811
657.15	3.002
657.47	2.351
657.80	1.976
658.13	1.929
658.45	2.945
658.78	3.426
659.10	3.488
659.43	3.880
659.75	4.064
660.08	5.063
660.41	5.773
660.73	9.022
661.06	9.554
661.38	11.818
661.71	11.731
662.03	11.440
662.36	11.531
662.68	11.847
663.01	10.303
663.33	9.554
663.66	10.924
663.98	11.231
664.31	10.084
664.63	10.931
664.96	7.847
665.28	11.270
665.61	10.721
665.93	10.262
666.26	11.156
666.58	11.297
666.91	11.628
667.23	12.135
667.56	11.879
667.88	13.462
668.21	11.940
668.53	9.761
668.86	10.606
669.18	13.006
669.50	14.565
669.83	13.943
670.15	12.000
670.48	10.240
670.80	11.853
671.13	10.616
671.45	10.851
671.77	11.609
672.10	11.645
672.42	10.424
672.75	9.287
673.07	10.035
673.39	8.499
673.72	8.203
674.04	11.765
674.37	12.039
674.69	10.020
675.01	10.251
675.34	11.704
675.66	11.368
675.98	13.849
676.31	10.504
676.63	10.828
676.95	12.788
677.28	12.383
677.60	11.648
677.92	12.236
678.25	9.035
678.57	13.147
678.89	11.022
679.22	13.949
679.54	11.641
679.86	12.844
680.18	8.945
680.51	9.752
680.83	9.609
681.15	10.755
681.48	10.775
681.80	11.219
682.12	10.728
682.44	10.445
682.77	11.202
683.09	14.378
683.41	11.973
683.73	12.362
684.06	12.190
684.38	10.372
684.70	12.209
685.02	12.195
685.34	10.256
685.67	9.266
685.99	9.966
686.31	10.580
686.63	9.894
686.96	10.000
687.28	9.206
687.60	10.688
687.92	10.238
688.24	8.745
688.56	11.647
688.89	12.448
689.21	12.445
689.53	12.526
689.85	11.973
690.17	10.352
690.49	14.650
690.82	12.150
691.14	10.268
691.46	9.072
691.78	11.044
692.10	10.331
692.42	11.377
692.74	10.996
693.06	10.638
693.39	12.936
693.71	12.664
694.03	12.000
694.35	12.338
694.67	11.442
694.99	14.146
695.31	12.990
695.63	11.722
695.95	12.225
696.27	9.645
696.59	12.694
696.91	14.249
697.23	11.737
697.56	13.006
697.88	8.793
698.20	10.000
698.52	14.194
698.84	14.254
699.16	12.442
699.48	8.551
699.80	13.285
700.12	16.364
700.44	14.854
700.76	13.536
701.08	14.368
701.40	13.408
701.72	17.201
702.04	19.602
702.36	13.314
702.68	14.164
703.00	14.127
703.32	13.830
703.64	15.282
703.96	15.599
704.28	13.081
704.60	16.422
704.91	16.914
705.23	13.783
705.55	18.605
705.87	21.262
706.19	16.254
706.51	14.019
706.83	18.788
707.15	14.286
707.47	13.889
707.79	14.988
708.11	15.753
708.43	13.333
708.74	10.204
709.06	16.364
709.38	13.911
709.70	15.988
710.02	15.727
710.34	15.152
710.66	15.821
710.98	16.761
711.29	18.314
711.61	21.534
711.93	13.462
712.25	18.650
712.57	15.809
712.89	16.263
713.20	17.933
713.52	16.447
713.84	16.139
714.16	15.549
714.48	15.805
714.80	19.453
715.11	16.715
715.43	13.353
715.75	19.130
716.07	16.933
716.39	16.614
716.70	19.601
717.02	18.345
717.34	18.021
717.66	19.403
717.97	21.514
718.29	18.148
718.61	16.423
718.93	18.750
719.24	21.453
719.56	18.305
719.88	17.288
720.20	20.270
720.51	22.648
720.83	20.446
721.15	17.164
721.46	15.248
721.78	19.713
722.10	16.981
722.42	19.549
722.73	13.858
723.05	18.852
723.37	18.219
723.68	17.761
724.00	18.699
724.32	20.968
724.63	17.073
724.95	20.502
725.27	24.291
725.58	19.922
725.90	19.708
726.22	16.981
726.53	17.708
726.85	15.700
727.16	22.064
727.48	17.021
727.80	20.455
728.11	20.652
728.43	17.692
728.74	18.638
729.06	22.993
729.38	22.794
729.69	18.149
730.01	17.747
730.32	17.708
730.64	21.070
730.96	16.832
731.27	20.199
731.59	15.902
731.90	15.160
732.22	16.460
732.53	12.074
732.85	14.423
733.16	13.183
733.48	18.272
733.80	18.182
734.11	17.197
734.43	16.568
734.74	13.429
735.06	14.613
735.37	18.786
735.69	14.650
736.00	16.667
736.32	18.380
736.63	16.933
736.95	19.489
737.26	8.503
737.58	15.161
737.89	20.736
738.21	15.358
738.52	18.214
738.83	14.340
739.15	19.615
739.46	20.438
739.78	21.181
740.09	20.000
740.41	21.935
740.72	17.073
741.04	19.630
741.35	22.083
741.66	24.000
741.98	25.000
742.29	20.574
742.61	25.431
742.92	23.982
743.23	23.077
743.55	25.600
743.86	19.737
744.18	24.779
744.49	22.967
744.80	27.230
745.12	26.364
745.43	23.789
745.74	19.820
746.06	22.018
746.37	21.973
746.68	22.624
747.00	22.685
747.31	23.333
747.62	23.451
747.94	20.264
748.25	19.149
748.56	23.348
748.88	20.792
749.19	22.500
749.50	26.047
749.82	22.358
750.13	19.184
750.44	16.423
750.75	21.053
751.07	20.579
751.38	17.073
751.69	14.440
752.01	19.925
752.32	19.134
752.63	22.695
752.94	20.082
753.26	25.600
753.57	16.667
753.88	22.266
754.19	19.643
754.51	21.875
754.82	18.412
755.13	18.868
755.44	18.797
755.75	18.978
756.07	17.730
756.38	11.679
756.69	15.772
757.00	20.659
757.31	15.727
757.63	16.959
757.94	14.745
758.25	14.706
758.56	14.815
758.87	15.860
759.18	16.970
759.50	15.047
759.81	16.511
760.12	14.375
760.43	16.332
760.74	12.772
761.05	13.842
761.36	16.845
761.67	15.909
761.99	15.839
762.30	15.972
762.61	19.847
762.92	22.656
763.23	21.429
763.54	21.200
763.85	17.578
764.16	27.308
764.47	21.673
764.78	14.488
765.10	12.025
765.41	14.159
765.72	17.066
766.03	19.436
766.34	19.000
766.65	21.277
766.96	20.085
767.27	27.411
767.58	24.479
767.89	25.789
768.20	30.460
768.51	23.858
768.82	25.688
769.13	22.358
769.44	20.648
769.75	23.605
770.06	16.514
770.37	24.887
770.68	22.685
770.99	20.444
771.30	20.902
771.61	18.834
771.92	23.361
772.23	28.571
772.54	25.128
772.85	26.702
773.16	32.447
773.47	27.174
773.78	26.396
774.09	25.595
774.39	35.088
774.70	29.630
775.01	33.333
775.32	41.830
775.63	35.526
775.94	33.813
776.25	42.520
776.56	40.299
776.87	42.623
777.18	35.938
777.48	38.168
777.79	37.879
778.10	34.815
778.41	36.607
778.72	29.197
779.03	32.215
779.34	28.859
779.65	23.649
779.95	26.380
780.26	35.294
780.57	37.241
780.88	52.344
781.19	40.602
781.50	36.486
781.80	32.704
782.11	27.119
782.42	34.177
782.73	25.767
783.04	34.459
783.34	37.324
783.65	41.096
783.96	35.821
784.27	32.867
784.57	26.619
784.88	33.333
785.19	38.095
785.50	46.226
785.81	40.299
786.11	46.721
786.42	49.612
786.73	45.133
787.04	45.283
787.34	45.536
787.65	43.000
787.96	48.649
788.26	45.455
788.57	38.136
788.88	44.628
789.19	45.139
789.49	43.939
789.80	34.351
790.11	52.381
790.41	60.396
790.72	50.602
791.03	47.826
791.33	44.186
791.64	52.577
791.95	53.465
792.25	63.333
792.56	61.039
792.87	62.821
793.17	67.089
793.48	72.414
793.79	55.172
794.09	59.091
794.40	42.017
794.70	38.235
795.01	36.296
795.32	38.849
795.62	42.520
795.93	38.793
796.23	52.212
796.54	55.294
796.85	51.351
797.15	70.423
797.46	71.212
797.76	71.084
798.07	54.430
798.37	64.615
798.68	66.667
798.99	45.070
799.29	62.338
799.60	63.636
799.90	63.014
800.21	80.597
800.51	68.966
800.82	91.228
801.12	63.934
801.43	81.818
801.73	62.162
802.04	82.540
802.34	70.370
802.65	75.000
802.95	88.136
803.26	106.250
803.56	57.143
803.87	69.231
804.17	67.647
804.48	87.037
804.78	63.793
805.09	80.882
805.39	84.615
805.70	78.571
806.00	90.164
806.30	71.212
806.61	69.512
806.91	46.835
807.22	63.158
807.52	58.209
807.83	66.197
808.13	73.438
808.43	65.000
808.74	65.789
809.04	81.159
809.35	73.134
809.65	76.316
809.95	103.226
810.26	61.017
810.56	74.603
810.86	125.000
811.17	104.762
811.47	108.333
811.77	66.667
812.08	89.091
812.38	108.000
812.69	111.111
812.99	143.182
813.29	102.041
813.59	83.333
813.90	100.000
814.20	81.818
814.50	75.385
814.81	85.294
815.11	104.082
815.41	88.525
815.72	104.762
816.02	89.091
816.32	119.048
816.62	90.000
816.93	131.707
817.23	119.048
817.53	113.636
817.84	127.273
818.14	93.478
818.44	106.667
818.74	147.059
819.04	120.000
819.35	125.714
819.65	135.294
819.95	135.714
820.25	185.000
820.56	158.974
820.86	127.273
821.16	120.930
821.46	92.308
821.76	126.000
822.07	157.143
822.37	122.500
822.67	145.455
822.97	86.275
823.27	157.143
823.57	105.405
823.88	180.000
824.18	163.333
824.48	147.619
824.78	176.000
825.08	166.667
825.38	151.351
825.69	109.756
825.99	216.667
826.29	141.379
826.59	128.947
826.89	139.474
827.19	158.824
827.49	141.935
827.79	102.273
828.09	115.909
828.39	127.660
828.70	114.286
829.00	133.333
829.30	151.613
829.60	100.000
829.90	313.333
830.20	175.000
830.50	121.739
830.80	182.609
831.10	186.667
831.40	166.667
831.70	156.522
832.00	176.923
832.30	181.481
832.60	231.250
832.90	206.667
833.20	264.286
833.50	161.290
833.80	193.103
834.10	181.250
834.40	184.615
834.70	277.778
835.00	223.810
835.30	160.000
835.60	169.231
835.90	189.655
836.20	321.429
836.50	189.655
836.80	196.000
837.10	163.889
837.40	266.667
837.70	258.824
838.00	200.000
838.30	200.000
838.60	252.381
838.90	242.308
839.19	225.000
839.49	378.571
839.79	285.000
840.09	240.000
840.39	257.143
840.69	243.478
840.99	227.778
841.29	370.000
841.59	291.667
841.88	343.750
842.18	155.172
842.48	166.667
842.78	173.333
843.08	247.826
843.38	175.000
843.68	700.000
843.97	200.000
844.27	220.690
844.57	257.143
844.87	243.750
845.17	196.296
845.47	1366.667
845.76	322.222
846.06	335.294
846.36	525.000
846.66	385.714
846.96	293.750
847.25	390.909
847.55	400.000
847.85	247.826
848.15	500.000
848.44	342.857
848.74	283.333
849.04	276.471
849.34	410.000
849.63	215.789
849.93	463.636
850.23	860.000
850.53	400.000
850.82	2400.000
851.12	-3700.000
851.42	4400.000
851.71	275.000
852.01	-1200.000
852.31	245.833
852.61	1466.667
852.90	223.810
853.20	184.000
853.50	258.824
853.79	247.619
854.09	183.333
854.39	293.750
854.68	151.351
854.98	151.613
855.28	156.667
855.57	200.000
855.87	188.889
856.17	215.789
856.46	286.667
856.76	300.000
857.05	189.655
857.35	212.500
857.65	320.000
857.94	200.000
858.24	234.615
858.53	255.000
858.83	245.455
859.13	226.667
859.42	0.000
859.72	488.889
860.01	509.091
860.31	231.818
860.60	210.526
860.90	239.130
861.20	488.889
861.49	416.667
861.79	-3800.000
862.08	487.500
862.38	261.905
862.67	315.385
862.97	317.647
863.26	488.889
863.56	238.889
863.85	333.333
864.15	525.000
864.44	373.333
864.74	766.667
865.03	412.500
865.33	242.105
865.62	327.273
865.92	446.154
866.21	400.000
866.51	0.000
866.80	390.909
867.10	1080.000
867.39	361.538
867.69	409.091
867.98	221.053
868.27	409.091
868.57	273.684
868.86	-4900.000
869.16	318.750
869.45	2000.000
869.75	-3000.000
870.04	441.667
870.33	614.286
870.63	1000.000
870.92	2200.000
871.22	671.429
871.51	376.471
871.80	204.762
872.10	357.143
>>>>>End Processed Spectral Data<<<<<
