SpectraSuite Data File
++++++++++++++++++++++++++++++++++++
Date: Thu May 14 14:52:57 PDT 2015
User: schluterlab
Dark Spectrum Present: Yes
Reference Spectrum Present: Yes
Number of Sampled Component Spectra: 1
Spectrometers: USB2E3373
Integration Time (usec): 3000 (USB2E3373)
Spectra Averaged: 3 (USB2E3373)
Boxcar Smoothing: 0 (USB2E3373)
Correct for Electrical Dark: No (USB2E3373)
Strobe/Lamp Enabled: No (USB2E3373)
Correct for Detector Non-linearity: No (USB2E3373)
Correct for Stray Light: No (USB2E3373)
Number of Pixels in Processed Spectrum: 2048
>>>>>Begin Processed Spectral Data<<<<<
178.53	0.000
178.91	100.000
179.29	-2000.000
179.67	-1800.000
180.04	228.571
180.42	170.000
180.80	280.000
181.18	-2000.000
181.56	-400.000
181.94	-0.000
182.31	-300.000
182.69	266.667
183.07	-400.000
183.45	150.000
183.83	-200.000
184.20	-266.667
184.58	1100.000
184.96	-250.000
185.34	-55.556
185.72	-140.000
186.09	122.222
186.47	500.000
186.85	320.000
187.23	-100.000
187.61	-900.000
187.98	320.000
188.36	425.000
188.74	0.000
189.12	-100.000
189.49	-12.500
189.87	-275.000
190.25	-100.000
190.63	-220.000
191.00	-88.889
191.38	0.000
191.76	-200.000
192.14	-150.000
192.51	750.000
192.89	-133.333
193.27	0.000
193.65	-114.286
194.02	-2200.000
194.40	-200.000
194.78	85.714
195.15	0.000
195.53	-36.364
195.91	0.000
196.29	-175.000
196.66	-107.692
197.04	-1800.000
197.42	-285.714
197.79	-500.000
198.17	-150.000
198.55	-71.429
198.92	-122.222
199.30	-137.500
199.68	-81.818
200.05	14.286
200.43	-1200.000
200.81	242.857
201.18	0.000
201.56	211.111
201.94	0.000
202.31	500.000
202.69	-122.222
203.07	300.000
203.44	-55.556
203.82	-375.000
204.19	-58.333
204.57	-233.333
204.95	-212.500
205.32	-1800.000
205.70	150.000
206.08	-233.333
206.45	-200.000
206.83	540.000
207.20	-350.000
207.58	-280.000
207.96	-166.667
208.33	-133.333
208.71	175.000
209.08	-133.333
209.46	0.000
209.84	483.333
210.21	700.000
210.59	1000.000
210.96	700.000
211.34	-125.000
211.71	-175.000
212.09	-1400.000
212.46	0.000
212.84	950.000
213.22	-360.000
213.59	-225.000
213.97	-50.000
214.34	-766.667
214.72	250.000
215.09	-450.000
215.47	0.000
215.84	200.000
216.22	1250.000
216.59	-280.000
216.97	-320.000
217.34	-425.000
217.72	-125.000
218.09	-350.000
218.47	-425.000
218.84	0.000
219.22	120.000
219.59	-23.529
219.97	-10.000
220.34	500.000
220.72	-188.889
221.09	-38.462
221.47	-600.000
221.84	-80.000
222.22	-271.429
222.59	0.000
222.97	-25.000
223.34	-280.000
223.72	-1300.000
224.09	-250.000
224.46	-350.000
224.84	-260.000
225.21	-128.571
225.59	-225.000
225.96	-425.000
226.34	-26.923
226.71	150.000
227.08	-900.000
227.46	-20.000
227.83	-350.000
228.21	21.053
228.58	337.500
228.95	950.000
229.33	-50.000
229.70	-200.000
230.08	-21.053
230.45	120.000
230.82	-400.000
231.20	-28.571
231.57	-16.667
231.95	-154.545
232.32	-118.182
232.69	-20.000
233.07	-325.000
233.44	-23.529
233.81	-140.000
234.19	-22.222
234.56	-27.273
234.93	-10.345
235.31	-63.158
235.68	-61.111
236.05	-55.000
236.43	0.000
236.80	12.000
237.17	-33.333
237.55	-45.455
237.92	-180.000
238.29	-25.806
238.67	-18.182
239.04	-16.667
239.41	-11.905
239.79	-13.043
240.16	-20.370
240.53	-45.652
240.91	-25.490
241.28	-14.754
241.65	0.000
242.02	4.054
242.40	-16.923
242.77	-9.333
243.14	-8.537
243.51	-25.000
243.89	-19.231
244.26	-0.990
244.63	-3.922
245.00	-2.804
245.38	-3.509
245.75	-13.274
246.12	-2.381
246.49	-11.628
246.87	0.000
247.24	5.960
247.61	-0.658
247.98	-4.698
248.36	-4.938
248.73	0.000
249.10	-4.918
249.47	5.473
249.84	3.665
250.22	-2.591
250.59	-3.889
250.96	-2.727
251.33	-8.163
251.70	1.282
252.08	0.000
252.45	4.918
252.82	-3.719
253.19	0.000
253.56	0.000
253.94	-2.308
254.31	1.515
254.68	0.699
255.05	1.629
255.42	2.381
255.79	-1.294
256.16	-0.662
256.54	-3.974
256.91	1.311
257.28	-4.262
257.65	-0.637
258.02	-2.065
258.39	1.425
258.76	1.835
259.14	0.862
259.51	0.000
259.88	0.000
260.25	1.667
260.62	0.000
260.99	3.825
261.36	2.413
261.73	0.000
262.10	-0.549
262.47	0.536
262.85	1.263
263.22	-1.558
263.59	-3.421
263.96	-0.512
264.33	-1.790
264.70	-0.247
265.07	2.625
265.44	3.401
265.81	1.157
266.18	2.721
266.55	-0.223
266.92	-0.228
267.29	0.000
267.66	0.887
268.03	0.437
268.40	3.132
268.77	0.000
269.14	0.661
269.51	1.754
269.88	2.049
270.25	1.408
270.62	2.743
270.99	1.616
271.36	2.178
271.73	3.143
272.10	4.008
272.47	-0.802
272.84	3.012
273.21	1.804
273.58	1.613
273.95	1.731
274.32	-1.141
274.69	0.774
275.06	1.832
275.43	-0.924
275.80	3.175
276.17	0.741
276.54	1.679
276.91	1.968
277.28	1.808
277.65	-0.180
278.02	1.838
278.39	1.812
278.76	0.879
279.13	2.482
279.50	3.265
279.87	1.789
280.23	-1.585
280.60	1.864
280.97	1.480
281.34	1.358
281.71	2.369
282.08	0.831
282.45	1.473
282.82	0.942
283.19	0.485
283.56	-0.492
283.92	1.502
284.29	3.318
284.66	2.299
285.03	-0.321
285.40	2.473
285.77	1.548
286.14	2.595
286.51	2.588
286.87	1.106
287.24	1.054
287.61	0.299
287.98	1.208
288.35	1.036
288.72	3.698
289.08	3.075
289.45	2.663
289.82	1.355
290.19	1.293
290.56	1.268
290.93	1.284
291.29	1.377
291.66	1.928
292.03	1.357
292.40	2.041
292.77	2.830
293.13	1.624
293.50	1.971
293.87	0.671
294.24	2.667
294.60	4.046
294.97	1.208
295.34	3.457
295.71	1.387
296.08	1.034
296.44	0.980
296.81	1.462
297.18	1.121
297.55	2.241
297.91	2.491
298.28	1.659
298.65	2.021
299.02	1.889
299.38	2.288
299.75	1.986
300.12	0.463
300.48	1.382
300.85	2.250
301.22	1.566
301.59	2.397
301.95	2.712
302.32	2.778
302.69	1.972
303.05	1.523
303.42	1.996
303.79	1.771
304.15	2.839
304.52	1.057
304.89	2.199
305.25	2.277
305.62	2.717
305.99	2.680
306.35	1.915
306.72	2.378
307.09	1.117
307.45	1.553
307.82	1.917
308.19	2.119
308.55	2.797
308.92	1.558
309.29	2.778
309.65	2.144
310.02	2.079
310.38	1.575
310.75	2.233
311.12	1.822
311.48	1.369
311.85	2.279
312.22	1.803
312.58	1.878
312.95	1.625
313.31	2.168
313.68	3.205
314.05	2.891
314.41	2.732
314.78	2.089
315.14	2.632
315.51	2.401
315.87	3.690
316.24	2.922
316.61	2.931
316.97	1.357
317.34	1.323
317.70	2.271
318.07	1.940
318.43	3.401
318.80	3.512
319.16	1.631
319.53	1.714
319.89	1.490
320.26	2.936
320.62	2.039
320.99	2.401
321.35	1.571
321.72	2.233
322.08	1.082
322.45	1.807
322.81	1.805
323.18	2.035
323.54	1.552
323.91	3.025
324.27	2.065
324.64	2.519
325.00	1.907
325.37	3.604
325.73	2.975
326.10	2.595
326.46	3.094
326.83	3.683
327.19	2.520
327.56	3.083
327.92	3.068
328.29	1.855
328.65	2.010
329.01	1.269
329.38	2.780
329.74	2.911
330.11	2.312
330.47	2.612
330.84	2.067
331.20	3.167
331.56	2.340
331.93	2.510
332.29	3.898
332.66	3.073
333.02	3.183
333.38	2.097
333.75	1.852
334.11	2.002
334.48	2.558
334.84	3.823
335.20	2.183
335.57	3.710
335.93	3.306
336.29	2.745
336.66	1.766
337.02	3.177
337.38	3.486
337.75	2.562
338.11	2.944
338.47	2.316
338.84	1.777
339.20	1.179
339.56	2.142
339.93	2.956
340.29	3.382
340.65	2.676
341.02	2.713
341.38	3.638
341.74	2.663
342.11	2.896
342.47	1.986
342.83	2.576
343.20	2.289
343.56	2.807
343.92	2.482
344.28	1.797
344.65	2.636
345.01	2.574
345.37	2.955
345.73	2.182
346.10	2.652
346.46	2.215
346.82	2.772
347.19	2.521
347.55	3.338
347.91	2.452
348.27	2.200
348.63	3.884
349.00	2.535
349.36	2.379
349.72	2.753
350.08	3.863
350.45	1.901
350.81	2.187
351.17	2.632
351.53	2.426
351.89	3.265
352.26	1.866
352.62	3.209
352.98	2.519
353.34	2.016
353.70	2.773
354.07	2.459
354.43	2.809
354.79	2.767
355.15	2.060
355.51	3.216
355.87	2.244
356.24	2.586
356.60	1.552
356.96	2.891
357.32	2.007
357.68	1.977
358.04	2.171
358.40	2.164
358.77	2.778
359.13	2.068
359.49	1.413
359.85	2.103
360.21	2.726
360.57	2.441
360.93	1.904
361.29	2.526
361.66	2.824
362.02	2.992
362.38	2.460
362.74	2.165
363.10	2.820
363.46	2.008
363.82	2.344
364.18	3.589
364.54	2.766
364.90	2.876
365.26	2.138
365.62	2.800
365.98	1.634
366.35	2.886
366.71	3.265
367.07	2.436
367.43	2.561
367.79	3.185
368.15	3.478
368.51	2.639
368.87	3.396
369.23	2.733
369.59	2.049
369.95	2.096
370.31	2.836
370.67	2.201
371.03	2.770
371.39	2.015
371.75	2.682
372.11	2.168
372.47	2.573
372.83	3.207
373.19	3.402
373.55	2.846
373.91	2.318
374.27	3.234
374.63	2.233
374.99	2.454
375.35	2.662
375.71	2.387
376.07	2.905
376.42	2.897
376.78	2.610
377.14	2.807
377.50	2.340
377.86	3.695
378.22	2.754
378.58	3.627
378.94	2.993
379.30	2.988
379.66	2.646
380.02	3.116
380.38	3.341
380.74	3.211
381.09	2.497
381.45	2.784
381.81	3.162
382.17	3.325
382.53	3.041
382.89	3.217
383.25	3.165
383.61	2.199
383.97	3.121
384.32	3.349
384.68	1.914
385.04	3.528
385.40	3.300
385.76	3.283
386.12	2.753
386.48	3.588
386.83	3.456
387.19	3.244
387.55	2.817
387.91	3.139
388.27	3.060
388.62	3.207
388.98	3.158
389.34	3.300
389.70	3.486
390.06	2.546
390.42	3.193
390.77	3.191
391.13	3.697
391.49	3.502
391.85	3.455
392.20	4.093
392.56	3.898
392.92	3.926
393.28	3.317
393.64	3.017
393.99	3.661
394.35	3.797
394.71	3.593
395.07	3.054
395.42	3.484
395.78	4.022
396.14	3.743
396.50	3.325
396.85	4.055
397.21	3.432
397.57	4.005
397.92	3.551
398.28	2.933
398.64	3.261
399.00	2.880
399.35	3.403
399.71	3.152
400.07	3.593
400.42	3.551
400.78	3.530
401.14	3.756
401.49	3.411
401.85	3.081
402.21	2.955
402.57	4.108
402.92	3.960
403.28	3.044
403.63	2.745
403.99	3.147
404.35	3.866
404.70	3.683
405.06	4.239
405.42	3.981
405.77	3.599
406.13	3.836
406.49	2.872
406.84	3.490
407.20	3.466
407.55	3.210
407.91	3.646
408.27	3.769
408.62	3.374
408.98	4.005
409.34	2.815
409.69	3.337
410.05	3.693
410.40	3.596
410.76	3.309
411.11	3.682
411.47	3.686
411.83	4.468
412.18	3.614
412.54	3.260
412.89	3.725
413.25	3.837
413.60	3.619
413.96	3.788
414.31	4.306
414.67	4.114
415.03	3.692
415.38	2.837
415.74	3.360
416.09	3.948
416.45	2.943
416.80	3.427
417.16	3.448
417.51	3.362
417.87	3.556
418.22	3.234
418.58	3.036
418.93	4.366
419.29	3.329
419.64	3.181
420.00	3.145
420.35	3.537
420.71	3.561
421.06	3.623
421.42	3.784
421.77	2.962
422.12	3.964
422.48	3.431
422.83	3.724
423.19	3.395
423.54	3.761
423.90	3.589
424.25	4.000
424.61	3.042
424.96	4.283
425.31	4.459
425.67	3.328
426.02	2.822
426.38	3.617
426.73	3.850
427.09	4.268
427.44	3.332
427.79	3.427
428.15	3.139
428.50	3.371
428.85	4.363
429.21	4.309
429.56	3.159
429.92	3.194
430.27	3.711
430.62	3.468
430.98	2.902
431.33	3.470
431.68	3.879
432.04	3.098
432.39	3.642
432.74	3.311
433.10	3.083
433.45	3.010
433.80	3.487
434.16	3.977
434.51	3.135
434.86	3.529
435.22	3.560
435.57	3.125
435.92	3.840
436.28	3.697
436.63	3.332
436.98	3.435
437.34	3.439
437.69	3.687
438.04	3.702
438.39	3.561
438.75	2.767
439.10	3.753
439.45	3.354
439.81	2.938
440.16	3.324
440.51	3.567
440.86	2.835
441.22	3.323
441.57	3.983
441.92	3.637
442.27	3.889
442.63	3.080
442.98	3.949
443.33	3.577
443.68	3.766
444.03	4.657
444.39	3.930
444.74	4.186
445.09	3.396
445.44	3.372
445.79	3.831
446.15	3.289
446.50	3.566
446.85	4.086
447.20	3.578
447.55	3.556
447.91	3.351
448.26	3.224
448.61	3.029
448.96	4.024
449.31	3.287
449.66	2.832
450.02	3.903
450.37	3.623
450.72	3.767
451.07	3.417
451.42	3.351
451.77	3.280
452.12	3.612
452.47	3.149
452.83	3.435
453.18	3.036
453.53	2.929
453.88	3.479
454.23	3.164
454.58	3.656
454.93	2.852
455.28	3.432
455.63	3.638
455.98	3.799
456.34	3.062
456.69	3.469
457.04	3.014
457.39	3.215
457.74	2.964
458.09	3.020
458.44	3.664
458.79	3.352
459.14	3.461
459.49	3.396
459.84	3.148
460.19	3.109
460.54	3.578
460.89	2.912
461.24	2.644
461.59	3.431
461.94	2.909
462.29	3.415
462.64	3.802
462.99	3.013
463.34	3.569
463.69	3.341
464.04	3.335
464.39	3.531
464.74	3.364
465.09	2.364
465.44	3.380
465.79	3.332
466.14	3.283
466.49	3.579
466.84	2.424
467.19	3.237
467.54	2.879
467.89	2.989
468.24	3.546
468.59	2.664
468.94	3.205
469.29	2.579
469.64	3.115
469.99	2.804
470.34	3.280
470.68	3.076
471.03	3.602
471.38	3.074
471.73	2.601
472.08	2.602
472.43	3.432
472.78	3.212
473.13	3.413
473.48	3.505
473.83	3.134
474.17	3.165
474.52	3.247
474.87	3.710
475.22	3.380
475.57	3.946
475.92	3.335
476.27	3.514
476.61	3.219
476.96	3.337
477.31	3.762
477.66	3.778
478.01	3.254
478.36	3.340
478.70	3.153
479.05	3.119
479.40	2.764
479.75	3.602
480.10	3.790
480.45	3.555
480.79	3.492
481.14	3.447
481.49	3.498
481.84	3.568
482.19	3.441
482.53	3.192
482.88	3.234
483.23	3.201
483.58	2.751
483.92	2.704
484.27	3.133
484.62	3.012
484.97	3.266
485.31	3.238
485.66	3.430
486.01	3.306
486.36	3.276
486.70	3.709
487.05	3.427
487.40	3.947
487.75	4.173
488.09	3.607
488.44	3.761
488.79	3.710
489.13	3.331
489.48	3.456
489.83	3.581
490.17	3.159
490.52	3.284
490.87	3.469
491.22	3.336
491.56	3.669
491.91	2.878
492.26	3.462
492.60	3.061
492.95	3.510
493.30	3.182
493.64	3.285
493.99	3.158
494.34	3.049
494.68	2.912
495.03	3.524
495.37	3.240
495.72	3.220
496.07	3.418
496.41	2.789
496.76	4.003
497.11	2.760
497.45	3.410
497.80	3.065
498.14	3.311
498.49	2.895
498.84	3.793
499.18	3.149
499.53	3.722
499.87	3.736
500.22	3.161
500.56	2.609
500.91	3.158
501.26	3.136
501.60	2.784
501.95	3.691
502.29	3.466
502.64	3.367
502.98	3.408
503.33	2.678
503.67	2.835
504.02	3.634
504.36	3.575
504.71	3.629
505.06	3.001
505.40	3.702
505.75	3.188
506.09	3.545
506.44	3.435
506.78	3.349
507.13	4.011
507.47	3.553
507.82	3.930
508.16	2.868
508.51	2.719
508.85	3.165
509.19	3.221
509.54	3.842
509.88	3.060
510.23	3.740
510.57	3.818
510.92	3.435
511.26	3.367
511.61	2.607
511.95	3.416
512.30	3.742
512.64	2.749
512.98	3.302
513.33	3.831
513.67	3.111
514.02	3.168
514.36	3.274
514.70	3.281
515.05	3.337
515.39	3.937
515.74	3.924
516.08	4.068
516.42	4.448
516.77	3.155
517.11	3.455
517.46	4.189
517.80	3.688
518.14	4.189
518.49	4.013
518.83	3.885
519.17	3.877
519.52	4.612
519.86	3.590
520.20	4.260
520.55	3.834
520.89	3.153
521.23	3.350
521.58	3.842
521.92	3.739
522.26	3.379
522.61	3.704
522.95	3.403
523.29	3.563
523.64	4.316
523.98	3.537
524.32	4.699
524.66	3.756
525.01	3.737
525.35	3.733
525.69	3.480
526.04	3.387
526.38	4.195
526.72	3.749
527.06	3.402
527.41	3.207
527.75	3.979
528.09	3.837
528.43	3.671
528.78	3.468
529.12	3.498
529.46	3.654
529.80	3.947
530.15	3.884
530.49	2.669
530.83	3.837
531.17	4.421
531.51	3.670
531.86	4.207
532.20	4.634
532.54	3.710
532.88	3.576
533.22	4.361
533.57	3.635
533.91	4.321
534.25	4.014
534.59	3.333
534.93	3.565
535.27	4.451
535.62	4.662
535.96	4.009
536.30	3.878
536.64	4.745
536.98	3.998
537.32	4.136
537.66	4.616
538.01	4.048
538.35	3.289
538.69	3.185
539.03	4.292
539.37	4.005
539.71	4.144
540.05	3.597
540.39	4.156
540.73	4.007
541.07	4.292
541.42	4.430
541.76	3.381
542.10	3.619
542.44	3.410
542.78	4.258
543.12	3.695
543.46	4.823
543.80	3.477
544.14	3.591
544.48	4.196
544.82	4.249
545.16	4.353
545.50	4.374
545.84	3.429
546.18	4.568
546.52	4.076
546.86	3.962
547.20	4.326
547.54	4.494
547.88	4.099
548.22	3.977
548.56	3.920
548.90	3.642
549.24	4.742
549.58	3.722
549.92	3.827
550.26	3.948
550.60	4.467
550.94	4.204
551.28	4.488
551.62	4.245
551.96	4.401
552.30	5.035
552.64	3.983
552.98	5.053
553.32	3.666
553.66	3.344
554.00	4.288
554.34	4.633
554.68	4.067
555.02	3.876
555.36	3.879
555.69	4.805
556.03	4.035
556.37	4.819
556.71	4.946
557.05	4.281
557.39	3.915
557.73	5.020
558.07	3.775
558.41	4.518
558.75	4.530
559.08	4.384
559.42	3.772
559.76	4.817
560.10	4.756
560.44	4.485
560.78	4.625
561.12	4.680
561.45	4.866
561.79	4.945
562.13	5.484
562.47	4.007
562.81	4.241
563.15	5.177
563.48	5.034
563.82	4.172
564.16	4.240
564.50	4.350
564.84	4.130
565.17	4.882
565.51	4.258
565.85	4.751
566.19	4.493
566.52	3.803
566.86	4.584
567.20	4.187
567.54	4.567
567.88	4.893
568.21	4.891
568.55	5.180
568.89	4.494
569.23	4.943
569.56	4.689
569.90	4.597
570.24	4.823
570.57	4.811
570.91	4.378
571.25	4.455
571.59	5.038
571.92	4.717
572.26	4.394
572.60	4.559
572.93	5.010
573.27	4.720
573.61	4.923
573.95	4.588
574.28	4.882
574.62	4.570
574.96	4.764
575.29	4.737
575.63	5.013
575.97	4.647
576.30	4.787
576.64	4.701
576.98	4.601
577.31	4.796
577.65	4.870
577.98	4.989
578.32	4.541
578.66	4.712
578.99	4.751
579.33	4.491
579.67	4.692
580.00	4.495
580.34	5.148
580.67	4.523
581.01	4.652
581.35	5.085
581.68	4.791
582.02	4.853
582.35	5.163
582.69	4.772
583.02	4.747
583.36	5.032
583.70	4.272
584.03	4.992
584.37	4.814
584.70	4.425
585.04	4.673
585.37	4.728
585.71	4.746
586.04	4.778
586.38	5.084
586.72	4.638
587.05	4.221
587.39	4.862
587.72	4.761
588.06	5.053
588.39	4.979
588.73	4.815
589.06	4.599
589.40	4.856
589.73	4.949
590.07	4.940
590.40	4.936
590.73	5.055
591.07	4.840
591.40	4.471
591.74	4.928
592.07	4.629
592.41	4.771
592.74	4.970
593.08	5.000
593.41	4.724
593.75	4.713
594.08	4.696
594.41	4.776
594.75	5.115
595.08	4.879
595.42	4.903
595.75	4.682
596.09	5.083
596.42	4.479
596.75	4.940
597.09	4.929
597.42	4.768
597.75	4.586
598.09	5.238
598.42	5.227
598.76	4.547
599.09	4.521
599.42	4.626
599.76	4.985
600.09	5.072
600.42	4.905
600.76	4.590
601.09	4.846
601.42	4.737
601.76	4.621
602.09	5.218
602.42	5.016
602.76	4.502
603.09	4.883
603.42	4.263
603.76	4.123
604.09	5.820
604.42	5.101
604.76	4.148
605.09	4.667
605.42	4.944
605.75	4.615
606.09	4.778
606.42	5.035
606.75	4.498
607.09	4.378
607.42	5.318
607.75	4.611
608.08	5.130
608.42	4.635
608.75	5.182
609.08	4.754
609.41	4.588
609.75	5.000
610.08	5.057
610.41	4.545
610.74	4.958
611.07	4.574
611.41	4.664
611.74	4.804
612.07	5.002
612.40	4.325
612.73	4.841
613.07	4.841
613.40	4.620
613.73	4.526
614.06	5.250
614.39	4.568
614.72	5.143
615.06	4.860
615.39	4.253
615.72	4.787
616.05	4.808
616.38	4.692
616.71	4.807
617.05	4.526
617.38	5.083
617.71	5.508
618.04	4.155
618.37	5.027
618.70	4.864
619.03	3.883
619.36	4.562
619.69	4.484
620.03	4.896
620.36	4.294
620.69	4.565
621.02	4.593
621.35	3.991
621.68	4.628
622.01	5.053
622.34	4.672
622.67	4.261
623.00	4.049
623.33	5.176
623.66	5.642
623.99	4.082
624.32	5.003
624.65	4.183
624.99	4.031
625.32	4.768
625.65	4.248
625.98	4.678
626.31	4.748
626.64	4.396
626.97	4.276
627.30	3.569
627.63	4.576
627.96	6.607
628.29	4.358
628.62	3.694
628.95	4.382
629.28	3.653
629.61	4.966
629.94	3.682
630.26	4.492
630.59	3.627
630.92	4.416
631.25	5.188
631.58	4.520
631.91	3.749
632.24	3.939
632.57	4.364
632.90	4.112
633.23	4.592
633.56	4.592
633.89	3.099
634.22	3.846
634.55	3.445
634.88	3.463
635.20	5.167
635.53	3.277
635.86	5.742
636.19	4.878
636.52	3.692
636.85	4.392
637.18	4.054
637.51	4.301
637.83	4.983
638.16	4.493
638.49	3.286
638.82	3.608
639.15	3.895
639.48	4.042
639.81	4.503
640.13	5.065
640.46	3.030
640.79	4.289
641.12	4.845
641.45	3.513
641.77	6.162
642.10	4.987
642.43	5.718
642.76	4.472
643.09	4.384
643.41	3.782
643.74	2.897
644.07	4.828
644.40	3.678
644.73	4.644
645.05	4.552
645.38	4.604
645.71	3.226
646.04	6.169
646.36	2.774
646.69	2.761
647.02	3.823
647.35	4.122
647.67	4.026
648.00	2.548
648.33	4.505
648.66	2.996
648.98	2.857
649.31	4.195
649.64	4.648
649.96	3.979
650.29	2.086
650.62	3.112
650.94	3.003
651.27	2.545
651.60	4.094
651.92	3.040
652.25	4.486
652.58	4.264
652.90	1.453
653.23	3.944
653.56	3.852
653.88	6.461
654.21	4.930
654.54	4.624
654.86	5.807
655.19	3.513
655.52	5.347
655.84	4.814
656.17	5.437
656.49	7.970
656.82	8.823
657.15	7.036
657.47	5.284
657.80	4.071
658.13	3.138
658.45	4.198
658.78	5.079
659.10	4.754
659.43	4.967
659.75	4.175
660.08	3.697
660.41	4.053
660.73	3.991
661.06	3.818
661.38	3.349
661.71	5.000
662.03	4.056
662.36	4.830
662.68	3.189
663.01	4.425
663.33	3.025
663.66	4.945
663.98	3.462
664.31	3.002
664.63	2.697
664.96	3.993
665.28	2.904
665.61	4.371
665.93	2.857
666.26	4.122
666.58	2.768
666.91	4.860
667.23	4.000
667.56	1.972
667.88	3.400
668.21	1.172
668.53	0.965
668.86	3.340
669.18	1.833
669.50	2.783
669.83	3.600
670.15	3.543
670.48	4.960
670.80	2.103
671.13	2.836
671.45	3.543
671.77	3.013
672.10	2.500
672.42	3.560
672.75	2.304
673.07	4.478
673.39	3.544
673.72	3.020
674.04	5.000
674.37	4.293
674.69	4.762
675.01	0.381
675.34	1.336
675.66	2.809
675.98	4.851
676.31	2.930
676.63	5.894
676.95	5.364
677.28	4.435
677.60	2.165
677.92	3.071
678.25	4.753
678.57	3.559
678.89	4.949
679.22	3.136
679.54	2.735
679.86	2.203
680.18	4.146
680.51	4.874
680.83	4.255
681.15	2.759
681.48	3.972
681.80	3.109
682.12	3.846
682.44	5.676
682.77	4.433
683.09	4.356
683.41	2.713
683.73	4.175
684.06	3.690
684.38	3.220
684.70	2.334
685.02	3.270
685.34	0.832
685.67	1.577
685.99	2.454
686.31	3.634
686.63	3.318
686.96	2.839
687.28	3.583
687.60	1.010
687.92	1.286
688.24	3.172
688.56	1.552
688.89	5.263
689.21	2.935
689.53	-0.392
689.85	1.381
690.17	1.667
690.49	0.797
690.82	1.980
691.14	1.215
691.46	2.677
691.78	5.341
692.10	3.486
692.42	1.250
692.74	1.996
693.06	2.593
693.39	3.416
693.71	3.383
694.03	3.160
694.35	3.810
694.67	2.875
694.99	3.191
695.31	2.870
695.63	1.082
695.95	2.484
696.27	1.978
696.59	4.867
696.91	3.604
697.23	5.495
697.56	2.444
697.88	2.273
698.20	4.520
698.52	4.356
698.84	2.079
699.16	3.673
699.48	2.092
699.80	2.766
700.12	4.803
700.44	2.304
700.76	-0.238
701.08	3.632
701.40	2.850
701.72	4.229
702.04	2.674
702.36	0.000
702.68	3.423
703.00	2.200
703.32	2.217
703.64	0.733
703.96	2.387
704.28	2.703
704.60	4.304
704.91	3.316
705.23	3.562
705.55	-0.836
705.87	1.212
706.19	2.454
706.51	0.602
706.83	0.288
707.15	-0.529
707.47	2.804
707.79	0.000
708.11	0.847
708.43	1.290
708.74	1.786
709.06	2.552
709.38	3.991
709.70	5.955
710.02	3.359
710.34	3.989
710.66	0.279
710.98	2.459
711.29	0.275
711.61	0.282
711.93	3.989
712.25	3.784
712.57	5.900
712.89	2.059
713.20	-2.663
713.52	3.179
713.84	3.064
714.16	4.474
714.48	2.577
714.80	4.675
715.11	0.525
715.43	3.714
715.75	1.842
716.07	0.276
716.39	2.186
716.70	1.205
717.02	0.000
717.34	-1.394
717.66	1.678
717.97	-0.342
718.29	0.000
718.61	-0.987
718.93	0.000
719.24	1.553
719.56	2.147
719.88	1.201
720.20	0.645
720.51	1.242
720.83	-0.312
721.15	0.000
721.46	-3.767
721.78	2.000
722.10	-1.294
722.42	-4.027
722.73	1.290
723.05	4.211
723.37	4.514
723.68	2.509
724.00	1.083
724.32	-3.521
724.63	2.448
724.95	3.191
725.27	1.742
725.58	-1.413
725.90	3.793
726.22	-3.135
726.53	3.247
726.85	3.459
727.16	0.906
727.48	3.976
727.80	0.993
728.11	-2.827
728.43	0.673
728.74	0.669
729.06	2.980
729.38	5.195
729.69	-1.678
730.01	3.571
730.32	2.424
730.64	4.088
730.96	-3.727
731.27	3.911
731.59	4.396
731.90	1.299
732.22	3.385
732.53	-1.105
732.85	3.143
733.16	0.000
733.48	0.000
733.80	0.279
734.11	4.274
734.43	3.243
734.74	5.063
735.06	1.508
735.37	0.541
735.69	0.000
736.00	-0.847
736.32	0.809
736.63	2.500
736.95	1.149
737.26	3.030
737.58	0.606
737.89	3.235
738.21	0.917
738.52	-1.311
738.83	3.413
739.15	-0.709
739.46	2.041
739.78	2.454
740.09	-1.146
740.41	2.624
740.72	-1.667
741.04	2.589
741.35	1.754
741.66	1.176
741.98	1.639
742.29	2.510
742.61	-1.754
742.92	-0.769
743.23	0.000
743.55	0.775
743.86	3.600
744.18	-6.198
744.49	-0.844
744.80	2.469
745.12	5.063
745.43	4.878
745.74	-5.172
746.06	-1.695
746.37	1.266
746.68	2.033
747.00	-1.667
747.31	4.292
747.62	2.692
747.94	-2.024
748.25	-1.205
748.56	-0.816
748.88	1.282
749.19	3.448
749.50	-0.866
749.82	6.024
750.13	3.559
750.44	-1.000
750.75	1.846
751.07	2.462
751.38	5.047
751.69	1.597
752.01	2.589
752.32	2.288
752.63	1.020
752.94	2.768
753.26	-1.115
753.57	-3.704
753.88	0.000
754.19	3.215
754.51	0.322
754.82	0.643
755.13	5.574
755.44	2.048
755.75	1.645
756.07	2.985
756.38	1.572
756.69	4.819
757.00	-0.277
757.31	3.005
757.63	0.256
757.94	0.704
758.25	6.095
758.56	2.614
758.87	3.636
759.18	1.600
759.50	4.533
759.81	3.081
760.12	0.270
760.43	3.385
760.74	1.724
761.05	-0.500
761.36	2.651
761.67	-0.254
761.99	0.811
762.30	-1.829
762.61	-2.640
762.92	1.119
763.23	1.873
763.54	0.719
763.85	0.344
764.16	1.684
764.47	0.704
764.78	2.556
765.10	-0.293
765.41	1.795
765.72	0.265
766.03	-0.847
766.34	-0.940
766.65	-1.742
766.96	2.390
767.27	-3.226
767.58	-3.980
767.89	5.769
768.20	3.756
768.51	-2.315
768.82	-0.402
769.13	-3.409
769.44	-4.615
769.75	2.888
770.06	0.385
770.37	5.906
770.68	-0.851
770.99	-0.810
771.30	6.667
771.61	1.901
771.92	0.370
772.23	0.810
772.54	-5.093
772.85	7.834
773.16	4.286
773.47	-6.878
773.78	-9.189
774.09	0.568
774.39	6.500
774.70	3.825
775.01	-1.220
775.32	-7.647
775.63	-1.840
775.94	-5.732
776.25	-6.452
776.56	3.205
776.87	0.000
777.18	1.379
777.48	-3.497
777.79	-2.027
778.10	-8.824
778.41	-3.472
778.72	-2.069
779.03	-5.556
779.34	-3.636
779.65	-5.699
779.95	1.111
780.26	-1.705
780.57	4.516
780.88	1.449
781.19	-0.645
781.50	5.294
781.80	-1.075
782.11	5.820
782.42	-4.545
782.73	-5.389
783.04	5.587
783.34	-5.455
783.65	-9.804
783.96	2.484
784.27	-4.167
784.57	-5.960
784.88	-7.143
785.19	-6.299
785.50	-6.299
785.81	-3.759
786.11	4.615
786.42	-6.475
786.73	-1.439
787.04	4.511
787.34	0.000
787.65	-5.600
787.96	-0.746
788.26	7.692
788.57	-2.797
788.88	-5.263
789.19	-1.307
789.49	0.000
789.80	1.418
790.11	0.000
790.41	-0.781
790.72	-6.780
791.03	-11.650
791.33	-6.087
791.64	6.140
791.95	-6.250
792.25	-3.810
792.56	-2.679
792.87	-6.250
793.17	-1.786
793.48	-9.375
793.79	-19.277
794.09	-7.339
794.40	-11.927
794.70	0.680
795.01	-2.597
795.32	-2.055
795.62	-5.634
795.93	-7.576
796.23	-0.820
796.54	-8.929
796.85	-10.638
797.15	-14.130
797.46	-24.658
797.76	-15.000
798.07	-11.957
798.37	-21.649
798.68	-10.390
798.99	2.299
799.29	-11.236
799.60	-9.574
799.90	0.000
800.21	-27.692
800.51	-26.866
800.82	-13.235
801.12	-34.247
801.43	-33.824
801.73	-23.729
802.04	-13.636
802.34	-25.000
802.65	-6.780
802.95	-4.478
803.26	-25.424
803.56	-13.699
803.87	-4.286
804.17	-10.959
804.48	-50.877
804.78	-13.889
805.09	-25.862
805.39	-5.405
805.70	-18.310
806.00	-6.098
806.30	-3.614
806.61	-23.288
806.91	-2.885
807.22	-12.222
807.52	-8.046
807.83	0.000
808.13	-4.819
808.43	-7.865
808.74	-20.000
809.04	-32.353
809.35	-25.333
809.65	-8.571
809.95	-10.959
810.26	-31.579
810.56	-31.034
810.86	0.000
811.17	-22.807
811.47	-42.623
811.77	-42.222
812.08	-11.864
812.38	-6.667
812.69	-10.345
812.99	-13.208
813.29	-48.718
813.59	-6.000
813.90	-22.807
814.20	-30.909
814.50	-4.225
814.81	-6.410
815.11	-13.115
815.41	-5.970
815.72	-5.172
816.02	-14.286
816.32	-8.889
816.62	-4.545
816.93	-13.333
817.23	-3.704
817.53	-23.404
817.84	-4.762
818.14	-23.529
818.44	-8.163
818.74	-20.000
819.04	-35.897
819.35	-62.857
819.65	-65.385
819.95	-26.415
820.25	-8.889
820.56	-30.952
820.86	-43.750
821.16	-15.385
821.46	-46.512
821.76	-38.000
822.07	-3.571
822.37	-32.609
822.67	-4.255
822.97	-45.946
823.27	-17.500
823.57	10.204
823.88	-28.889
824.18	-12.500
824.48	-53.333
824.78	-76.000
825.08	-24.242
825.38	-8.889
825.69	-25.532
825.99	-11.111
826.29	-82.857
826.59	-28.205
826.89	-53.488
827.19	-8.000
827.49	-14.706
827.79	-12.500
828.09	-86.486
828.39	-43.333
828.70	-19.512
829.00	-11.628
829.30	-39.286
829.60	0.000
829.90	-15.217
830.20	-57.143
830.50	-75.862
830.80	-77.778
831.10	-19.231
831.40	-23.529
831.70	-23.810
832.00	-19.355
832.30	-123.529
832.60	-58.333
832.90	-192.308
833.20	-5.263
833.50	-115.000
833.80	-78.947
834.10	-142.857
834.40	-25.000
834.70	21.875
835.00	-42.857
835.30	-32.353
835.60	-13.333
835.90	-52.000
836.20	-95.455
836.50	-44.000
836.80	-48.485
837.10	-37.037
837.40	-25.926
837.70	-125.000
838.00	-14.286
838.30	-86.957
838.60	-17.241
838.90	-100.000
839.19	-60.870
839.49	-100.000
839.79	-47.826
840.09	-87.500
840.39	-45.000
840.69	-22.581
840.99	-57.143
841.29	-53.333
841.59	-57.895
841.88	-12.821
842.18	-53.846
842.48	-170.000
842.78	-90.000
843.08	-13.333
843.38	0.000
843.68	-94.444
843.97	2.941
844.27	-75.000
844.57	-89.474
844.87	-180.000
845.17	-80.000
845.47	19.048
845.76	-85.714
846.06	-200.000
846.36	-76.471
846.66	-65.385
846.96	-113.333
847.25	-58.824
847.55	-34.783
847.85	-55.000
848.15	-58.824
848.44	-154.545
848.74	9.524
849.04	-87.500
849.34	-87.500
849.63	-60.870
849.93	950.000
850.23	-46.667
850.53	7.692
850.82	-81.818
851.12	-9.091
851.42	-54.545
851.71	-38.462
852.01	-95.000
852.31	-53.846
852.61	-52.632
852.90	-50.000
853.20	-11.111
853.50	-244.444
853.79	-66.667
854.09	-68.182
854.39	-191.667
854.68	-41.935
854.98	-69.231
855.28	-88.889
855.57	-28.571
855.87	-24.000
856.17	-22.727
856.46	-59.259
856.76	-66.667
857.05	-78.261
857.35	-25.000
857.65	-100.000
857.94	-23.810
858.24	-22.222
858.53	-34.783
858.83	-64.706
859.13	-52.941
859.42	-58.824
859.72	-78.571
860.01	-60.000
860.31	-200.000
860.60	-60.000
860.90	-46.667
861.20	-38.889
861.49	-30.769
861.79	-6.667
862.08	-115.385
862.38	-18.750
862.67	17.647
862.97	-50.000
863.26	-133.333
863.56	-90.000
863.85	-9.091
864.15	-61.111
864.44	-266.667
864.74	-14.286
865.03	-62.500
865.33	-260.000
865.62	-16.129
865.92	4.545
866.21	-21.739
866.51	-100.000
866.80	-460.000
867.10	-141.667
867.39	-58.333
867.69	1900.000
867.98	-185.714
868.27	-58.824
868.57	-1900.000
868.86	-110.000
869.16	-47.619
869.45	-8.333
869.75	-81.818
870.04	-171.429
870.33	-8.333
870.63	-85.714
870.92	-200.000
871.22	-150.000
871.51	-63.636
871.80	-700.000
872.10	-400.000
>>>>>End Processed Spectral Data<<<<<
