SpectraSuite Data File
++++++++++++++++++++++++++++++++++++
Date: Thu May 14 15:00:31 PDT 2015
User: schluterlab
Dark Spectrum Present: Yes
Reference Spectrum Present: Yes
Number of Sampled Component Spectra: 1
Spectrometers: USB2E3373
Integration Time (usec): 3000 (USB2E3373)
Spectra Averaged: 3 (USB2E3373)
Boxcar Smoothing: 0 (USB2E3373)
Correct for Electrical Dark: No (USB2E3373)
Strobe/Lamp Enabled: No (USB2E3373)
Correct for Detector Non-linearity: No (USB2E3373)
Correct for Stray Light: No (USB2E3373)
Number of Pixels in Processed Spectrum: 2048
>>>>>Begin Processed Spectral Data<<<<<
178.53	0.000
178.91	314.286
179.29	-2200.000
179.67	-1300.000
180.04	264.286
180.42	270.000
180.80	500.000
181.18	-2400.000
181.56	-1500.000
181.94	575.000
182.31	-600.000
182.69	966.667
183.07	-1000.000
183.45	575.000
183.83	-333.333
184.20	-633.333
184.58	1400.000
184.96	-725.000
185.34	-266.667
185.72	-420.000
186.09	377.778
186.47	1200.000
186.85	700.000
187.23	-366.667
187.61	-2600.000
187.98	380.000
188.36	825.000
188.74	-625.000
189.12	-666.667
189.49	-87.500
189.87	-325.000
190.25	-233.333
190.63	-500.000
191.00	-322.222
191.38	0.000
191.76	-725.000
192.14	-500.000
192.51	1050.000
192.89	-216.667
193.27	0.000
193.65	-228.571
194.02	-2500.000
194.40	-314.286
194.78	342.857
195.15	0.000
195.53	-154.545
195.91	0.000
196.29	-500.000
196.66	-100.000
197.04	-3300.000
197.42	-400.000
197.79	-1350.000
198.17	-400.000
198.55	-428.571
198.92	-266.667
199.30	-375.000
199.68	-136.364
200.05	-128.571
200.43	-1300.000
200.81	428.571
201.18	0.000
201.56	355.556
201.94	0.000
202.31	1133.333
202.69	-333.333
203.07	1500.000
203.44	-233.333
203.82	-550.000
204.19	-150.000
204.57	-283.333
204.95	-362.500
205.32	-2200.000
205.70	450.000
206.08	-383.333
206.45	-366.667
206.83	660.000
207.20	-366.667
207.58	-520.000
207.96	-383.333
208.33	-166.667
208.71	233.333
209.08	-150.000
209.46	0.000
209.84	483.333
210.21	1200.000
210.59	1400.000
210.96	933.333
211.34	-400.000
211.71	-275.000
212.09	-2200.000
212.46	0.000
212.84	1300.000
213.22	-500.000
213.59	-575.000
213.97	-180.000
214.34	-1066.667
214.72	433.333
215.09	-725.000
215.47	0.000
215.84	328.571
216.22	1050.000
216.59	-320.000
216.97	-580.000
217.34	-625.000
217.72	-212.500
218.09	-625.000
218.47	-650.000
218.84	0.000
219.22	360.000
219.59	-88.235
219.97	-70.000
220.34	1250.000
220.72	-277.778
221.09	-84.615
221.47	-633.333
221.84	-200.000
222.22	-385.714
222.59	0.000
222.97	-225.000
223.34	-640.000
223.72	-2600.000
224.09	-650.000
224.46	-500.000
224.84	-320.000
225.21	-371.429
225.59	-425.000
225.96	-500.000
226.34	-42.308
226.71	500.000
227.08	-1100.000
227.46	-146.667
227.83	-750.000
228.21	-47.368
228.58	275.000
228.95	1950.000
229.33	-175.000
229.70	-160.000
230.08	-68.421
230.45	390.000
230.82	-966.667
231.20	-171.429
231.57	-108.333
231.95	-218.182
232.32	-181.818
232.69	-105.000
233.07	-700.000
233.44	-117.647
233.81	-330.000
234.19	-77.778
234.56	-81.818
234.93	-41.379
235.31	-100.000
235.68	-138.889
236.05	-135.000
236.43	-57.692
236.80	-32.000
237.17	-62.963
237.55	-42.424
237.92	-310.000
238.29	-67.742
238.67	-36.364
239.04	-47.222
239.41	-54.762
239.79	-43.478
240.16	-25.926
240.53	-43.478
240.91	-50.980
241.28	-29.508
241.65	-14.925
242.02	-12.162
242.40	-50.769
242.77	-34.667
243.14	-17.073
243.51	-36.842
243.89	-32.051
244.26	-13.861
244.63	-8.824
245.00	-12.150
245.38	-11.404
245.75	-18.584
246.12	-10.317
246.49	-11.628
246.87	-2.857
247.24	-1.325
247.61	-6.579
247.98	-8.725
248.36	-12.346
248.73	-8.589
249.10	-5.464
249.47	2.985
249.84	3.141
250.22	-11.399
250.59	-5.556
250.96	3.182
251.33	-8.163
251.70	1.709
252.08	0.833
252.45	-0.410
252.82	-5.372
253.19	0.000
253.56	-2.281
253.94	-2.692
254.31	0.758
254.68	6.643
255.05	2.932
255.42	2.381
255.79	-0.324
256.16	-1.325
256.54	-2.318
256.91	0.000
257.28	-0.328
257.65	-0.637
258.02	-1.180
258.39	3.134
258.76	2.446
259.14	5.172
259.51	0.288
259.88	2.266
260.25	2.778
260.62	3.562
260.99	3.005
261.36	3.217
261.73	-0.531
262.10	1.648
262.47	0.268
262.85	5.051
263.22	1.558
263.59	0.526
263.96	4.859
264.33	-0.767
264.70	5.185
265.07	7.160
265.44	6.349
265.81	2.315
266.18	2.494
266.55	4.018
266.92	2.961
267.29	2.407
267.66	2.439
268.03	4.148
268.40	4.175
268.77	0.911
269.14	1.542
269.51	1.535
269.88	5.123
270.25	4.225
270.62	4.430
270.99	6.263
271.36	6.139
271.73	5.894
272.10	2.806
272.47	5.611
272.84	4.819
273.21	4.008
273.58	5.040
273.95	4.231
274.32	1.521
274.69	2.515
275.06	4.579
275.43	3.882
275.80	4.056
276.17	0.926
276.54	3.545
276.91	3.220
277.28	3.436
277.65	5.027
278.02	4.044
278.39	3.261
278.76	2.285
279.13	5.496
279.50	4.983
279.87	5.009
280.23	2.113
280.60	6.271
280.97	3.947
281.34	2.037
281.71	5.922
282.08	4.817
282.45	3.764
282.82	4.082
283.19	1.454
283.56	0.984
283.92	4.955
284.29	6.951
284.66	5.255
285.03	2.564
285.40	5.255
285.77	4.180
286.14	3.969
286.51	3.653
286.87	3.002
287.24	3.614
287.61	2.691
287.98	4.834
288.35	3.994
288.72	4.586
289.08	4.392
289.45	3.254
289.82	3.765
290.19	3.879
290.56	3.803
290.93	3.994
291.29	3.994
291.66	4.545
292.03	3.256
292.40	4.898
292.77	3.369
293.13	4.330
293.50	1.708
293.87	2.819
294.24	4.667
294.60	4.551
294.97	1.879
295.34	4.481
295.71	3.783
296.08	3.101
296.44	3.064
296.81	3.776
297.18	0.374
297.55	3.420
297.91	4.033
298.28	1.777
298.65	3.567
299.02	2.952
299.38	4.691
299.75	3.388
300.12	3.472
300.48	3.802
300.85	3.375
301.22	3.468
301.59	2.968
301.95	4.181
302.32	5.222
302.69	3.286
303.05	4.679
303.42	4.989
303.79	3.438
304.15	4.627
304.52	3.911
304.89	3.560
305.25	3.520
305.62	1.985
305.99	3.299
306.35	3.327
306.72	3.516
307.09	2.538
307.45	3.520
307.82	3.532
308.19	3.229
308.55	4.050
308.92	4.479
309.29	3.257
309.65	2.339
310.02	3.267
310.38	2.953
310.75	3.398
311.12	3.356
311.48	2.933
311.85	3.609
312.22	3.795
312.58	3.568
312.95	3.250
313.31	3.252
313.68	3.114
314.05	4.155
314.41	5.191
314.78	2.997
315.14	2.995
315.51	4.063
315.87	4.590
316.24	3.836
316.61	4.263
316.97	3.710
317.34	3.792
317.70	5.502
318.07	3.704
318.43	3.656
318.80	5.686
319.16	3.262
319.53	2.656
319.89	2.717
320.26	4.270
320.62	3.546
320.99	3.970
321.35	2.957
321.72	4.558
322.08	2.885
322.45	3.613
322.81	3.881
323.18	3.717
323.54	3.534
323.91	3.826
324.27	4.819
324.64	4.282
325.00	3.566
325.37	3.686
325.73	4.711
326.10	5.028
326.46	4.805
326.83	5.204
327.19	5.354
327.56	4.822
327.92	4.485
328.29	3.468
328.65	4.606
329.01	4.061
329.38	4.044
329.74	4.795
330.11	4.281
330.47	4.297
330.84	4.651
331.20	4.583
331.56	3.899
331.93	4.351
332.29	4.153
332.66	5.066
333.02	4.690
333.38	3.859
333.75	4.966
334.11	4.504
334.48	5.116
334.84	6.627
335.20	4.114
335.57	6.492
335.93	5.207
336.29	4.243
336.66	3.532
337.02	4.097
337.38	5.102
337.75	4.380
338.11	4.794
338.47	4.715
338.84	4.484
339.20	3.117
339.56	5.107
339.93	5.911
340.29	3.865
340.65	3.731
341.02	5.188
341.38	5.497
341.74	3.713
342.11	4.827
342.47	4.130
342.83	4.911
343.20	5.070
343.56	4.090
343.92	4.003
344.28	4.219
344.65	4.884
345.01	4.758
345.37	4.899
345.73	3.819
346.10	4.524
346.46	4.193
346.82	5.019
347.19	4.202
347.55	4.021
347.91	4.458
348.27	4.401
348.63	4.570
349.00	2.983
349.36	4.833
349.72	4.762
350.08	4.606
350.45	3.802
350.81	4.148
351.17	4.361
351.53	4.094
351.89	4.708
352.26	3.806
352.62	4.627
352.98	4.275
353.34	3.809
353.70	4.622
354.07	4.173
354.43	4.556
354.79	4.712
355.15	4.562
355.51	5.556
355.87	4.413
356.24	4.639
356.60	4.878
356.96	3.929
357.32	4.238
357.68	4.319
358.04	4.192
358.40	3.358
358.77	5.044
359.13	4.062
359.49	3.420
359.85	4.061
360.21	4.089
360.57	4.379
360.93	4.302
361.29	4.211
361.66	3.114
362.02	5.567
362.38	4.006
362.74	4.749
363.10	5.089
363.46	4.640
363.82	4.048
364.18	4.222
364.54	3.804
364.90	5.084
365.26	3.379
365.62	4.733
365.98	5.174
366.35	4.362
366.71	4.218
367.07	3.924
367.43	4.924
367.79	5.640
368.15	4.147
368.51	4.127
368.87	4.442
369.23	4.600
369.59	3.962
369.95	3.786
370.31	4.659
370.67	4.402
371.03	3.740
371.39	3.828
371.75	4.746
372.11	4.743
372.47	4.198
372.83	5.825
373.19	5.270
373.55	4.336
373.91	4.294
374.27	4.657
374.63	4.465
374.99	4.443
375.35	5.065
375.71	3.742
376.07	5.165
376.42	4.723
376.78	5.283
377.14	5.053
377.50	4.491
377.86	5.234
378.22	5.329
378.58	4.459
378.94	5.869
379.30	5.272
379.66	5.350
380.02	5.597
380.38	5.530
380.74	4.338
381.09	5.226
381.45	5.227
381.81	6.148
382.17	5.344
382.53	5.263
382.89	5.361
383.25	5.100
383.61	4.109
383.97	4.947
384.32	5.144
384.68	4.872
385.04	5.437
385.40	5.480
385.76	5.686
386.12	4.548
386.48	5.647
386.83	5.304
387.19	4.635
387.55	4.695
387.91	5.308
388.27	5.370
388.62	5.097
388.98	4.907
389.34	5.539
389.70	5.288
390.06	4.618
390.42	4.880
390.77	5.780
391.13	5.047
391.49	5.616
391.85	4.061
392.20	5.101
392.56	5.789
392.92	5.398
393.28	4.920
393.64	4.749
393.99	5.404
394.35	5.549
394.71	6.707
395.07	4.132
395.42	4.911
395.78	5.911
396.14	5.348
396.50	5.107
396.85	4.949
397.21	5.385
397.57	5.654
397.92	5.326
398.28	5.595
398.64	4.233
399.00	5.393
399.35	5.393
399.71	6.250
400.07	4.604
400.42	5.297
400.78	4.803
401.14	5.578
401.49	5.401
401.85	5.116
402.21	5.156
402.57	6.162
402.92	5.142
403.28	4.684
403.63	4.773
403.99	5.641
404.35	4.662
404.70	5.609
405.06	5.163
405.42	5.035
405.77	5.453
406.13	5.348
406.49	5.068
406.84	4.709
407.20	5.757
407.55	4.846
407.91	4.400
408.27	5.124
408.62	5.352
408.98	5.804
409.34	4.692
409.69	4.883
410.05	5.275
410.40	5.742
410.76	6.169
411.11	5.085
411.47	5.160
411.83	4.997
412.18	4.940
412.54	4.861
412.89	5.297
413.25	5.813
413.60	4.193
413.96	6.002
414.31	5.099
414.67	5.725
415.03	5.046
415.38	5.233
415.74	4.887
416.09	5.614
416.45	4.508
416.80	5.508
417.16	5.045
417.51	5.106
417.87	4.108
418.22	5.868
418.58	5.081
418.93	5.413
419.29	5.179
419.64	4.202
420.00	4.926
420.35	6.064
420.71	4.595
421.06	5.060
421.42	5.161
421.77	5.116
422.12	5.655
422.48	5.581
422.83	5.531
423.19	5.252
423.54	4.812
423.90	5.246
424.25	5.333
424.61	4.133
424.96	4.887
425.31	6.157
425.67	4.777
426.02	5.036
426.38	5.166
426.73	5.804
427.09	5.536
427.44	4.861
427.79	5.141
428.15	4.680
428.50	4.888
428.85	5.511
429.21	5.638
429.56	5.035
429.92	5.946
430.27	4.819
430.62	5.081
430.98	5.903
431.33	5.132
431.68	4.837
432.04	5.028
432.39	5.303
432.74	4.623
433.10	6.003
433.45	4.682
433.80	4.936
434.16	5.424
434.51	5.293
434.86	4.940
435.22	5.313
435.57	5.719
435.92	5.398
436.28	5.802
436.63	4.915
436.98	4.938
437.34	4.848
437.69	5.118
438.04	4.918
438.39	4.595
438.75	5.423
439.10	5.444
439.45	6.037
439.81	5.593
440.16	4.343
440.51	5.351
440.86	5.281
441.22	5.305
441.57	5.556
441.92	4.995
442.27	6.061
442.63	5.266
442.98	5.977
443.33	5.786
443.68	6.541
444.03	6.068
444.39	5.548
444.74	5.309
445.09	5.626
445.44	5.216
445.79	5.699
446.15	6.012
446.50	5.065
446.85	5.934
447.20	5.658
447.55	5.649
447.91	5.079
448.26	5.021
448.61	5.579
448.96	6.491
449.31	5.779
449.66	4.521
450.02	5.854
450.37	5.594
450.72	5.436
451.07	5.752
451.42	5.373
451.77	5.725
452.12	5.926
452.47	5.229
452.83	5.800
453.18	5.020
453.53	5.514
453.88	5.522
454.23	5.367
454.58	5.223
454.93	4.976
455.28	5.238
455.63	5.230
455.98	5.363
456.34	5.241
456.69	4.821
457.04	4.492
457.39	5.322
457.74	5.872
458.09	4.942
458.44	5.496
458.79	5.312
459.14	5.296
459.49	5.376
459.84	5.404
460.19	5.608
460.54	5.338
460.89	5.506
461.24	4.885
461.59	5.036
461.94	4.963
462.29	4.983
462.64	5.130
462.99	5.461
463.34	5.516
463.69	5.393
464.04	5.725
464.39	5.213
464.74	5.530
465.09	5.363
465.44	5.526
465.79	5.605
466.14	5.628
466.49	6.000
466.84	5.620
467.19	5.549
467.54	5.347
467.89	5.345
468.24	5.208
468.59	4.517
468.94	5.070
469.29	4.919
469.64	5.340
469.99	4.207
470.34	5.384
470.68	5.263
471.03	4.977
471.38	5.036
471.73	4.941
472.08	5.838
472.43	4.696
472.78	5.227
473.13	5.057
473.48	5.438
473.83	6.210
474.17	5.334
474.52	4.991
474.87	5.426
475.22	5.972
475.57	5.607
475.92	5.376
476.27	5.751
476.61	5.711
476.96	5.214
477.31	6.139
477.66	5.719
478.01	6.304
478.36	5.783
478.70	5.517
479.05	5.624
479.40	5.429
479.75	5.956
480.10	5.542
480.45	5.880
480.79	5.669
481.14	5.836
481.49	4.907
481.84	6.136
482.19	5.591
482.53	5.597
482.88	5.538
483.23	5.558
483.58	5.459
483.92	4.699
484.27	5.546
484.62	5.817
484.97	5.638
485.31	5.491
485.66	5.482
486.01	5.780
486.36	5.709
486.70	6.439
487.05	6.359
487.40	6.431
487.75	6.514
488.09	6.030
488.44	6.073
488.79	6.037
489.13	6.227
489.48	5.243
489.83	5.312
490.17	5.427
490.52	5.952
490.87	5.880
491.22	5.416
491.56	5.802
491.91	6.498
492.26	5.712
492.60	5.597
492.95	5.616
493.30	5.334
493.64	5.826
493.99	5.307
494.34	5.183
494.68	5.482
495.03	5.859
495.37	5.415
495.72	5.850
496.07	5.872
496.41	5.234
496.76	6.130
497.11	5.520
497.45	5.826
497.80	5.908
498.14	5.533
498.49	5.515
498.84	5.850
499.18	5.713
499.53	6.188
499.87	5.495
500.22	4.720
500.56	5.668
500.91	5.767
501.26	6.182
501.60	5.038
501.95	6.296
502.29	5.397
502.64	5.903
502.98	5.867
503.33	5.400
503.67	5.102
504.02	5.604
504.36	5.675
504.71	5.328
505.06	5.548
505.40	5.530
505.75	5.829
506.09	6.354
506.44	5.803
506.78	5.321
507.13	6.086
507.47	6.111
507.82	5.871
508.16	5.497
508.51	5.485
508.85	5.243
509.19	6.111
509.54	6.100
509.88	5.391
510.23	5.537
510.57	6.138
510.92	5.854
511.26	5.628
511.61	5.311
511.95	5.564
512.30	6.056
512.64	5.847
512.98	5.853
513.33	5.645
513.67	5.558
514.02	6.541
514.36	5.115
514.70	5.990
515.05	6.152
515.39	5.879
515.74	6.257
516.08	5.811
516.42	5.861
516.77	6.151
517.11	5.312
517.46	5.726
517.80	5.933
518.14	6.094
518.49	5.694
518.83	6.067
519.17	5.547
519.52	6.761
519.86	5.861
520.20	6.603
520.55	5.203
520.89	5.631
521.23	6.086
521.58	6.554
521.92	6.062
522.26	4.696
522.61	5.845
522.95	5.479
523.29	6.207
523.64	5.942
523.98	6.503
524.32	6.418
524.66	5.748
525.01	5.719
525.35	5.629
525.69	5.220
526.04	6.028
526.38	6.322
526.72	5.882
527.06	5.748
527.41	5.831
527.75	5.285
528.09	5.372
528.43	5.447
528.78	5.434
529.12	5.333
529.46	5.958
529.80	5.549
530.15	5.855
530.49	5.101
530.83	5.490
531.17	5.974
531.51	5.716
531.86	5.709
532.20	6.220
532.54	5.625
532.88	5.758
533.22	6.659
533.57	5.540
533.91	5.836
534.25	6.275
534.59	5.920
534.93	5.942
535.27	5.859
535.62	6.595
535.96	5.752
536.30	5.640
536.64	5.946
536.98	5.904
537.32	6.605
537.66	5.926
538.01	5.196
538.35	5.725
538.69	5.589
539.03	5.763
539.37	5.713
539.71	5.586
540.05	5.995
540.39	5.196
540.73	6.011
541.07	5.028
541.42	6.025
541.76	5.516
542.10	5.609
542.44	5.298
542.78	6.022
543.12	5.900
543.46	5.800
543.80	5.156
544.14	5.745
544.48	5.851
544.82	5.984
545.16	6.023
545.50	5.932
545.84	5.695
546.18	6.481
546.52	6.433
546.86	6.101
547.20	6.234
547.54	5.181
547.88	5.546
548.22	5.439
548.56	5.559
548.90	4.358
549.24	5.532
549.58	5.868
549.92	5.485
550.26	6.472
550.60	5.935
550.94	6.727
551.28	6.073
551.62	6.402
551.96	5.631
552.30	5.545
552.64	6.036
552.98	5.427
553.32	5.659
553.66	5.723
554.00	5.738
554.34	5.920
554.68	5.617
555.02	5.979
555.36	5.983
555.69	5.381
556.03	5.612
556.37	6.320
556.71	5.961
557.05	6.134
557.39	5.839
557.73	5.680
558.07	5.166
558.41	5.515
558.75	5.612
559.08	5.358
559.42	5.350
559.76	5.970
560.10	5.425
560.44	5.409
560.78	5.750
561.12	5.665
561.45	5.109
561.79	6.227
562.13	5.853
562.47	6.042
562.81	6.013
563.15	5.808
563.48	6.029
563.82	5.623
564.16	5.088
564.50	5.483
564.84	5.900
565.17	5.941
565.51	5.006
565.85	5.463
566.19	5.415
566.52	5.500
566.86	6.055
567.20	5.057
567.54	6.267
567.88	6.524
568.21	5.583
568.55	5.468
568.89	6.310
569.23	5.872
569.56	5.627
569.90	5.809
570.24	6.071
570.57	5.452
570.91	5.664
571.25	6.017
571.59	6.151
571.92	6.157
572.26	5.956
572.60	6.006
572.93	6.318
573.27	6.013
573.61	6.167
573.95	5.899
574.28	6.003
574.62	5.593
574.96	5.801
575.29	6.125
575.63	5.798
575.97	6.084
576.30	5.798
576.64	5.894
576.98	5.923
577.31	5.935
577.65	6.087
577.98	5.779
578.32	5.736
578.66	5.880
578.99	6.144
579.33	6.181
579.67	5.984
580.00	5.754
580.34	6.261
580.67	5.825
581.01	5.907
581.35	5.961
581.68	6.034
582.02	6.075
582.35	6.166
582.69	5.953
583.02	6.074
583.36	6.161
583.70	6.180
584.03	5.880
584.37	6.270
584.70	5.868
585.04	5.813
585.37	5.789
585.71	5.782
586.04	5.768
586.38	6.058
586.72	5.941
587.05	5.807
587.39	5.734
587.72	5.957
588.06	5.924
588.39	6.373
588.73	6.005
589.06	6.038
589.40	5.747
589.73	5.880
590.07	6.101
590.40	6.322
590.73	5.938
591.07	5.882
591.40	5.560
591.74	5.922
592.07	6.780
592.41	5.442
592.74	6.035
593.08	6.465
593.41	6.299
593.75	6.092
594.08	5.998
594.41	5.994
594.75	5.945
595.08	5.821
595.42	5.357
595.75	5.909
596.09	6.066
596.42	5.625
596.75	5.751
597.09	5.899
597.42	6.118
597.75	5.880
598.09	6.032
598.42	6.152
598.76	5.655
599.09	5.732
599.42	5.732
599.76	5.513
600.09	5.906
600.42	6.306
600.76	5.911
601.09	5.476
601.42	5.664
601.76	6.103
602.09	5.611
602.42	5.889
602.76	5.646
603.09	6.021
603.42	5.708
603.76	4.827
604.09	6.565
604.42	5.945
604.76	6.164
605.09	6.143
605.42	5.622
605.75	5.769
606.09	5.898
606.42	5.655
606.75	5.435
607.09	5.338
607.42	5.665
607.75	5.979
608.08	5.604
608.42	5.603
608.75	5.638
609.08	5.603
609.41	5.470
609.75	5.446
610.08	5.937
610.41	5.183
610.74	5.672
611.07	5.195
611.41	6.143
611.74	5.958
612.07	6.031
612.40	5.276
612.73	5.477
613.07	5.721
613.40	5.871
613.73	5.681
614.06	5.643
614.39	4.810
614.72	5.240
615.06	5.679
615.39	5.607
615.72	5.355
616.05	5.634
616.38	5.399
616.71	5.486
617.05	4.899
617.38	6.260
617.71	5.778
618.04	5.936
618.37	6.339
618.70	5.826
619.03	4.839
619.36	5.857
619.69	5.894
620.03	5.399
620.36	5.583
620.69	5.861
621.02	5.840
621.35	5.443
621.68	5.423
622.01	5.338
622.34	4.672
622.67	5.223
623.00	3.779
623.33	5.043
623.66	5.253
623.99	4.806
624.32	6.303
624.65	5.148
624.99	5.267
625.32	5.095
625.65	5.327
625.98	4.881
626.31	4.819
626.64	5.714
626.97	5.851
627.30	4.632
627.63	4.351
627.96	5.631
628.29	5.603
628.62	3.610
628.95	4.470
629.28	3.483
629.61	4.630
629.94	4.268
630.26	4.153
630.59	4.145
630.92	3.896
631.25	4.741
631.58	5.179
631.91	4.030
632.24	5.187
632.57	4.080
632.90	3.711
633.23	4.490
633.56	4.694
633.89	3.926
634.22	5.509
634.55	4.593
634.88	4.113
635.20	5.813
635.53	4.068
635.86	4.550
636.19	6.257
636.52	5.063
636.85	4.801
637.18	4.782
637.51	3.978
637.83	5.316
638.16	5.530
638.49	4.108
638.82	4.284
639.15	4.582
639.48	5.081
639.81	4.734
640.13	5.654
640.46	4.606
640.79	2.941
641.12	4.845
641.45	4.391
641.77	4.493
642.10	3.806
642.43	5.053
642.76	3.659
643.09	2.603
643.41	3.922
643.74	3.724
644.07	3.586
644.40	4.243
644.73	4.499
645.05	2.056
645.38	4.173
645.71	1.906
646.04	4.161
646.36	3.212
646.69	2.607
647.02	5.352
647.35	4.427
647.67	4.992
648.00	2.866
648.33	3.153
648.66	4.850
648.98	4.354
649.31	3.383
649.64	4.914
649.96	4.244
650.29	3.477
650.62	3.395
650.94	2.102
651.27	2.844
651.60	3.801
651.92	1.976
652.25	4.197
652.58	3.851
652.90	1.890
653.23	5.634
653.56	3.566
653.88	6.039
654.21	3.380
654.54	3.468
654.86	4.533
655.19	3.764
655.52	4.948
655.84	5.932
656.17	6.947
656.49	9.660
656.82	10.758
657.15	8.369
657.47	6.420
657.80	4.826
658.13	3.706
658.45	4.894
658.78	5.841
659.10	5.597
659.43	5.117
659.75	4.337
660.08	4.650
660.41	3.970
660.73	2.965
661.06	2.496
661.38	5.263
661.71	3.621
662.03	2.646
662.36	3.936
662.68	3.377
663.01	4.602
663.33	4.348
663.66	5.495
663.98	2.692
664.31	5.066
664.63	0.963
664.96	3.993
665.28	3.448
665.61	4.021
665.93	1.607
666.26	3.943
666.58	2.030
666.91	2.430
667.23	3.619
667.56	2.761
667.88	3.200
668.21	2.930
668.53	-0.193
668.86	2.358
669.18	-0.204
669.50	3.181
669.83	1.200
670.15	3.740
670.48	3.571
670.80	1.721
671.13	3.025
671.45	2.165
671.77	3.202
672.10	2.500
672.42	3.560
672.75	2.304
673.07	2.985
673.39	1.387
673.72	3.020
674.04	2.414
674.37	2.862
674.69	4.938
675.01	1.714
675.34	3.244
675.66	2.434
675.98	2.425
676.31	3.711
676.63	3.422
676.95	3.640
677.28	-0.605
677.60	1.181
677.92	1.536
678.25	3.839
678.57	2.847
678.89	3.925
679.22	2.962
679.54	2.906
679.86	2.712
680.18	0.498
680.51	4.717
680.83	4.419
681.15	2.759
681.48	2.418
681.80	3.454
682.12	1.224
682.44	2.838
682.77	3.014
683.09	0.947
683.41	3.682
683.73	2.846
684.06	1.476
684.38	2.147
684.70	3.770
685.02	3.442
685.34	0.666
685.67	2.681
685.99	3.528
686.31	2.907
686.63	0.948
686.96	2.208
687.28	2.280
687.60	1.684
687.92	1.768
688.24	3.506
688.56	2.241
688.89	2.359
689.21	1.370
689.53	0.392
689.85	0.986
690.17	0.185
690.49	2.191
690.82	1.980
691.14	-1.215
691.46	1.721
691.78	3.867
692.10	1.835
692.42	1.964
692.74	1.996
693.06	0.556
693.39	1.898
693.71	1.316
694.03	2.974
694.35	0.952
694.67	0.821
694.99	2.553
695.31	0.883
695.63	-1.299
695.95	0.207
696.27	0.659
696.59	4.204
696.91	2.252
697.23	3.956
697.56	0.204
697.88	1.515
698.20	2.072
698.52	4.735
698.84	-0.208
699.16	2.653
699.48	1.255
699.80	1.064
700.12	1.965
700.44	1.382
700.76	2.613
701.08	5.085
701.40	1.554
701.72	1.990
702.04	-1.070
702.36	-1.309
702.68	0.000
703.00	-3.178
703.32	-2.463
703.64	0.489
703.96	1.432
704.28	0.983
704.60	1.772
704.91	-1.276
705.23	0.274
705.55	0.836
705.87	-1.212
706.19	-0.920
706.51	-3.614
706.83	0.000
707.15	-3.439
707.47	0.935
707.79	1.092
708.11	-0.424
708.43	-0.215
708.74	-2.232
709.06	-1.160
709.38	1.643
709.70	2.233
710.02	2.326
710.34	2.128
710.66	-3.352
710.98	-4.372
711.29	-3.297
711.61	-0.565
711.93	0.855
712.25	1.622
712.57	2.950
712.89	0.882
713.20	-1.479
713.52	0.578
713.84	1.393
714.16	3.947
714.48	1.031
714.80	1.299
715.11	0.000
715.43	-2.387
715.75	2.105
716.07	0.829
716.39	2.186
716.70	-1.506
717.02	-2.951
717.34	-4.878
717.66	-2.349
717.97	-4.452
718.29	-1.031
718.61	-0.987
718.93	-1.618
719.24	-3.416
719.56	0.000
719.88	-1.201
720.20	-3.226
720.51	-1.863
720.83	-0.625
721.15	-0.658
721.46	-3.767
721.78	-0.333
722.10	-4.854
722.42	-0.671
722.73	0.000
723.05	-1.754
723.37	-2.431
723.68	0.000
724.00	-3.971
724.32	-3.169
724.63	-1.748
724.95	-2.482
725.27	-1.742
725.58	-4.947
725.90	0.345
726.22	0.313
726.53	2.922
726.85	1.258
727.16	1.208
727.48	2.446
727.80	0.000
728.11	-3.180
728.43	0.000
728.74	0.000
729.06	-1.987
729.38	-0.649
729.69	-1.007
730.01	0.298
730.32	-4.848
730.64	-0.943
730.96	-3.416
731.27	3.073
731.59	2.473
731.90	-0.519
732.22	-0.260
732.53	-0.552
732.85	1.143
733.16	-0.587
733.48	-3.354
733.80	1.114
734.11	1.709
734.43	0.541
734.74	2.025
735.06	-0.251
735.37	-0.811
735.69	0.270
736.00	0.565
736.32	2.695
736.63	0.278
736.95	2.299
737.26	0.000
737.58	-1.212
737.89	1.765
738.21	-1.223
738.52	-2.951
738.83	4.437
739.15	-3.191
739.46	-0.340
739.78	0.920
740.09	0.287
740.41	0.583
740.72	-3.333
741.04	1.294
741.35	-1.404
741.66	-2.745
741.98	-4.918
742.29	-0.418
742.61	-4.825
742.92	-4.615
743.23	0.361
743.55	-1.550
743.86	-2.000
744.18	-5.785
744.49	-4.641
744.80	-4.115
745.12	-4.219
745.43	-2.033
745.74	-3.448
746.06	-0.847
746.37	-7.173
746.68	0.000
747.00	-2.917
747.31	-7.725
747.62	-1.923
747.94	-1.619
748.25	-6.024
748.56	-5.714
748.88	-8.974
749.19	-1.724
749.50	-2.165
749.82	-1.205
750.13	-2.491
750.44	-6.667
750.75	-3.077
751.07	0.308
751.38	-2.208
751.69	-6.070
752.01	-6.472
752.32	-4.248
752.63	-3.741
752.94	-6.574
753.26	-3.717
753.57	-4.444
753.88	-5.618
754.19	2.572
754.51	-3.537
754.82	1.608
755.13	-1.311
755.44	-3.072
755.75	-4.276
756.07	4.179
756.38	2.516
756.69	4.518
757.00	-1.939
757.31	0.000
757.63	-2.046
757.94	2.347
758.25	-0.226
758.56	-1.089
758.87	2.045
759.18	1.600
759.50	1.416
759.81	0.000
760.12	1.617
760.43	0.000
760.74	0.985
761.05	-1.750
761.36	-2.892
761.67	-1.777
761.99	1.622
762.30	-1.524
762.61	-5.611
762.92	-4.478
763.23	-3.745
763.54	-1.079
763.85	-5.155
764.16	-2.020
764.47	-3.169
764.78	2.556
765.10	0.587
765.41	5.897
765.72	-1.323
766.03	-1.130
766.34	-4.075
766.65	-6.272
766.96	-3.187
767.27	-0.922
767.58	-12.935
767.89	1.442
768.20	-1.408
768.51	-8.333
768.82	-2.410
769.13	-3.409
769.44	-6.154
769.75	1.083
770.06	-2.308
770.37	2.362
770.68	-9.362
770.99	-4.453
771.30	1.852
771.61	-6.844
771.92	-5.926
772.23	-1.215
772.54	-10.185
772.85	-2.765
773.16	-3.810
773.47	-6.878
773.78	-6.486
774.09	-4.545
774.39	1.500
774.70	-2.732
775.01	-14.634
775.32	-11.176
775.63	-7.362
775.94	-17.197
776.25	-4.516
776.56	-1.282
776.87	-5.442
777.18	-8.276
777.48	-11.189
777.79	-13.514
778.10	-14.706
778.41	-6.250
778.72	-8.276
779.03	-8.025
779.34	-4.242
779.65	-4.145
779.95	-5.556
780.26	-9.659
780.57	-9.032
780.88	-4.348
781.19	-7.097
781.50	-1.765
781.80	-3.226
782.11	-1.587
782.42	-11.111
782.73	-15.569
783.04	-6.145
783.34	-13.333
783.65	-11.111
783.96	-8.075
784.27	-8.333
784.57	-15.232
784.88	-10.714
785.19	-11.811
785.50	-14.961
785.81	-9.774
786.11	-12.308
786.42	-17.266
786.73	-3.597
787.04	-5.263
787.34	-9.836
787.65	-9.600
787.96	-11.940
788.26	-1.399
788.57	-5.594
788.88	-9.868
789.19	-3.922
789.49	-10.959
789.80	-11.348
790.11	-14.173
790.41	-14.062
790.72	-10.169
791.03	-20.388
791.33	-8.696
791.64	-3.509
791.95	-17.857
792.25	-18.095
792.56	-16.071
792.87	-22.917
793.17	-16.071
793.48	-20.833
793.79	-20.482
794.09	-15.596
794.40	-14.679
794.70	-10.884
795.01	-11.688
795.32	-9.589
795.62	-14.085
795.93	-14.394
796.23	-11.475
796.54	-16.964
796.85	-11.702
797.15	-18.478
797.46	-27.397
797.76	-33.750
798.07	-18.478
798.37	-19.588
798.68	-28.571
798.99	-21.839
799.29	-14.607
799.60	-18.085
799.90	-21.687
800.21	-26.154
800.51	-25.373
800.82	-27.941
801.12	-35.616
801.43	-51.471
801.73	-33.898
802.04	-40.909
802.34	-43.333
802.65	-28.814
802.95	-17.910
803.26	-32.203
803.56	-24.658
803.87	-27.143
804.17	-24.658
804.48	-42.105
804.78	-20.833
805.09	-36.207
805.39	-17.568
805.70	-45.070
806.00	-19.512
806.30	-21.687
806.61	-24.658
806.91	-6.731
807.22	-13.333
807.52	-20.690
807.83	-19.444
808.13	-24.096
808.43	-14.607
808.74	-15.000
809.04	-41.176
809.35	-26.667
809.65	-30.000
809.95	-19.178
810.26	-29.825
810.56	-31.034
810.86	-16.176
811.17	-52.632
811.47	-40.984
811.77	-68.889
812.08	-37.288
812.38	-25.000
812.69	-31.034
812.99	-33.962
813.29	-94.872
813.59	-34.000
813.90	-21.053
814.20	-41.818
814.50	-19.718
814.81	-19.231
815.11	-40.984
815.41	-14.925
815.72	-18.966
816.02	-16.071
816.32	-35.556
816.62	-40.909
816.93	-48.889
817.23	-33.333
817.53	-48.936
817.84	-42.857
818.14	-38.235
818.44	-18.367
818.74	-51.111
819.04	-79.487
819.35	-40.000
819.65	-84.615
819.95	-13.208
820.25	-17.778
820.56	-66.667
820.86	-81.250
821.16	-69.231
821.46	-53.488
821.76	-56.000
822.07	-28.571
822.37	-56.522
822.67	-42.553
822.97	-62.162
823.27	-50.000
823.57	-30.612
823.88	-20.000
824.18	-42.500
824.48	-76.667
824.78	-92.000
825.08	-42.424
825.38	-22.222
825.69	-29.787
825.99	-72.222
826.29	-114.286
826.59	-61.538
826.89	-62.791
827.19	-42.000
827.49	-52.941
827.79	-27.083
828.09	-75.676
828.39	-80.000
828.70	-41.463
829.00	-65.116
829.30	-78.571
829.60	-47.059
829.90	-28.261
830.20	-74.286
830.50	-86.207
830.80	-155.556
831.10	-50.000
831.40	-47.059
831.70	-100.000
832.00	-48.387
832.30	-188.235
832.60	-95.833
832.90	-230.769
833.20	-131.579
833.50	-110.000
833.80	-110.526
834.10	-138.095
834.40	-44.444
834.70	-31.250
835.00	-80.000
835.30	-32.353
835.60	-100.000
835.90	-84.000
836.20	-172.727
836.50	-60.000
836.80	-78.788
837.10	-96.296
837.40	-81.481
837.70	-168.750
838.00	-60.714
838.30	-126.087
838.60	-51.724
838.90	-192.857
839.19	-126.087
839.49	-325.000
839.79	-91.304
840.09	-181.250
840.39	-100.000
840.69	-96.774
840.99	-85.714
841.29	-186.667
841.59	-136.842
841.88	-53.846
842.18	-111.538
842.48	-380.000
842.78	-115.000
843.08	-60.000
843.38	-48.387
843.68	-161.111
843.97	-41.176
844.27	-181.250
844.57	-142.105
844.87	-300.000
845.17	-153.333
845.47	-119.048
845.76	-142.857
846.06	-288.889
846.36	-135.294
846.66	-76.923
846.96	-146.667
847.25	-123.529
847.55	-78.261
847.85	-135.000
848.15	-164.706
848.44	-200.000
848.74	-90.476
849.04	-120.833
849.34	-187.500
849.63	-100.000
849.93	1800.000
850.23	-173.333
850.53	-57.692
850.82	-263.636
851.12	-90.909
851.42	-272.727
851.71	-100.000
852.01	-120.000
852.31	-161.538
852.61	-110.526
852.90	-108.333
853.20	-88.889
853.50	-288.889
853.79	-119.048
854.09	-113.636
854.39	-233.333
854.68	-77.419
854.98	-111.538
855.28	-105.556
855.57	-92.857
855.87	-60.000
856.17	-104.545
856.46	-66.667
856.76	-127.778
857.05	-95.652
857.35	-116.667
857.65	-230.769
857.94	-119.048
858.24	-59.259
858.53	-91.304
858.83	-182.353
859.13	-170.588
859.42	-117.647
859.72	-114.286
860.01	-120.000
860.31	-244.444
860.60	-200.000
860.90	-140.000
861.20	-88.889
861.49	-146.154
861.79	-50.000
862.08	-192.308
862.38	-53.125
862.67	-82.353
862.97	-106.250
863.26	-233.333
863.56	-160.000
863.85	-209.091
864.15	-77.778
864.44	-900.000
864.74	-200.000
865.03	-106.250
865.33	-230.000
865.62	-93.548
865.92	-90.909
866.21	-60.870
866.51	-135.714
866.80	-500.000
867.10	-333.333
867.39	-216.667
867.69	3300.000
867.98	-314.286
868.27	-111.765
868.57	-2900.000
868.86	-260.000
869.16	-109.524
869.45	-83.333
869.75	-136.364
870.04	-371.429
870.33	-291.667
870.63	-485.714
870.92	-475.000
871.22	-312.500
871.51	-154.545
871.80	-733.333
872.10	-1100.000
>>>>>End Processed Spectral Data<<<<<
