SpectraSuite Data File
++++++++++++++++++++++++++++++++++++
Date: Thu May 14 15:25:06 PDT 2015
User: schluterlab
Dark Spectrum Present: Yes
Reference Spectrum Present: Yes
Number of Sampled Component Spectra: 1
Spectrometers: USB2E3373
Integration Time (usec): 3000 (USB2E3373)
Spectra Averaged: 3 (USB2E3373)
Boxcar Smoothing: 0 (USB2E3373)
Correct for Electrical Dark: No (USB2E3373)
Strobe/Lamp Enabled: No (USB2E3373)
Correct for Detector Non-linearity: No (USB2E3373)
Correct for Stray Light: No (USB2E3373)
Number of Pixels in Processed Spectrum: 2048
>>>>>Begin Processed Spectral Data<<<<<
178.53	0.000
178.91	700.000
179.29	-5900.000
179.67	-4300.000
180.04	428.571
180.42	460.000
180.80	1060.000
181.18	-4400.000
181.56	-4300.000
181.94	1200.000
182.31	-1200.000
182.69	1833.333
183.07	-2700.000
183.45	1375.000
183.83	-783.333
184.20	-1333.333
184.58	4500.000
184.96	-1550.000
185.34	-511.111
185.72	-840.000
186.09	633.333
186.47	2700.000
186.85	1040.000
187.23	-566.667
187.61	-5300.000
187.98	1020.000
188.36	1150.000
188.74	-1175.000
189.12	-1733.333
189.49	-256.250
189.87	-625.000
190.25	-522.222
190.63	-860.000
191.00	-600.000
191.38	0.000
191.76	-1325.000
192.14	-783.333
192.51	2750.000
192.89	-866.667
193.27	0.000
193.65	-642.857
194.02	-6200.000
194.40	-700.000
194.78	728.571
195.15	0.000
195.53	-445.455
195.91	0.000
196.29	-1200.000
196.66	-369.231
197.04	-5000.000
197.42	-628.571
197.79	-2550.000
198.17	-587.500
198.55	-757.143
198.92	-511.111
199.30	-525.000
199.68	-363.636
200.05	-285.714
200.43	-2200.000
200.81	842.857
201.18	0.000
201.56	655.556
201.94	0.000
202.31	1600.000
202.69	-488.889
203.07	4500.000
203.44	-522.222
203.82	-1150.000
204.19	-391.667
204.57	-833.333
204.95	-600.000
205.32	-5200.000
205.70	1125.000
206.08	-883.333
206.45	-683.333
206.83	1220.000
207.20	-783.333
207.58	-1040.000
207.96	-933.333
208.33	-633.333
208.71	416.667
209.08	-600.000
209.46	0.000
209.84	966.667
210.21	2050.000
210.59	2350.000
210.96	1800.000
211.34	-1150.000
211.71	-612.500
212.09	-4700.000
212.46	0.000
212.84	2950.000
213.22	-1120.000
213.59	-1300.000
213.97	-450.000
214.34	-1500.000
214.72	883.333
215.09	-1225.000
215.47	0.000
215.84	742.857
216.22	2700.000
216.59	-960.000
216.97	-940.000
217.34	-1075.000
217.72	-512.500
218.09	-1350.000
218.47	-1250.000
218.84	0.000
219.22	980.000
219.59	-229.412
219.97	-230.000
220.34	2200.000
220.72	-500.000
221.09	-269.231
221.47	-1500.000
221.84	-490.000
222.22	-671.429
222.59	0.000
222.97	-475.000
223.34	-1040.000
223.72	-5000.000
224.09	-1425.000
224.46	-1375.000
224.84	-920.000
225.21	-685.714
225.59	-1475.000
225.96	-1400.000
226.34	-150.000
226.71	866.667
227.08	-2450.000
227.46	-320.000
227.83	-1075.000
228.21	-221.053
228.58	662.500
228.95	2800.000
229.33	-400.000
229.70	-440.000
230.08	-178.947
230.45	570.000
230.82	-1466.667
231.20	-335.714
231.57	-350.000
231.95	-436.364
232.32	-454.545
232.69	-225.000
233.07	-1350.000
233.44	-252.941
233.81	-520.000
234.19	-238.889
234.56	-190.909
234.93	-162.069
235.31	-221.053
235.68	-266.667
236.05	-240.000
236.43	-157.692
236.80	-156.000
237.17	-170.370
237.55	-154.545
237.92	-480.000
238.29	-154.839
238.67	-100.000
239.04	-136.111
239.41	-97.619
239.79	-93.478
240.16	-92.593
240.53	-100.000
240.91	-100.000
241.28	-85.246
241.65	-52.239
242.02	-56.757
242.40	-81.538
242.77	-64.000
243.14	-60.976
243.51	-64.474
243.89	-74.359
244.26	-38.614
244.63	-37.255
245.00	-43.925
245.38	-47.368
245.75	-49.558
246.12	-31.746
246.49	-39.535
246.87	-26.429
247.24	-29.139
247.61	-29.605
247.98	-28.188
248.36	-32.099
248.73	-31.288
249.10	-27.869
249.47	-21.891
249.84	-17.801
250.22	-25.389
250.59	-22.222
250.96	-17.273
251.33	-31.122
251.70	-17.094
252.08	-21.250
252.45	-19.262
252.82	-18.595
253.19	-18.750
253.56	-17.871
253.94	-20.769
254.31	-17.424
254.68	-15.035
255.05	-13.355
255.42	-15.646
255.79	-13.269
256.16	-13.245
256.54	-15.563
256.91	-14.098
257.28	-15.738
257.65	-16.242
258.02	-15.634
258.39	-13.105
258.76	-10.398
259.14	-12.931
259.51	-12.104
259.88	-14.448
260.25	-11.944
260.62	-11.507
260.99	-11.475
261.36	-10.992
261.73	-12.202
262.10	-12.088
262.47	-11.528
262.85	-8.333
263.22	-14.286
263.59	-13.947
263.96	-11.765
264.33	-13.811
264.70	-10.864
265.07	-8.115
265.44	-6.803
265.81	-12.037
266.18	-9.297
266.55	-10.268
266.92	-11.617
267.29	-7.659
267.66	-9.534
268.03	-10.262
268.40	-8.351
268.77	-12.073
269.14	-12.555
269.51	-10.088
269.88	-6.148
270.25	-5.433
270.62	-7.806
270.99	-5.455
271.36	-8.713
271.73	-8.448
272.10	-8.617
272.47	-8.216
272.84	-7.831
273.21	-8.216
273.58	-10.887
273.95	-8.846
274.32	-9.506
274.69	-8.511
275.06	-6.777
275.43	-7.394
275.80	-6.526
276.17	-8.889
276.54	-8.022
276.91	-8.229
277.28	-7.595
277.65	-6.643
278.02	-8.272
278.39	-7.065
278.76	-7.733
279.13	-7.801
279.50	-5.498
279.87	-5.725
280.23	-10.915
280.60	-6.949
280.97	-7.895
281.34	-8.998
281.71	-4.230
282.08	-6.478
282.45	-7.038
282.82	-6.122
283.19	-7.593
283.56	-7.049
283.92	-6.156
284.29	-4.739
284.66	-5.911
285.03	-8.494
285.40	-6.801
285.77	-7.740
286.14	-4.733
286.51	-6.240
286.87	-7.267
287.24	-6.777
287.61	-7.175
287.98	-6.647
288.35	-6.509
288.72	-6.657
289.08	-5.417
289.45	-6.509
289.82	-6.777
290.19	-6.034
290.56	-4.507
290.93	-6.705
291.29	-5.372
291.66	-5.372
292.03	-5.427
292.40	-5.034
292.77	-4.987
293.13	-5.277
293.50	-5.519
293.87	-6.174
294.24	-4.933
294.60	-4.046
294.97	-6.846
295.34	-3.841
295.71	-5.296
296.08	-4.264
296.44	-5.147
296.81	-5.116
297.18	-5.106
297.55	-3.774
297.91	-5.101
298.28	-5.450
298.65	-4.400
299.02	-4.132
299.38	-4.577
299.75	-4.089
300.12	-5.324
300.48	-4.493
300.85	-4.724
301.22	-2.461
301.59	-5.023
301.95	-4.520
302.32	-3.222
302.69	-3.724
303.05	-3.917
303.42	-4.213
303.79	-3.646
304.15	-2.944
304.52	-4.228
304.89	-3.560
305.25	-3.830
305.62	-4.075
305.99	-2.990
306.35	-4.234
306.72	-3.309
307.09	-3.858
307.45	-4.244
307.82	-3.935
308.19	-3.229
308.55	-2.314
308.92	-4.479
309.29	-2.395
309.65	-3.704
310.02	-3.465
310.38	-3.740
310.75	-3.107
311.12	-3.164
311.48	-3.812
311.85	-3.134
312.22	-3.131
312.58	-2.535
312.95	-3.155
313.31	-2.439
313.68	-2.381
314.05	-1.716
314.41	-2.186
314.78	-2.997
315.14	-2.541
315.51	-2.216
315.87	-1.530
316.24	-1.461
316.61	-1.954
316.97	-2.715
317.34	-2.116
317.70	-2.271
318.07	-2.205
318.43	-1.446
318.80	-0.418
319.16	-2.918
319.53	-2.571
319.89	-2.191
320.26	-1.779
320.62	-2.039
320.99	-2.585
321.35	-2.403
321.72	-1.767
322.08	-2.074
322.45	-1.897
322.81	-1.083
323.18	-1.858
323.54	-0.776
323.91	-1.335
324.27	-1.291
324.64	-1.008
325.00	-0.332
325.37	-0.491
325.73	-0.909
326.10	-0.730
326.46	0.326
326.83	0.560
327.19	-0.079
327.56	-0.395
327.92	-0.787
328.29	-0.645
328.65	-1.256
329.01	-0.761
329.38	0.084
329.74	-0.342
330.11	-0.086
330.47	-0.842
330.84	-0.172
331.20	0.583
331.56	-0.953
331.93	-0.167
332.29	-0.085
332.66	0.581
333.02	-0.335
333.38	-0.587
333.75	0.168
334.11	0.417
334.48	-0.248
334.84	0.510
335.20	0.252
335.57	0.759
335.93	0.826
336.29	0.250
336.66	-0.757
337.02	0.167
337.38	1.190
337.75	-0.083
338.11	0.421
338.47	0.496
338.84	-0.592
339.20	-0.927
339.56	0.247
339.93	0.739
340.29	1.127
340.65	0.487
341.02	1.117
341.38	0.647
341.74	-0.404
342.11	0.000
342.47	-0.238
342.83	0.161
343.20	0.164
343.56	-0.882
343.92	0.961
344.28	0.156
344.65	1.395
345.01	1.014
345.37	1.244
345.73	0.156
346.10	2.106
346.46	0.316
346.82	0.749
347.19	0.917
347.55	0.531
347.91	0.743
348.27	0.607
348.63	1.599
349.00	0.373
349.36	1.264
349.72	0.670
350.08	1.783
350.45	0.532
350.81	0.679
351.17	0.827
351.53	1.440
351.89	1.291
352.26	0.149
352.62	0.597
352.98	0.000
353.34	0.373
353.70	0.385
354.07	0.969
354.43	0.759
354.79	1.197
355.15	0.736
355.51	1.754
355.87	0.823
356.24	1.065
356.60	0.370
356.96	0.667
357.32	0.743
357.68	0.659
358.04	0.299
358.40	0.672
358.77	1.754
359.13	0.517
359.49	0.074
359.85	0.435
360.21	1.363
360.57	1.005
360.93	0.494
361.29	1.193
361.66	1.231
362.02	2.157
362.38	1.054
362.74	0.279
363.10	0.963
363.46	0.900
363.82	0.710
364.18	1.337
364.54	1.521
364.90	0.870
365.26	0.276
365.62	1.667
365.98	1.361
366.35	1.007
366.71	1.293
367.07	1.556
367.43	1.576
367.79	1.659
368.15	2.140
368.51	1.353
368.87	2.090
369.23	1.867
369.59	1.298
369.95	1.690
370.31	2.093
370.67	1.651
371.03	1.108
371.39	0.940
371.75	1.307
372.11	1.762
372.47	2.031
372.83	2.356
373.19	1.668
373.55	1.423
373.91	1.022
374.27	2.070
374.63	1.556
374.99	1.459
375.35	2.468
375.71	1.742
376.07	2.066
376.42	2.204
376.78	2.424
377.14	2.495
377.50	2.277
377.86	2.217
378.22	2.216
378.58	2.259
378.94	2.289
379.30	2.168
379.66	2.704
380.02	2.020
380.38	2.938
380.74	2.479
381.09	2.787
381.45	3.239
381.81	3.279
382.17	3.147
382.53	2.924
382.89	2.540
383.25	2.403
383.61	2.373
383.97	2.650
384.32	2.632
384.68	2.494
385.04	2.892
385.40	3.182
385.76	3.576
386.12	2.992
386.48	3.529
386.83	3.337
387.19	2.723
387.55	2.934
387.91	3.253
388.27	3.176
388.62	3.551
388.98	4.174
389.34	3.359
389.70	3.138
390.06	3.967
390.42	3.133
390.77	4.636
391.13	3.404
391.49	3.563
391.85	3.273
392.20	3.084
392.56	3.662
392.92	4.471
393.28	3.427
393.64	3.631
393.99	4.242
394.35	4.498
394.71	4.491
395.07	2.934
395.42	4.112
395.78	4.449
396.14	4.219
396.50	3.622
396.85	3.995
397.21	3.491
397.57	3.769
397.92	4.754
398.28	3.531
398.64	3.661
399.00	3.298
399.35	4.398
399.71	4.022
400.07	4.885
400.42	4.598
400.78	4.225
401.14	4.667
401.49	4.377
401.85	3.779
402.21	5.041
402.57	3.932
402.92	3.842
403.28	3.044
403.63	3.580
403.99	3.622
404.35	4.264
404.70	3.739
405.06	4.348
405.42	4.742
405.77	5.071
406.13	4.754
406.49	4.392
406.84	4.432
407.20	3.522
407.55	3.876
407.91	4.463
408.27	4.535
408.62	4.538
408.98	4.121
409.34	3.460
409.69	4.326
410.05	4.455
410.40	5.220
410.76	4.711
411.11	4.559
411.47	4.423
411.83	4.409
412.18	3.855
412.54	4.090
412.89	4.889
413.25	5.079
413.60	3.619
413.96	4.895
414.31	4.703
414.67	4.651
415.03	4.308
415.38	4.161
415.74	5.009
416.09	4.750
416.45	4.446
416.80	3.917
417.16	4.725
417.51	4.608
417.87	5.212
418.22	4.311
418.58	4.151
418.93	4.773
419.29	4.192
419.64	4.382
420.00	4.154
420.35	4.885
420.71	5.112
421.06	5.118
421.42	4.702
421.77	4.577
422.12	4.968
422.48	4.864
422.83	5.203
423.19	5.305
423.54	4.646
423.90	4.914
424.25	5.867
424.61	4.937
424.96	4.887
425.31	5.945
425.67	4.455
426.02	5.423
426.38	5.052
426.73	4.074
427.09	5.882
427.44	5.134
427.79	5.141
428.15	4.852
428.50	5.000
428.85	5.166
429.21	5.638
429.56	5.084
429.92	5.258
430.27	5.205
430.62	5.325
430.98	5.066
431.33	5.523
431.68	4.885
432.04	5.993
432.39	5.303
432.74	5.708
433.10	5.949
433.45	5.240
433.80	5.687
434.16	5.733
434.51	5.447
434.86	5.320
435.22	5.898
435.57	5.601
435.92	5.231
436.28	5.518
436.63	5.352
436.98	5.099
437.34	4.848
437.69	5.338
438.04	5.553
438.39	5.399
438.75	5.257
439.10	6.237
439.45	5.478
439.81	4.746
440.16	5.576
440.51	5.463
440.86	5.837
441.22	5.788
441.57	5.294
441.92	5.577
442.27	5.859
442.63	5.812
442.98	5.977
443.33	5.681
443.68	6.293
444.03	6.867
444.39	5.825
444.74	5.768
445.09	5.525
445.44	5.743
445.79	6.274
446.15	5.396
446.50	5.581
446.85	6.226
447.20	5.899
447.55	6.747
447.91	5.602
448.26	5.338
448.61	5.792
448.96	6.170
449.31	6.098
449.66	5.229
450.02	5.907
450.37	6.500
450.72	5.005
451.07	5.695
451.42	6.008
451.77	5.336
452.12	5.361
452.47	5.110
452.83	6.137
453.18	5.429
453.53	5.342
453.88	5.522
454.23	5.989
454.58	5.804
454.93	5.643
455.28	6.201
455.63	6.083
455.98	5.698
456.34	6.596
456.69	5.467
457.04	5.260
457.39	5.543
457.74	5.928
458.09	5.656
458.44	6.358
458.79	5.467
459.14	6.450
459.49	5.376
459.84	6.401
460.19	5.552
460.54	5.906
460.89	5.770
461.24	5.287
461.59	5.534
461.94	5.134
462.29	6.271
462.64	5.371
462.99	5.838
463.34	4.997
463.69	5.979
464.04	6.837
464.39	5.269
464.74	5.872
465.09	6.055
465.44	5.740
465.79	7.192
466.14	5.576
466.49	6.263
466.84	6.006
467.19	5.549
467.54	4.818
467.89	5.517
468.24	6.150
468.59	5.153
468.94	5.128
469.29	5.099
469.64	5.404
469.99	6.246
470.34	5.817
470.68	5.400
471.03	5.632
471.38	5.232
471.73	5.007
472.08	5.584
472.43	5.719
472.78	5.479
473.13	5.247
473.48	5.801
473.83	6.036
474.17	6.038
474.52	5.953
474.87	5.869
475.22	6.085
475.57	5.400
475.92	5.874
476.27	6.283
476.61	5.504
476.96	5.631
477.31	6.386
477.66	6.401
478.01	6.355
478.36	5.982
478.70	5.862
479.05	6.237
479.40	6.515
479.75	6.580
480.10	6.206
480.45	6.563
480.79	6.757
481.14	5.607
481.49	6.497
481.84	6.701
482.19	6.710
482.53	6.734
482.88	6.557
483.23	6.225
483.58	6.114
483.92	6.073
484.27	7.028
484.62	6.559
484.97	6.804
485.31	6.758
485.66	6.508
486.01	6.371
486.36	6.949
486.70	7.450
487.05	7.884
487.40	7.894
487.75	7.634
488.09	7.354
488.44	7.059
488.79	7.285
489.13	6.770
489.48	6.252
489.83	6.640
490.17	6.075
490.52	6.158
490.87	6.514
491.22	6.499
491.56	6.911
491.91	6.411
492.26	6.534
492.60	6.690
492.95	5.836
493.30	6.723
493.64	6.439
493.99	6.228
494.34	6.228
494.68	5.910
495.03	6.828
495.37	6.170
495.72	6.485
496.07	5.960
496.41	5.963
496.76	6.589
497.11	6.115
497.45	6.474
497.80	6.975
498.14	6.304
498.49	6.066
498.84	6.718
499.18	6.523
499.53	6.547
499.87	6.462
500.22	5.432
500.56	6.163
500.91	5.584
501.26	7.227
501.60	6.231
501.95	6.383
502.29	6.757
502.64	6.603
502.98	5.910
503.33	6.868
503.67	6.542
504.02	6.217
504.36	6.434
504.71	6.798
505.06	6.412
505.40	6.581
505.75	6.648
506.09	6.814
506.44	6.732
506.78	6.284
507.13	6.455
507.47	6.158
507.82	6.345
508.16	5.688
508.51	5.813
508.85	6.330
509.19	7.011
509.54	6.628
509.88	6.265
510.23	7.382
510.57	6.912
510.92	6.289
511.26	6.301
511.61	6.181
511.95	6.149
512.30	7.041
512.64	6.247
512.98	6.653
513.33	6.603
513.67	6.578
514.02	6.745
514.36	6.803
514.70	6.771
515.05	6.204
515.39	6.719
515.74	6.893
516.08	6.867
516.42	6.541
516.77	7.098
517.11	5.725
517.46	6.575
517.80	7.162
518.14	7.182
518.49	6.779
518.83	7.025
519.17	6.354
519.52	7.338
519.86	7.550
520.20	7.082
520.55	6.407
520.89	6.700
521.23	6.588
521.58	6.610
521.92	5.609
522.26	6.644
522.61	6.481
522.95	6.690
523.29	6.494
523.64	6.502
523.98	6.731
524.32	7.163
524.66	6.602
525.01	6.455
525.35	6.663
525.69	6.032
526.04	6.315
526.38	6.724
526.72	6.113
527.06	6.979
527.41	6.647
527.75	6.770
528.09	6.907
528.43	6.454
528.78	6.994
529.12	6.135
529.46	6.521
529.80	6.751
530.15	7.014
530.49	6.880
530.83	7.556
531.17	6.093
531.51	7.280
531.86	7.031
532.20	6.829
532.54	6.703
532.88	7.030
533.22	7.071
533.57	7.155
533.91	6.958
534.25	7.010
534.59	6.724
534.93	6.055
535.27	6.479
535.62	7.447
535.96	6.798
536.30	6.463
536.64	7.027
536.98	6.950
537.32	6.481
537.66	6.488
538.01	6.405
538.35	6.334
538.69	6.010
539.03	7.235
539.37	6.773
539.71	6.847
540.05	7.254
540.39	6.846
540.73	6.072
541.07	5.702
541.42	6.675
541.76	6.465
542.10	6.514
542.44	6.334
542.78	6.387
543.12	6.377
543.46	6.716
543.80	6.235
544.14	7.002
544.48	6.797
544.82	6.643
545.16	7.573
545.50	6.231
545.84	6.920
546.18	7.160
546.52	6.051
546.86	5.660
547.20	5.980
547.54	6.679
547.88	7.233
548.22	7.485
548.56	6.671
548.90	6.090
549.24	6.809
549.58	6.246
549.92	6.505
550.26	7.184
550.60	6.190
550.94	6.468
551.28	7.393
551.62	7.278
551.96	6.602
552.30	6.947
552.64	6.783
552.98	6.800
553.32	6.624
553.66	6.109
554.00	6.242
554.34	7.207
554.68	6.779
555.02	5.585
555.36	6.969
555.69	6.086
556.03	6.179
556.37	7.259
556.71	6.405
557.05	6.709
557.39	6.569
557.73	6.341
558.07	5.828
558.41	6.711
558.75	5.815
559.08	6.681
559.42	6.516
559.76	6.716
560.10	6.765
560.44	7.454
560.78	7.312
561.12	6.404
561.45	6.813
561.79	5.922
562.13	6.531
562.47	6.227
562.81	7.025
563.15	6.629
563.48	7.085
563.82	6.771
564.16	6.178
564.50	6.377
564.84	7.139
565.17	6.412
565.51	6.329
565.85	6.532
566.19	6.048
566.52	6.437
566.86	6.961
567.20	6.090
567.54	6.213
567.88	7.288
568.21	6.225
568.55	7.194
568.89	6.627
569.23	7.520
569.56	7.112
569.90	7.555
570.24	7.757
570.57	7.280
570.91	7.134
571.25	7.752
571.59	7.988
571.92	7.676
572.26	7.517
572.60	7.699
572.93	7.849
573.27	7.699
573.61	7.491
573.95	7.842
574.28	7.568
574.62	7.344
574.96	6.970
575.29	7.777
575.63	7.554
575.97	7.928
576.30	7.427
576.64	7.779
576.98	7.699
577.31	7.337
577.65	7.759
577.98	7.700
578.32	7.226
578.66	7.256
578.99	7.475
579.33	7.737
579.67	7.729
580.00	7.327
580.34	7.657
580.67	7.392
581.01	7.551
581.35	7.656
581.68	7.418
582.02	7.671
582.35	7.826
582.69	7.834
583.02	8.055
583.36	7.763
583.70	7.953
584.03	7.367
584.37	7.504
584.70	7.042
585.04	7.347
585.37	7.269
585.71	7.400
586.04	7.288
586.38	7.730
586.72	7.320
587.05	7.009
587.39	7.654
587.72	7.344
588.06	7.519
588.39	7.518
588.73	7.037
589.06	7.562
589.40	7.314
589.73	7.359
590.07	7.626
590.40	7.606
590.73	7.140
591.07	7.558
591.40	7.076
591.74	6.558
592.07	6.862
592.41	7.177
592.74	7.135
593.08	7.516
593.41	7.699
593.75	7.902
594.08	7.422
594.41	7.724
594.75	7.340
595.08	6.629
595.42	7.435
595.75	6.942
596.09	7.794
596.42	7.023
596.75	7.449
597.09	7.111
597.42	7.191
597.75	7.291
598.09	7.103
598.42	7.640
598.76	6.763
599.09	7.262
599.42	7.342
599.76	6.933
600.09	7.007
600.42	6.940
600.76	6.836
601.09	6.837
601.42	7.415
601.76	7.138
602.09	7.005
602.42	6.543
602.76	7.232
603.09	7.159
603.42	7.406
603.76	6.942
604.09	8.126
604.42	7.413
604.76	7.306
605.09	6.582
605.42	7.097
605.75	7.231
606.09	6.756
606.42	7.114
606.75	6.597
607.09	7.220
607.42	6.744
607.75	7.268
608.08	7.064
608.42	6.892
608.75	6.758
609.08	6.664
609.41	6.484
609.75	6.250
610.08	6.816
610.41	6.882
610.74	6.975
611.07	6.572
611.41	7.040
611.74	6.928
612.07	7.153
612.40	6.797
612.73	6.259
613.07	6.650
613.40	6.160
613.73	6.789
614.06	6.379
614.39	6.365
614.72	6.793
615.06	6.015
615.39	6.428
615.72	6.635
616.05	5.974
616.38	7.265
616.71	6.844
617.05	6.177
617.38	6.902
617.71	6.803
618.04	5.990
618.37	6.831
618.70	7.014
619.03	6.153
619.36	6.782
619.69	5.830
620.03	6.026
620.36	6.135
620.69	5.861
621.02	6.365
621.35	6.023
621.68	6.652
622.01	5.480
622.34	5.091
622.67	6.254
623.00	4.656
623.33	6.171
623.66	6.226
623.99	5.003
624.32	6.563
624.65	5.920
624.99	6.892
625.32	6.205
625.65	5.866
625.98	5.627
626.31	6.378
626.64	5.861
626.97	5.476
627.30	5.391
627.63	5.101
627.96	6.381
628.29	5.992
628.62	4.534
628.95	4.996
629.28	4.588
629.61	5.303
629.94	5.439
630.26	4.746
630.59	5.613
630.92	4.589
631.25	5.635
631.58	4.614
631.91	4.499
632.24	5.283
632.57	5.218
632.90	4.915
633.23	4.490
633.56	4.898
633.89	4.236
634.22	5.301
634.55	4.489
634.88	4.654
635.20	4.736
635.53	3.842
635.86	4.659
636.19	5.196
636.52	4.641
636.85	4.597
637.18	3.742
637.51	3.763
637.83	5.094
638.16	4.839
638.49	3.638
638.82	4.059
639.15	3.780
639.48	5.889
639.81	5.196
640.13	4.947
640.46	1.939
640.79	2.328
641.12	3.975
641.45	3.639
641.77	5.006
642.10	2.625
642.43	5.851
642.76	3.794
643.09	2.740
643.41	3.081
643.74	3.586
644.07	4.000
644.40	3.819
644.73	3.919
645.05	2.349
645.38	3.741
645.71	2.639
646.04	5.595
646.36	1.168
646.69	1.687
647.02	3.211
647.35	4.122
647.67	1.932
648.00	2.707
648.33	4.054
648.66	1.854
648.98	3.946
649.31	4.195
649.64	4.250
649.96	3.316
650.29	1.530
650.62	2.829
650.94	1.502
651.27	1.946
651.60	2.047
651.92	2.280
652.25	3.763
652.58	4.127
652.90	3.198
653.23	2.817
653.56	2.568
653.88	4.494
654.21	2.676
654.54	2.890
654.86	3.683
655.19	2.886
655.52	5.188
655.84	7.394
656.17	8.839
656.49	12.206
656.82	13.583
657.15	10.694
657.47	8.430
657.80	6.141
658.13	4.944
658.45	6.011
658.78	7.345
659.10	6.440
659.43	5.775
659.75	4.905
660.08	3.922
660.41	2.895
660.73	3.649
661.06	-0.441
661.38	1.116
661.71	0.517
662.03	0.353
662.36	2.862
662.68	-0.188
663.01	1.947
663.33	0.945
663.66	4.212
663.98	0.385
664.31	0.563
664.63	-0.578
664.96	0.181
665.28	0.000
665.61	3.671
665.93	1.071
666.26	1.971
666.58	0.369
666.91	3.738
667.23	2.476
667.56	0.197
667.88	0.400
668.21	0.391
668.53	-1.351
668.86	-0.196
669.18	-0.815
669.50	-0.795
669.83	0.400
670.15	0.787
670.48	2.778
670.80	-0.956
671.13	0.378
671.45	0.984
671.77	1.507
672.10	1.333
672.42	0.809
672.75	0.461
673.07	2.239
673.39	2.157
673.72	1.510
674.04	1.207
674.37	1.431
674.69	1.940
675.01	-0.952
675.34	-2.672
675.66	0.187
675.98	0.746
676.31	0.977
676.63	1.521
676.95	0.766
677.28	0.605
677.60	-1.969
677.92	0.960
678.25	2.925
678.57	1.246
678.89	1.706
679.22	1.394
679.54	1.026
679.86	-0.508
680.18	0.498
680.51	1.101
680.83	0.982
681.15	0.690
681.48	2.418
681.80	2.073
682.12	0.524
682.44	1.503
682.77	2.128
683.09	0.000
683.41	0.581
683.73	0.000
684.06	-1.292
684.38	-0.358
684.70	2.154
685.02	-0.861
685.34	-0.333
685.67	0.473
685.99	1.227
686.31	0.727
686.63	0.948
686.96	2.681
687.28	0.977
687.60	0.505
687.92	-1.125
688.24	0.835
688.56	-0.517
688.89	1.089
689.21	-0.196
689.53	-3.922
689.85	-1.578
690.17	-0.926
690.49	-1.195
690.82	0.792
691.14	-4.049
691.46	1.530
691.78	2.394
692.10	0.000
692.42	-0.893
692.74	-1.089
693.06	-2.778
693.39	-0.949
693.71	-1.880
694.03	0.000
694.35	-0.381
694.67	-1.232
694.99	0.638
695.31	-0.883
695.63	1.732
695.95	-0.414
696.27	-3.077
696.59	0.000
696.91	-2.027
697.23	0.440
697.56	-1.222
697.88	-0.189
698.20	-1.130
698.52	2.462
698.84	-0.832
699.16	1.429
699.48	-1.883
699.80	-2.553
700.12	-0.655
700.44	-4.839
700.76	-2.375
701.08	-0.726
701.40	-1.554
701.72	-0.995
702.04	-0.535
702.36	-4.188
702.68	-3.178
703.00	-2.445
703.32	-4.187
703.64	-3.912
703.96	-2.625
704.28	-4.668
704.60	-3.038
704.91	-2.551
705.23	-3.562
705.55	-4.457
705.87	-3.939
706.19	-5.828
706.51	-6.325
706.83	-6.052
707.15	-4.762
707.47	-6.542
707.79	-3.057
708.11	-5.297
708.43	-3.011
708.74	-4.688
709.06	-3.712
709.38	-0.704
709.70	-1.737
710.02	-3.101
710.34	-3.723
710.66	-6.704
710.98	-5.464
711.29	-6.044
711.61	-3.390
711.93	-4.843
712.25	-5.135
712.57	-5.015
712.89	-4.118
713.20	-5.621
713.52	-3.179
713.84	-3.343
714.16	1.316
714.48	-3.351
714.80	-0.519
715.11	-4.199
715.43	-4.509
715.75	-4.737
716.07	-4.420
716.39	-2.732
716.70	-5.120
717.02	-8.852
717.34	-11.150
717.66	-10.403
717.97	-10.959
718.29	-8.591
718.61	-10.526
718.93	-5.825
719.24	-6.522
719.56	-7.362
719.88	-8.408
720.20	-10.000
720.51	-5.280
720.83	-3.750
721.15	-9.211
721.46	-12.671
721.78	-8.667
722.10	-10.356
722.42	-8.389
722.73	-3.871
723.05	-8.421
723.37	-4.861
723.68	-7.168
724.00	-9.386
724.32	-9.155
724.63	-8.741
724.95	-6.383
725.27	-5.923
725.58	-7.774
725.90	-6.897
726.22	-6.583
726.53	-7.792
726.85	-5.346
727.16	-4.532
727.48	-3.364
727.80	-3.311
728.11	-9.187
728.43	-7.071
728.74	-7.692
729.06	-8.609
729.38	-7.792
729.69	-11.074
730.01	-2.679
730.32	-9.091
730.64	-7.547
730.96	-7.453
731.27	-3.911
731.59	-5.220
731.90	-5.714
732.22	-5.729
732.53	-7.459
732.85	-6.857
733.16	-5.572
733.48	-10.976
733.80	-7.799
734.11	-5.413
734.43	-5.405
734.74	-2.278
735.06	-3.266
735.37	-4.054
735.69	-2.162
736.00	-3.955
736.32	-2.156
736.63	-3.889
736.95	-3.736
737.26	-2.727
737.58	-5.758
737.89	-2.353
738.21	-8.869
738.52	-12.459
738.83	-5.119
739.15	-9.929
739.46	-7.143
739.78	-4.601
740.09	-9.456
740.41	-4.956
740.72	-10.333
741.04	-7.120
741.35	-8.421
741.66	-13.333
741.98	-11.066
742.29	-13.389
742.61	-8.772
742.92	-6.154
743.23	-7.581
743.55	-12.016
743.86	-10.800
744.18	-16.116
744.49	-13.924
744.80	-11.523
745.12	-10.549
745.43	-9.756
745.74	-13.793
746.06	-13.983
746.37	-10.549
746.68	-8.537
747.00	-7.917
747.31	-9.871
747.62	-8.462
747.94	-12.146
748.25	-14.056
748.56	-13.061
748.88	-14.103
749.19	-12.069
749.50	-16.017
749.82	-7.631
750.13	-6.050
750.44	-9.333
750.75	-8.308
751.07	-6.462
751.38	-10.095
751.69	-5.431
752.01	-11.974
752.32	-8.170
752.63	-10.884
752.94	-10.035
753.26	-10.781
753.57	-12.222
753.88	-10.112
754.19	-8.039
754.51	-8.682
754.82	-4.180
755.13	-6.557
755.44	-10.239
755.75	-7.566
756.07	-2.687
756.38	-6.604
756.69	-5.120
757.00	-6.094
757.31	-5.464
757.63	-6.905
757.94	-4.695
758.25	-2.709
758.56	-5.229
758.87	-1.364
759.18	-6.133
759.50	-5.666
759.81	-5.322
760.12	-2.156
760.43	-3.906
760.74	-4.187
761.05	-6.500
761.36	-7.229
761.67	-4.569
761.99	-4.595
762.30	-8.232
762.61	-10.231
762.92	-12.313
763.23	-7.116
763.54	-8.633
763.85	-8.591
764.16	-6.734
764.47	-7.042
764.78	-4.792
765.10	-4.985
765.41	-3.333
765.72	-7.672
766.03	-6.215
766.34	-12.226
766.65	-11.847
766.96	-10.359
767.27	-13.364
767.58	-21.393
767.89	-8.173
768.20	-15.493
768.51	-14.352
768.82	-13.655
769.13	-9.470
769.44	-12.692
769.75	-10.108
770.06	-10.769
770.37	-7.480
770.68	-16.596
770.99	-14.980
771.30	-2.222
771.61	-9.125
771.92	-10.741
772.23	-12.551
772.54	-17.130
772.85	-10.599
773.16	-10.952
773.47	-17.460
773.78	-21.081
774.09	-17.614
774.39	-10.500
774.70	-15.301
775.01	-17.683
775.32	-22.353
775.63	-22.086
775.94	-27.389
776.25	-23.871
776.56	-23.077
776.87	-26.531
777.18	-25.517
777.48	-21.678
777.79	-23.649
778.10	-29.412
778.41	-28.472
778.72	-22.069
779.03	-19.136
779.34	-19.394
779.65	-18.653
779.95	-15.000
780.26	-17.045
780.57	-25.806
780.88	-26.812
781.19	-21.290
781.50	-18.824
781.80	-15.591
782.11	-14.815
782.42	-16.667
782.73	-25.749
783.04	-15.084
783.34	-20.606
783.65	-30.065
783.96	-26.087
784.27	-23.214
784.57	-27.815
784.88	-21.429
785.19	-37.795
785.50	-32.283
785.81	-27.068
786.11	-27.692
786.42	-30.935
786.73	-27.338
787.04	-29.323
787.34	-35.246
787.65	-32.800
787.96	-33.582
788.26	-23.776
788.57	-18.182
788.88	-19.737
789.19	-16.993
789.49	-21.918
789.80	-29.078
790.11	-25.197
790.41	-29.687
790.72	-27.119
791.03	-49.515
791.33	-33.043
791.64	-33.333
791.95	-36.607
792.25	-41.905
792.56	-37.500
792.87	-44.792
793.17	-37.500
793.48	-47.917
793.79	-61.446
794.09	-43.119
794.40	-37.615
794.70	-22.449
795.01	-25.974
795.32	-26.027
795.62	-24.648
795.93	-35.606
796.23	-33.607
796.54	-33.036
796.85	-54.255
797.15	-54.348
797.46	-57.534
797.76	-67.500
798.07	-42.391
798.37	-54.639
798.68	-62.338
798.99	-55.172
799.29	-44.944
799.60	-39.362
799.90	-46.988
800.21	-70.769
800.51	-79.104
800.82	-63.235
801.12	-64.384
801.43	-60.294
801.73	-79.661
802.04	-69.697
802.34	-73.333
802.65	-77.966
802.95	-47.761
803.26	-79.661
803.56	-60.274
803.87	-51.429
804.17	-49.315
804.48	-91.228
804.78	-62.500
805.09	-82.759
805.39	-44.595
805.70	-71.831
806.00	-46.341
806.30	-45.783
806.61	-61.644
806.91	-37.500
807.22	-50.000
807.52	-52.874
807.83	-58.333
808.13	-53.012
808.43	-47.191
808.74	-43.750
809.04	-69.118
809.35	-52.000
809.65	-58.571
809.95	-64.384
810.26	-96.491
810.56	-77.586
810.86	-58.824
811.17	-92.982
811.47	-86.885
811.77	-111.111
812.08	-77.966
812.38	-68.333
812.69	-62.069
812.99	-94.340
813.29	-138.462
813.59	-80.000
813.90	-70.175
814.20	-85.455
814.50	-43.662
814.81	-51.282
815.11	-78.689
815.41	-68.657
815.72	-60.345
816.02	-69.643
816.32	-86.667
816.62	-86.364
816.93	-115.556
817.23	-68.519
817.53	-102.128
817.84	-111.905
818.14	-144.118
818.44	-71.429
818.74	-91.111
819.04	-146.154
819.35	-140.000
819.65	-203.846
819.95	-75.472
820.25	-88.889
820.56	-114.286
820.86	-159.375
821.16	-110.256
821.46	-118.605
821.76	-128.000
822.07	-85.714
822.37	-93.478
822.67	-93.617
822.97	-162.162
823.27	-117.500
823.57	-95.918
823.88	-91.111
824.18	-97.500
824.48	-150.000
824.78	-208.000
825.08	-136.364
825.38	-80.000
825.69	-87.234
825.99	-122.222
826.29	-188.571
826.59	-135.897
826.89	-111.628
827.19	-102.000
827.49	-144.118
827.79	-87.500
828.09	-156.757
828.39	-180.000
828.70	-104.878
829.00	-90.698
829.30	-167.857
829.60	-123.529
829.90	-91.304
830.20	-145.714
830.50	-165.517
830.80	-300.000
831.10	-211.538
831.40	-155.882
831.70	-185.714
832.00	-132.258
832.30	-376.471
832.60	-195.833
832.90	-407.692
833.20	-305.263
833.50	-245.000
833.80	-289.474
834.10	-300.000
834.40	-113.889
834.70	-128.125
835.00	-168.571
835.30	-138.235
835.60	-140.000
835.90	-192.000
836.20	-254.545
836.50	-180.000
836.80	-163.636
837.10	-196.296
837.40	-185.185
837.70	-362.500
838.00	-146.429
838.30	-200.000
838.60	-93.103
838.90	-328.571
839.19	-243.478
839.49	-475.000
839.79	-191.304
840.09	-362.500
840.39	-265.000
840.69	-116.129
840.99	-182.143
841.29	-320.000
841.59	-289.474
841.88	-82.051
842.18	-223.077
842.48	-530.000
842.78	-230.000
843.08	-126.667
843.38	-125.806
843.68	-277.778
843.97	-129.412
844.27	-343.750
844.57	-263.158
844.87	-510.000
845.17	-293.333
845.47	-180.952
845.76	-223.810
846.06	-577.778
846.36	-317.647
846.66	-188.462
846.96	-333.333
847.25	-288.235
847.55	-191.304
847.85	-255.000
848.15	-241.176
848.44	-400.000
848.74	-180.952
849.04	-195.833
849.34	-293.750
849.63	-191.304
849.93	2650.000
850.23	-280.000
850.53	-165.385
850.82	-509.091
851.12	-186.364
851.42	-518.182
851.71	-284.615
852.01	-290.000
852.31	-353.846
852.61	-236.842
852.90	-383.333
853.20	-250.000
853.50	-633.333
853.79	-233.333
854.09	-209.091
854.39	-483.333
854.68	-151.613
854.98	-180.769
855.28	-238.889
855.57	-164.286
855.87	-168.000
856.17	-236.364
856.46	-151.852
856.76	-222.222
857.05	-191.304
857.35	-208.333
857.65	-376.923
857.94	-195.238
858.24	-148.148
858.53	-191.304
858.83	-288.235
859.13	-294.118
859.42	-264.706
859.72	-350.000
860.01	-250.000
860.31	-488.889
860.60	-390.000
860.90	-280.000
861.20	-277.778
861.49	-315.385
861.79	-130.000
862.08	-361.538
862.38	-118.750
862.67	-247.059
862.97	-281.250
863.26	-544.444
863.56	-510.000
863.85	-445.455
864.15	-227.778
864.44	-1600.000
864.74	-321.429
865.03	-293.750
865.33	-570.000
865.62	-180.645
865.92	-195.455
866.21	-191.304
866.51	-278.571
866.80	-1020.000
867.10	-375.000
867.39	-475.000
867.69	6200.000
867.98	-685.714
868.27	-264.706
868.57	-6200.000
868.86	-510.000
869.16	-219.048
869.45	-170.833
869.75	-318.182
870.04	-700.000
870.33	-416.667
870.63	-871.429
870.92	-1075.000
871.22	-725.000
871.51	-454.545
871.80	-2333.333
872.10	-2800.000
>>>>>End Processed Spectral Data<<<<<
