SpectraSuite Data File
++++++++++++++++++++++++++++++++++++
Date: Fri May 15 20:39:11 PDT 2015
User: schluterlab
Dark Spectrum Present: Yes
Reference Spectrum Present: Yes
Number of Sampled Component Spectra: 1
Spectrometers: USB2E3373
Integration Time (usec): 3000 (USB2E3373)
Spectra Averaged: 3 (USB2E3373)
Boxcar Smoothing: 0 (USB2E3373)
Correct for Electrical Dark: No (USB2E3373)
Strobe/Lamp Enabled: No (USB2E3373)
Correct for Detector Non-linearity: No (USB2E3373)
Correct for Stray Light: No (USB2E3373)
Number of Pixels in Processed Spectrum: 2048
>>>>>Begin Processed Spectral Data<<<<<
178.53	0.000
178.91	0.000
179.29	25.000
179.67	-50.000
180.04	14.286
180.42	275.000
180.80	-300.000
181.18	100.000
181.56	500.000
181.94	300.000
182.31	-200.000
182.69	-100.000
183.07	-33.333
183.45	-120.000
183.83	83.333
184.20	9.091
184.58	122.222
184.96	-75.000
185.34	166.667
185.72	-450.000
186.09	161.538
186.47	-700.000
186.85	83.333
187.23	111.111
187.61	-100.000
187.98	-166.667
188.36	-11.111
188.74	-66.667
189.12	5.882
189.49	33.333
189.87	0.000
190.25	14.286
190.63	700.000
191.00	200.000
191.38	-5.263
191.76	350.000
192.14	250.000
192.51	-100.000
192.89	-22.222
193.27	-100.000
193.65	150.000
194.02	145.455
194.40	20.000
194.78	0.000
195.15	-50.000
195.53	-100.000
195.91	350.000
196.29	25.000
196.66	130.769
197.04	100.000
197.42	-122.222
197.79	-700.000
198.17	-123.077
198.55	300.000
198.92	-233.333
199.30	200.000
199.68	-200.000
200.05	-300.000
200.43	0.000
200.81	33.333
201.18	-333.333
201.56	1200.000
201.94	-150.000
202.31	-66.667
202.69	-280.000
203.07	50.000
203.44	0.000
203.82	0.000
204.19	35.714
204.57	-533.333
204.95	50.000
205.32	-20.000
205.70	71.429
206.08	-175.000
206.45	111.111
206.83	-14.286
207.20	-114.286
207.58	600.000
207.96	-233.333
208.33	-130.000
208.71	-300.000
209.08	-66.667
209.46	-1200.000
209.84	0.000
210.21	-1500.000
210.59	28.571
210.96	33.333
211.34	100.000
211.71	80.000
212.09	-142.857
212.46	-1300.000
212.84	0.000
213.22	120.000
213.59	250.000
213.97	15.385
214.34	-54.545
214.72	-133.333
215.09	500.000
215.47	0.000
215.84	9.091
216.22	-133.333
216.59	-25.000
216.97	-100.000
217.34	-100.000
217.72	-360.000
218.09	75.000
218.47	100.000
218.84	-200.000
219.22	-11.111
219.59	-240.000
219.97	100.000
220.34	275.000
220.72	28.571
221.09	-200.000
221.47	100.000
221.84	-600.000
222.22	-750.000
222.59	-9.091
222.97	-58.333
223.34	-266.667
223.72	-50.000
224.09	-28.571
224.46	46.429
224.84	300.000
225.21	20.000
225.59	6.667
225.96	-500.000
226.34	325.000
226.71	-114.286
227.08	16.667
227.46	-25.000
227.83	-600.000
228.21	-11.111
228.58	-81.818
228.95	50.000
229.33	120.000
229.70	-37.500
230.08	-112.500
230.45	-128.571
230.82	-28.571
231.20	-13.333
231.57	14.286
231.95	142.857
232.32	-210.000
232.69	-14.286
233.07	-366.667
233.44	-100.000
233.81	-60.000
234.19	-66.667
234.56	-58.824
234.93	200.000
235.31	125.000
235.68	0.000
236.05	-107.692
236.43	-40.000
236.80	-64.706
237.17	-18.750
237.55	-45.000
237.92	-48.148
238.29	-5.556
238.67	20.000
239.04	-2.941
239.41	-14.634
239.79	-3.333
240.16	-14.634
240.53	-23.684
240.91	-10.870
241.28	-4.762
241.65	16.071
242.02	12.329
242.40	16.667
242.77	0.000
243.14	-12.121
243.51	0.000
243.89	3.448
244.26	1.149
244.63	7.143
245.00	4.124
245.38	-2.062
245.75	-15.730
246.12	0.862
246.49	2.479
246.87	8.654
247.24	-5.042
247.61	-10.526
247.98	6.504
248.36	1.875
248.73	7.237
249.10	-0.649
249.47	3.797
249.84	-1.307
250.22	0.000
250.59	7.190
250.96	5.634
251.33	-1.744
251.70	2.941
252.08	-2.538
252.45	3.465
252.82	2.513
253.19	3.687
253.56	-1.869
253.94	3.153
254.31	4.783
254.68	7.456
255.05	3.543
255.42	1.747
255.79	3.861
256.16	-1.167
256.54	9.328
256.91	1.901
257.28	4.089
257.65	-0.749
258.02	1.418
258.39	4.714
258.76	6.227
259.14	2.990
259.51	3.236
259.88	1.718
260.25	0.980
260.62	6.250
260.99	-2.373
261.36	-1.712
261.73	2.215
262.10	3.343
262.47	2.454
262.85	1.881
263.22	0.308
263.59	0.935
263.96	3.727
264.33	2.727
264.70	1.190
265.07	3.869
265.44	4.249
265.81	0.565
266.18	2.732
266.55	4.627
266.92	2.332
267.29	2.611
267.66	1.279
268.03	4.188
268.40	1.305
268.77	5.348
269.14	2.878
269.51	3.856
269.88	1.995
270.25	2.041
270.62	2.195
270.99	0.512
271.36	3.912
271.73	3.756
272.10	2.190
272.47	4.255
272.84	1.238
273.21	4.872
273.58	2.651
273.95	4.348
274.32	0.924
274.69	0.452
275.06	3.795
275.43	3.628
275.80	1.766
276.17	2.069
276.54	3.426
276.91	4.167
277.28	0.218
277.65	4.132
278.02	1.915
278.39	2.626
278.76	3.983
279.13	1.867
279.50	3.782
279.87	5.400
280.23	3.441
280.60	3.509
280.97	2.424
281.34	2.115
281.71	4.107
282.08	3.476
282.45	1.174
282.82	1.931
283.19	6.190
283.56	0.963
283.92	1.518
284.29	0.769
284.66	2.326
285.03	3.340
285.40	0.945
285.77	3.691
286.14	2.888
286.51	5.351
286.87	2.559
287.24	2.210
287.61	3.351
287.98	5.439
288.35	2.946
288.72	2.627
289.08	4.688
289.45	2.636
289.82	3.147
290.19	3.242
290.56	1.887
290.93	2.020
291.29	3.236
291.66	2.992
292.03	1.595
292.40	2.903
292.77	1.435
293.13	-0.162
293.50	1.366
293.87	3.359
294.24	2.473
294.60	2.683
294.97	2.976
295.34	1.380
295.71	3.428
296.08	0.299
296.44	1.280
296.81	1.250
297.18	1.739
297.55	2.168
297.91	2.192
298.28	3.562
298.65	3.121
299.02	2.830
299.38	-0.410
299.75	3.310
300.12	1.440
300.48	1.449
300.85	3.802
301.22	0.779
301.59	2.368
301.95	1.899
302.32	4.280
302.69	2.488
303.05	2.104
303.42	2.366
303.79	2.336
304.15	4.659
304.52	1.665
304.89	2.339
305.25	2.179
305.62	0.817
305.99	1.520
306.35	0.925
306.72	2.137
307.09	2.166
307.45	2.870
307.82	0.926
308.19	2.671
308.55	1.636
308.92	1.852
309.29	1.453
309.65	1.076
310.02	2.420
310.38	2.634
310.75	2.842
311.12	2.045
311.48	1.379
311.85	2.408
312.22	0.949
312.58	1.805
312.95	1.921
313.31	1.035
313.68	2.513
314.05	2.347
314.41	1.959
314.78	2.268
315.14	2.158
315.51	2.692
315.87	1.434
316.24	4.752
316.61	2.264
316.97	2.877
317.34	3.320
317.70	1.434
318.07	1.058
318.43	2.941
318.80	2.083
319.16	2.344
319.53	3.419
319.89	3.543
320.26	2.530
320.62	3.109
320.99	1.670
321.35	3.392
321.72	3.323
322.08	2.417
322.45	3.249
322.81	1.473
323.18	1.668
323.54	2.027
323.91	2.337
324.27	3.125
324.64	2.903
325.00	2.828
325.37	3.673
325.73	2.539
326.10	2.725
326.46	3.318
326.83	3.412
327.19	3.487
327.56	3.475
327.92	3.873
328.29	3.571
328.65	2.925
329.01	2.390
329.38	3.318
329.74	2.833
330.11	3.336
330.47	2.690
330.84	2.308
331.20	3.042
331.56	3.519
331.93	4.384
332.29	3.941
332.66	3.348
333.02	3.996
333.38	3.208
333.75	3.663
334.11	3.312
334.48	4.261
334.84	3.571
335.20	3.019
335.57	3.264
335.93	3.523
336.29	4.236
336.66	2.906
337.02	3.067
337.38	3.796
337.75	3.455
338.11	3.336
338.47	2.920
338.84	4.251
339.20	3.565
339.56	2.936
339.93	4.118
340.29	3.761
340.65	3.763
341.02	3.369
341.38	4.071
341.74	2.562
342.11	3.120
342.47	2.580
342.83	4.325
343.20	2.875
343.56	3.304
343.92	3.277
344.28	3.843
344.65	3.454
345.01	3.371
345.37	3.448
345.73	4.435
346.10	3.106
346.46	4.205
346.82	3.110
347.19	2.743
347.55	3.342
347.91	3.317
348.27	4.123
348.63	2.555
349.00	3.035
349.36	1.829
349.72	3.648
350.08	4.180
350.45	3.352
350.81	2.243
351.17	3.013
351.53	3.755
351.89	4.046
352.26	3.440
352.62	3.629
352.98	3.373
353.34	2.979
353.70	3.803
354.07	3.790
354.43	3.683
354.79	3.055
355.15	3.810
355.51	3.718
355.87	3.398
356.24	2.773
356.60	3.234
356.96	4.365
357.32	2.955
357.68	3.049
358.04	2.342
358.40	2.894
358.77	3.509
359.13	3.523
359.49	2.388
359.85	2.964
360.21	3.030
360.57	2.754
360.93	3.404
361.29	2.115
361.66	3.213
362.02	3.409
362.38	3.199
362.74	2.650
363.10	3.010
363.46	2.891
363.82	4.433
364.18	3.469
364.54	2.426
364.90	2.222
365.26	3.566
365.62	3.650
365.98	2.419
366.35	3.350
366.71	2.882
367.07	3.338
367.43	3.091
367.79	3.039
368.15	3.015
368.51	3.277
368.87	2.297
369.23	2.310
369.59	3.061
369.95	3.079
370.31	3.757
370.67	3.134
371.03	1.494
371.39	2.845
371.75	2.857
372.11	3.281
372.47	2.441
372.83	3.052
373.19	4.066
373.55	2.310
373.91	3.168
374.27	3.047
374.63	3.015
374.99	2.979
375.35	2.089
375.71	3.287
376.07	3.020
376.42	3.741
376.78	3.826
377.14	2.844
377.50	3.121
377.86	2.610
378.22	3.127
378.58	2.179
378.94	3.718
379.30	2.682
379.66	3.824
380.02	2.514
380.38	3.165
380.74	2.753
381.09	4.233
381.45	2.936
381.81	2.529
382.17	3.490
382.53	2.811
382.89	2.260
383.25	3.485
383.61	3.537
383.97	2.159
384.32	2.564
384.68	3.406
385.04	2.574
385.40	2.116
385.76	3.648
386.12	3.234
386.48	2.746
386.83	2.156
387.19	3.724
387.55	3.011
387.91	2.812
388.27	3.602
388.62	3.713
388.98	2.762
389.34	2.748
389.70	3.232
390.06	2.517
390.42	3.562
390.77	2.485
391.13	2.081
391.49	2.264
391.85	2.794
392.20	2.574
392.56	2.606
392.92	3.406
393.28	2.594
393.64	2.883
393.99	3.699
394.35	2.277
394.71	3.321
395.07	2.514
395.42	2.793
395.78	2.345
396.14	2.837
396.50	3.044
396.85	2.769
397.21	2.569
397.57	3.072
397.92	2.756
398.28	2.874
398.64	2.831
399.00	3.104
399.35	2.144
399.71	2.700
400.07	3.023
400.42	2.999
400.78	2.694
401.14	3.267
401.49	3.931
401.85	2.803
402.21	3.193
402.57	2.938
402.92	2.133
403.28	2.945
403.63	2.774
403.99	2.105
404.35	2.811
404.70	2.560
405.06	3.173
405.42	2.983
405.77	1.917
406.13	2.503
406.49	2.783
406.84	2.445
407.20	3.251
407.55	1.996
407.91	2.807
408.27	2.422
408.62	3.446
408.98	2.588
409.34	3.408
409.69	2.713
410.05	2.648
410.40	3.148
410.76	3.257
411.11	2.562
411.47	3.616
411.83	2.134
412.18	2.638
412.54	3.059
412.89	1.847
413.25	3.490
413.60	2.919
413.96	3.006
414.31	3.537
414.67	2.951
415.03	2.796
415.38	3.264
415.74	3.062
416.09	3.462
416.45	2.701
416.80	2.776
417.16	2.555
417.51	3.264
417.87	2.542
418.22	3.756
418.58	2.809
418.93	3.386
419.29	2.497
419.64	2.528
420.00	3.841
420.35	3.761
420.71	3.645
421.06	3.376
421.42	3.846
421.77	3.064
422.12	2.838
422.48	3.086
422.83	3.190
423.19	3.160
423.54	2.587
423.90	2.945
424.25	3.559
424.61	3.182
424.96	2.962
425.31	4.159
425.67	2.817
426.02	2.768
426.38	2.943
426.73	3.874
427.09	3.861
427.44	4.235
427.79	3.123
428.15	3.883
428.50	3.331
428.85	3.133
429.21	3.905
429.56	3.504
429.92	3.903
430.27	3.759
430.62	2.823
430.98	3.185
431.33	4.364
431.68	3.872
432.04	2.907
432.39	3.423
432.74	3.127
433.10	4.828
433.45	3.286
433.80	3.482
434.16	2.936
434.51	3.763
434.86	3.426
435.22	3.758
435.57	2.932
435.92	4.012
436.28	3.637
436.63	3.879
436.98	3.244
437.34	3.025
437.69	3.697
438.04	3.476
438.39	3.177
438.75	3.400
439.10	3.565
439.45	4.321
439.81	2.813
440.16	3.207
440.51	4.358
440.86	5.136
441.22	3.733
441.57	3.311
441.92	4.355
442.27	4.213
442.63	4.764
442.98	3.619
443.33	3.895
443.68	3.767
444.03	3.924
444.39	3.984
444.74	4.404
445.09	4.343
445.44	3.533
445.79	4.435
446.15	4.130
446.50	3.328
446.85	3.879
447.20	3.597
447.55	4.241
447.91	4.061
448.26	5.122
448.61	4.836
448.96	3.844
449.31	3.353
449.66	3.659
450.02	4.392
450.37	3.794
450.72	4.582
451.07	4.494
451.42	3.995
451.77	4.521
452.12	4.127
452.47	3.284
452.83	3.651
453.18	3.858
453.53	4.235
453.88	4.554
454.23	4.179
454.58	4.660
454.93	4.704
455.28	3.492
455.63	4.650
455.98	4.931
456.34	4.406
456.69	4.447
457.04	4.915
457.39	3.767
457.74	4.353
458.09	3.237
458.44	4.037
458.79	4.482
459.14	4.748
459.49	5.254
459.84	4.963
460.19	4.369
460.54	3.851
460.89	4.432
461.24	4.472
461.59	5.226
461.94	4.025
462.29	4.463
462.64	4.983
462.99	4.807
463.34	4.172
463.69	4.183
464.04	4.903
464.39	4.124
464.74	4.663
465.09	4.803
465.44	5.136
465.79	3.798
466.14	4.846
466.49	5.290
466.84	4.997
467.19	4.443
467.54	4.406
467.89	3.980
468.24	4.927
468.59	5.143
468.94	4.825
469.29	5.049
469.64	5.400
469.99	5.256
470.34	4.505
470.68	4.922
471.03	5.096
471.38	4.422
471.73	5.252
472.08	4.613
472.43	4.094
472.78	4.455
473.13	4.762
473.48	5.798
473.83	4.670
474.17	4.987
474.52	5.361
474.87	4.545
475.22	4.698
475.57	4.856
475.92	4.717
476.27	5.064
476.61	5.035
476.96	4.964
477.31	5.408
477.66	4.888
478.01	4.660
478.36	4.956
478.70	4.894
479.05	5.604
479.40	5.246
479.75	4.692
480.10	5.376
480.45	5.050
480.79	5.841
481.14	5.686
481.49	4.828
481.84	3.861
482.19	5.519
482.53	5.084
482.88	5.537
483.23	5.038
483.58	5.613
483.92	4.792
484.27	5.469
484.62	4.931
484.97	5.265
485.31	4.733
485.66	4.809
486.01	5.028
486.36	4.974
486.70	5.117
487.05	4.869
487.40	5.145
487.75	5.014
488.09	5.068
488.44	5.158
488.79	5.043
489.13	5.609
489.48	4.746
489.83	5.247
490.17	4.989
490.52	5.312
490.87	5.553
491.22	5.253
491.56	4.934
491.91	5.163
492.26	5.105
492.60	5.326
492.95	5.755
493.30	5.178
493.64	4.813
493.99	5.700
494.34	5.340
494.68	4.524
495.03	4.623
495.37	5.692
495.72	5.755
496.07	5.610
496.41	5.189
496.76	5.435
497.11	5.123
497.45	4.821
497.80	5.550
498.14	5.514
498.49	5.688
498.84	5.489
499.18	5.221
499.53	5.704
499.87	4.961
500.22	5.242
500.56	5.396
500.91	5.271
501.26	5.091
501.60	4.968
501.95	5.580
502.29	5.230
502.64	5.502
502.98	5.081
503.33	5.331
503.67	5.542
504.02	6.061
504.36	5.888
504.71	5.707
505.06	5.385
505.40	5.635
505.75	5.258
506.09	4.967
506.44	6.109
506.78	6.071
507.13	5.843
507.47	5.222
507.82	4.274
508.16	5.547
508.51	6.401
508.85	5.861
509.19	4.949
509.54	5.684
509.88	5.448
510.23	5.702
510.57	5.826
510.92	5.224
511.26	5.237
511.61	5.666
511.95	5.863
512.30	6.042
512.64	6.344
512.98	5.334
513.33	6.379
513.67	4.946
514.02	6.865
514.36	6.114
514.70	6.410
515.05	6.404
515.39	6.139
515.74	6.168
516.08	5.738
516.42	7.126
516.77	6.144
517.11	5.697
517.46	6.164
517.80	6.436
518.14	6.552
518.49	5.769
518.83	5.954
519.17	5.822
519.52	6.039
519.86	5.942
520.20	6.318
520.55	5.253
520.89	6.775
521.23	6.460
521.58	6.751
521.92	6.474
522.26	6.506
522.61	6.234
522.95	6.225
523.29	7.116
523.64	6.989
523.98	6.935
524.32	5.992
524.66	6.594
525.01	7.338
525.35	6.935
525.69	6.465
526.04	5.820
526.38	7.847
526.72	6.017
527.06	6.291
527.41	6.135
527.75	6.032
528.09	7.176
528.43	7.562
528.78	6.469
529.12	6.710
529.46	6.303
529.80	7.346
530.15	6.535
530.49	6.936
530.83	6.772
531.17	6.917
531.51	7.045
531.86	5.846
532.20	7.029
532.54	6.739
532.88	6.913
533.22	6.989
533.57	6.750
533.91	6.136
534.25	7.487
534.59	6.928
534.93	7.048
535.27	7.487
535.62	6.610
535.96	6.915
536.30	6.992
536.64	7.305
536.98	7.456
537.32	7.041
537.66	8.345
538.01	6.923
538.35	6.796
538.69	7.523
539.03	6.835
539.37	8.008
539.71	7.635
540.05	7.739
540.39	7.618
540.73	8.438
541.07	7.251
541.42	8.065
541.76	7.571
542.10	7.020
542.44	7.644
542.78	5.781
543.12	7.005
543.46	7.580
543.80	7.564
544.14	6.609
544.48	7.595
544.82	7.382
545.16	6.899
545.50	7.677
545.84	7.790
546.18	7.447
546.52	7.570
546.86	7.189
547.20	7.010
547.54	6.290
547.88	6.861
548.22	7.035
548.56	7.190
548.90	7.412
549.24	7.094
549.58	7.546
549.92	7.076
550.26	6.667
550.60	7.584
550.94	6.572
551.28	6.878
551.62	6.769
551.96	7.368
552.30	6.725
552.64	7.334
552.98	7.876
553.32	7.061
553.66	7.039
554.00	6.788
554.34	7.607
554.68	7.153
555.02	7.515
555.36	6.507
555.69	6.813
556.03	7.495
556.37	7.189
556.71	7.365
557.05	7.383
557.39	6.245
557.73	8.021
558.07	6.938
558.41	7.121
558.75	6.703
559.08	6.935
559.42	6.905
559.76	6.325
560.10	6.498
560.44	7.446
560.78	8.042
561.12	6.488
561.45	7.168
561.79	7.003
562.13	7.594
562.47	6.475
562.81	7.853
563.15	7.334
563.48	7.567
563.82	7.550
564.16	6.964
564.50	6.892
564.84	6.894
565.17	7.378
565.51	8.060
565.85	7.476
566.19	7.361
566.52	6.434
566.86	7.519
567.20	6.787
567.54	6.934
567.88	6.737
568.21	7.296
568.55	7.554
568.89	7.444
569.23	7.126
569.56	7.312
569.90	6.821
570.24	6.997
570.57	7.018
570.91	6.797
571.25	6.643
571.59	6.883
571.92	6.667
572.26	6.673
572.60	6.915
572.93	6.746
573.27	6.144
573.61	6.951
573.95	6.881
574.28	6.912
574.62	6.484
574.96	6.856
575.29	7.042
575.63	6.375
575.97	6.696
576.30	6.550
576.64	6.887
576.98	7.053
577.31	6.758
577.65	6.858
577.98	6.826
578.32	6.715
578.66	6.490
578.99	6.575
579.33	6.495
579.67	6.586
580.00	6.886
580.34	6.567
580.67	6.602
581.01	6.484
581.35	6.826
581.68	6.770
582.02	6.717
582.35	6.741
582.69	6.506
583.02	6.452
583.36	6.600
583.70	7.009
584.03	7.117
584.37	7.199
584.70	6.621
585.04	6.632
585.37	6.732
585.71	6.344
586.04	6.833
586.38	6.482
586.72	7.059
587.05	6.904
587.39	6.654
587.72	7.162
588.06	6.781
588.39	6.722
588.73	6.838
589.06	7.273
589.40	7.086
589.73	6.937
590.07	7.251
590.40	7.198
590.73	7.331
591.07	7.082
591.40	7.035
591.74	7.376
592.07	7.514
592.41	7.111
592.74	6.930
593.08	6.567
593.41	6.919
593.75	6.771
594.08	6.694
594.41	6.987
594.75	6.374
595.08	6.583
595.42	7.361
595.75	6.384
596.09	7.428
596.42	6.862
596.75	6.794
597.09	7.380
597.42	6.369
597.75	7.146
598.09	7.017
598.42	7.265
598.76	6.778
599.09	7.212
599.42	7.048
599.76	6.960
600.09	6.712
600.42	6.748
600.76	6.649
601.09	6.794
601.42	6.463
601.76	6.868
602.09	6.724
602.42	6.950
602.76	7.131
603.09	7.184
603.42	7.274
603.76	6.331
604.09	6.642
604.42	6.853
604.76	7.076
605.09	7.221
605.42	6.817
605.75	6.524
606.09	6.667
606.42	6.839
606.75	7.056
607.09	7.077
607.42	6.114
607.75	6.794
608.08	6.514
608.42	6.670
608.75	6.843
609.08	6.976
609.41	6.904
609.75	7.560
610.08	6.291
610.41	6.860
610.74	6.680
611.07	6.357
611.41	6.435
611.74	7.196
612.07	6.585
612.40	6.838
612.73	6.836
613.07	6.749
613.40	8.206
613.73	6.100
614.06	6.956
614.39	7.501
614.72	6.555
615.06	6.425
615.39	6.277
615.72	6.512
616.05	6.592
616.38	5.869
616.71	7.645
617.05	6.424
617.38	7.165
617.71	7.799
618.04	6.921
618.37	6.873
618.70	6.931
619.03	7.500
619.36	6.223
619.69	6.975
620.03	7.597
620.36	6.795
620.69	6.924
621.02	7.492
621.35	7.469
621.68	6.803
622.01	6.167
622.34	7.263
622.67	6.782
623.00	6.585
623.33	7.088
623.66	6.507
623.99	6.959
624.32	6.920
624.65	5.865
624.99	7.374
625.32	5.307
625.65	6.991
625.98	6.608
626.31	6.068
626.64	7.972
626.97	6.632
627.30	7.093
627.63	6.153
627.96	6.918
628.29	6.660
628.62	6.883
628.95	6.413
629.28	6.452
629.61	7.278
629.94	7.625
630.26	6.423
630.59	7.180
630.92	7.179
631.25	7.282
631.58	7.048
631.91	6.798
632.24	5.275
632.57	7.841
632.90	6.762
633.23	7.176
633.56	6.927
633.89	5.795
634.22	6.173
634.55	6.226
634.88	5.236
635.20	5.128
635.53	7.867
635.86	7.412
636.19	8.150
636.52	5.230
636.85	6.700
637.18	5.912
637.51	6.667
637.83	7.359
638.16	7.776
638.49	6.540
638.82	8.158
639.15	5.563
639.48	7.290
639.81	6.276
640.13	7.504
640.46	7.580
640.79	4.418
641.12	6.499
641.45	6.306
641.77	5.333
642.10	6.635
642.43	8.682
642.76	9.241
643.09	7.593
643.41	6.311
643.74	7.249
644.07	7.718
644.40	7.432
644.73	7.180
645.05	7.550
645.38	10.053
645.71	5.142
646.04	8.438
646.36	5.496
646.69	7.914
647.02	7.940
647.35	9.888
647.67	8.410
648.00	6.157
648.33	7.509
648.66	5.593
648.98	3.685
649.31	5.455
649.64	5.965
649.96	5.835
650.29	9.199
650.62	7.692
650.94	5.185
651.27	6.704
651.60	7.928
651.92	8.392
652.25	6.039
652.58	6.500
652.90	8.405
653.23	6.050
653.56	6.091
653.88	7.045
654.21	4.378
654.54	6.961
654.86	7.470
655.19	6.433
655.52	6.889
655.84	5.574
656.17	6.216
656.49	8.339
656.82	8.688
657.15	6.603
657.47	4.940
657.80	3.690
658.13	3.654
658.45	5.510
658.78	5.852
659.10	6.033
659.43	5.895
659.75	5.673
660.08	6.207
660.41	6.537
660.73	5.939
661.06	7.972
661.38	6.067
661.71	4.723
662.03	9.013
662.36	6.154
662.68	4.646
663.01	6.987
663.33	5.104
663.66	4.186
663.98	4.419
664.31	8.529
664.63	5.760
664.96	4.348
665.28	5.740
665.61	8.009
665.93	8.696
666.26	6.291
666.58	6.711
666.91	6.353
667.23	6.604
667.56	9.479
667.88	4.556
668.21	4.535
668.53	8.747
668.86	6.604
669.18	5.189
669.50	3.632
669.83	5.116
670.15	6.993
670.48	3.828
670.80	8.986
671.13	4.027
671.45	4.795
671.77	11.159
672.10	6.337
672.42	6.554
672.75	7.460
673.07	9.660
673.39	7.890
673.72	3.945
674.04	5.000
674.37	6.992
674.69	5.353
675.01	7.556
675.34	5.631
675.66	5.324
675.98	6.652
676.31	7.110
676.63	6.413
676.95	6.818
677.28	7.765
677.60	10.602
677.92	6.422
678.25	5.689
678.57	6.277
678.89	7.353
679.22	5.369
679.54	7.229
679.86	3.976
680.18	5.825
680.51	6.061
680.83	4.374
681.15	7.000
681.48	7.787
681.80	6.198
682.12	8.065
682.44	5.021
682.77	6.402
683.09	8.696
683.41	6.818
683.73	5.530
684.06	7.522
684.38	2.796
684.70	5.882
685.02	4.979
685.34	3.953
685.67	4.690
685.99	6.148
686.31	6.018
686.63	5.751
686.96	6.084
687.28	4.040
687.60	6.084
687.92	6.465
688.24	5.242
688.56	6.114
688.89	5.804
689.21	7.333
689.53	6.032
689.85	6.279
690.17	7.813
690.49	5.674
690.82	7.282
691.14	5.238
691.46	5.374
691.78	6.081
692.10	4.946
692.42	6.277
692.74	7.479
693.06	3.604
693.39	5.430
693.71	4.299
694.03	4.850
694.35	6.308
694.67	8.333
694.99	2.611
695.31	6.266
695.63	6.500
695.95	3.535
696.27	4.922
696.59	8.889
696.91	3.922
697.23	3.856
697.56	5.446
697.88	7.312
698.20	5.923
698.52	4.471
698.84	5.024
699.16	6.250
699.48	5.764
699.80	7.692
700.12	5.391
700.44	7.283
700.76	5.814
701.08	1.818
701.40	7.229
701.72	9.877
702.04	5.281
702.36	7.358
702.68	6.607
703.00	9.394
703.32	5.572
703.64	6.497
703.96	5.217
704.28	4.294
704.60	4.444
704.91	2.839
705.23	4.319
705.55	6.007
705.87	4.332
706.19	4.815
706.51	3.780
706.83	9.325
707.15	2.492
707.47	4.762
707.79	2.865
708.11	7.000
708.43	7.500
708.74	7.494
709.06	5.634
709.38	4.893
709.70	7.988
710.02	6.369
710.34	9.288
710.66	0.962
710.98	2.318
711.29	9.180
711.61	5.763
711.93	8.795
712.25	6.873
712.57	4.396
712.89	5.224
713.20	5.536
713.52	10.453
713.84	6.485
714.16	4.124
714.48	0.645
714.80	6.410
715.11	4.559
715.43	3.448
715.75	3.000
716.07	3.987
716.39	4.362
716.70	1.845
717.02	4.198
717.34	7.287
717.66	1.770
717.97	4.348
718.29	5.439
718.61	4.724
718.93	8.140
719.24	7.985
719.56	3.614
719.88	5.842
720.20	7.197
720.51	3.448
720.83	8.880
721.15	7.563
721.46	2.823
721.78	0.791
722.10	6.691
722.42	-1.245
722.73	2.857
723.05	9.388
723.37	7.627
723.68	6.306
724.00	6.410
724.32	-0.889
724.63	6.818
724.95	8.297
725.27	2.304
725.58	5.508
725.90	1.587
726.22	6.950
726.53	9.831
726.85	8.240
727.16	6.038
727.48	1.619
727.80	3.239
728.11	7.203
728.43	2.745
728.74	2.419
729.06	0.800
729.38	11.278
729.69	1.992
730.01	-1.154
730.32	4.104
730.64	5.300
730.96	4.528
731.27	6.000
731.59	2.034
731.90	3.822
732.22	6.625
732.53	6.977
732.85	6.738
733.16	6.734
733.48	1.799
733.80	3.986
734.11	4.407
734.43	4.811
734.74	2.727
735.06	1.954
735.37	6.647
735.69	5.387
736.00	4.181
736.32	6.040
736.63	3.521
736.95	2.730
737.26	4.982
737.58	2.013
737.89	5.861
738.21	4.135
738.52	7.819
738.83	3.493
739.15	3.930
739.46	5.512
739.78	1.832
740.09	5.882
740.41	1.812
740.72	-1.181
741.04	6.073
741.35	2.128
741.66	5.687
741.98	2.551
742.29	7.921
742.61	3.141
742.92	-4.739
743.23	-1.389
743.55	7.240
743.86	5.742
744.18	2.871
744.49	4.255
744.80	3.261
745.12	9.091
745.43	4.390
745.74	5.208
746.06	3.415
746.37	3.141
746.68	5.213
747.00	-1.596
747.31	5.970
747.62	1.456
747.94	8.134
748.25	0.000
748.56	-1.639
748.88	3.141
749.19	4.787
749.50	2.956
749.82	-1.887
750.13	1.376
750.44	9.398
750.75	4.851
751.07	9.124
751.38	1.916
751.69	0.784
752.01	3.488
752.32	2.789
752.63	5.929
752.94	-0.862
753.26	13.808
753.57	5.430
753.88	4.867
754.19	5.417
754.51	4.132
754.82	5.668
755.13	7.500
755.44	3.629
755.75	2.734
756.07	4.280
756.38	3.396
756.69	-1.149
757.00	4.333
757.31	4.248
757.63	2.744
757.94	5.833
758.25	4.110
758.56	2.660
758.87	3.116
759.18	7.165
759.50	2.909
759.81	5.686
760.12	2.581
760.43	4.848
760.74	3.704
761.05	2.769
761.36	2.557
761.67	8.182
761.99	4.082
762.30	4.000
762.61	5.534
762.92	-0.452
763.23	0.000
763.54	2.336
763.85	6.780
764.16	-0.830
764.47	-2.016
764.78	4.029
765.10	7.071
765.41	4.732
765.72	4.444
766.03	-0.752
766.34	4.745
766.65	5.578
766.96	4.545
767.27	6.383
767.58	1.724
767.89	-2.128
768.20	-2.841
768.51	-0.549
768.82	5.419
769.13	0.461
769.44	1.717
769.75	2.740
770.06	5.603
770.37	0.962
770.68	-2.538
770.99	2.715
771.30	6.373
771.61	4.072
771.92	8.190
772.23	6.897
772.54	5.914
772.85	-4.321
773.16	8.427
773.47	11.765
773.78	0.000
774.09	7.186
774.39	-3.333
774.70	9.554
775.01	2.759
775.32	2.857
775.63	-1.653
775.94	-0.763
776.25	3.937
776.56	0.000
776.87	2.885
777.18	0.855
777.48	-3.448
777.79	-7.826
778.10	-9.524
778.41	-2.703
778.72	3.968
779.03	0.000
779.34	0.709
779.65	10.959
779.95	0.000
780.26	6.207
780.57	-4.065
780.88	1.575
781.19	1.724
781.50	-2.326
781.80	5.917
782.11	-10.692
782.42	6.923
782.73	0.719
783.04	-2.963
783.34	-0.694
783.65	-11.966
783.96	-1.639
784.27	8.276
784.57	-0.813
784.88	3.906
785.19	12.000
785.50	7.000
785.81	3.448
786.11	-5.172
786.42	-5.825
786.73	5.455
787.04	5.102
787.34	5.357
787.65	0.000
787.96	7.965
788.26	7.273
788.57	0.000
788.88	12.500
789.19	5.556
789.49	-8.696
789.80	-3.061
790.11	-1.010
790.41	-3.636
790.72	8.696
791.03	-5.682
791.33	5.000
791.64	2.500
791.95	-2.326
792.25	11.702
792.56	5.618
792.87	-10.959
793.17	-10.145
793.48	-9.333
793.79	-10.000
794.09	2.500
794.40	-2.830
794.70	-9.709
795.01	-1.626
795.32	2.564
795.62	1.905
795.93	9.804
796.23	12.264
796.54	4.167
796.85	0.000
797.15	0.000
797.46	8.333
797.76	28.788
798.07	3.488
798.37	-7.895
798.68	-6.061
798.99	-1.235
799.29	8.571
799.60	-4.348
799.90	-13.333
800.21	-1.639
800.51	-10.769
800.82	-10.169
801.12	8.696
801.43	3.279
801.73	-1.587
802.04	-12.000
802.34	1.493
802.65	9.615
802.95	-12.500
803.26	-9.615
803.56	0.000
803.87	-23.913
804.17	16.000
804.48	6.349
804.78	5.556
805.09	-2.174
805.39	-26.667
805.70	3.704
806.00	1.754
806.30	1.408
806.61	7.143
806.91	-16.667
807.22	6.579
807.52	4.000
807.83	-12.727
808.13	0.000
808.43	1.471
808.74	-20.896
809.04	-11.864
809.35	-26.923
809.65	4.687
809.95	-40.541
810.26	-31.818
810.56	8.219
810.86	-26.190
811.17	4.000
811.47	-4.082
811.77	-39.474
812.08	-2.273
812.38	-1.887
812.69	-20.000
812.99	-27.273
813.29	-5.263
813.59	-34.286
813.90	-11.364
814.20	-41.026
814.50	-5.769
814.81	0.000
815.11	-29.787
815.41	15.254
815.72	2.381
816.02	11.765
816.32	-6.250
816.62	17.073
816.93	-10.811
817.23	-20.000
817.53	4.167
817.84	-21.739
818.14	13.462
818.44	-23.684
818.74	6.522
819.04	-15.000
819.35	-13.514
819.65	-8.824
819.95	-2.778
820.25	-14.286
820.56	5.000
820.86	-44.828
821.16	35.000
821.46	-6.383
821.76	10.000
822.07	11.628
822.37	-45.946
822.67	-21.875
822.97	16.667
823.27	-46.429
823.57	-24.000
823.88	-33.333
824.18	-25.000
824.48	-8.824
824.78	-12.903
825.08	-26.087
825.38	6.061
825.69	-37.500
825.99	2.632
826.29	-5.556
826.59	-20.000
826.89	-38.095
827.19	8.696
827.49	-27.500
827.79	20.000
828.09	-10.714
828.39	-18.182
828.70	5.405
829.00	-32.143
829.30	-33.333
829.60	-10.000
829.90	-6.250
830.20	-7.895
830.50	-33.333
830.80	-26.087
831.10	13.636
831.40	0.000
831.70	-9.677
832.00	-14.286
832.30	-4.762
832.60	-41.667
832.90	10.345
833.20	-70.000
833.50	-9.091
833.80	-33.333
834.10	-3.846
834.40	28.125
834.70	-44.444
835.00	5.263
835.30	26.923
835.60	60.000
835.90	19.355
836.20	-45.455
836.50	17.857
836.80	-46.154
837.10	-39.286
837.40	-166.667
837.70	-13.636
838.00	-36.364
838.30	-8.696
838.60	-30.769
838.90	13.636
839.19	-17.857
839.49	16.667
839.79	-23.077
840.09	-66.667
840.39	21.429
840.69	-14.286
840.99	0.000
841.29	-73.684
841.59	-150.000
841.88	-18.182
842.18	-50.000
842.48	43.750
842.78	-20.000
843.08	-18.519
843.38	-180.000
843.68	-30.435
843.97	33.333
844.27	-93.333
844.57	-25.000
844.87	-5.556
845.17	-71.429
845.47	33.333
845.76	-38.095
846.06	17.647
846.36	30.000
846.66	-28.571
846.96	46.667
847.25	-187.500
847.55	-42.857
847.85	-87.500
848.15	-31.818
848.44	-466.667
848.74	25.000
849.04	74.074
849.34	36.364
849.63	-33.333
849.93	-260.000
850.23	-16.667
850.53	20.000
850.82	30.769
851.12	100.000
851.42	-13.333
851.71	-15.385
852.01	28.571
852.31	-150.000
852.61	-63.636
852.90	-30.000
853.20	-5.263
853.50	-41.667
853.79	-8.696
854.09	33.333
854.39	-36.842
854.68	-25.000
854.98	-22.581
855.28	23.077
855.57	-50.000
855.87	-27.778
856.17	0.000
856.46	-71.429
856.76	-26.667
857.05	-22.222
857.35	-8.000
857.65	-27.778
857.94	7.692
858.24	20.690
858.53	-33.333
858.83	0.000
859.13	18.182
859.42	-47.826
859.72	175.000
860.01	-500.000
860.31	16.000
860.60	4.762
860.90	-200.000
861.20	-46.667
861.49	-500.000
861.79	-80.000
862.08	15.000
862.38	26.667
862.67	-160.000
862.97	-83.333
863.26	-91.667
863.56	22.222
863.85	-366.667
864.15	16.667
864.44	-30.000
864.74	28.571
865.03	250.000
865.33	-220.000
865.62	-50.000
865.92	-75.000
866.21	-166.667
866.51	50.000
866.80	-145.455
867.10	-600.000
867.39	66.667
867.69	0.000
867.98	-23.077
868.27	-300.000
868.57	0.000
868.86	16.667
869.16	-76.923
869.45	-13.333
869.75	-200.000
870.04	0.000
870.33	-185.714
870.63	14.286
870.92	566.667
871.22	-360.000
871.51	-700.000
871.80	66.667
872.10	433.333
>>>>>End Processed Spectral Data<<<<<
