SpectraSuite Data File
++++++++++++++++++++++++++++++++++++
Date: Wed May 13 09:36:56 PDT 2015
User: schluterlab
Dark Spectrum Present: Yes
Reference Spectrum Present: No
Number of Sampled Component Spectra: 1
Spectrometers: USB2E3373
Integration Time (usec): 2200000 (USB2E3373)
Spectra Averaged: 3 (USB2E3373)
Boxcar Smoothing: 0 (USB2E3373)
Correct for Electrical Dark: No (USB2E3373)
Strobe/Lamp Enabled: No (USB2E3373)
Correct for Detector Non-linearity: No (USB2E3373)
Correct for Stray Light: No (USB2E3373)
Number of Pixels in Processed Spectrum: 2048
>>>>>Begin Processed Spectral Data<<<<<
178.53	0.0000E00
178.91	0.0000E00
179.29	0.0000E00
179.67	0.0000E00
180.04	0.0000E00
180.42	0.0000E00
180.80	0.0000E00
181.18	0.0000E00
181.56	0.0000E00
181.94	0.0000E00
182.31	0.0000E00
182.69	0.0000E00
183.07	0.0000E00
183.45	0.0000E00
183.83	0.0000E00
184.20	0.0000E00
184.58	0.0000E00
184.96	0.0000E00
185.34	0.0000E00
185.72	0.0000E00
186.09	0.0000E00
186.47	0.0000E00
186.85	0.0000E00
187.23	0.0000E00
187.61	0.0000E00
187.98	0.0000E00
188.36	0.0000E00
188.74	0.0000E00
189.12	0.0000E00
189.49	0.0000E00
189.87	0.0000E00
190.25	0.0000E00
190.63	0.0000E00
191.00	0.0000E00
191.38	0.0000E00
191.76	0.0000E00
192.14	0.0000E00
192.51	0.0000E00
192.89	0.0000E00
193.27	0.0000E00
193.65	0.0000E00
194.02	0.0000E00
194.40	0.0000E00
194.78	0.0000E00
195.15	0.0000E00
195.53	-0.0000E00
195.91	0.0000E00
196.29	0.0000E00
196.66	0.0000E00
197.04	0.0000E00
197.42	0.0000E00
197.79	0.0000E00
198.17	0.0000E00
198.55	0.0000E00
198.92	0.0000E00
199.30	0.0000E00
199.68	0.0000E00
200.05	0.0000E00
200.43	0.0000E00
200.81	0.0000E00
201.18	0.0000E00
201.56	0.0000E00
201.94	0.0000E00
202.31	-0.0000E00
202.69	0.0000E00
203.07	0.0000E00
203.44	0.0000E00
203.82	0.0000E00
204.19	0.0000E00
204.57	0.0000E00
204.95	0.0000E00
205.32	0.0000E00
205.70	0.0000E00
206.08	0.0000E00
206.45	0.0000E00
206.83	0.0000E00
207.20	0.0000E00
207.58	0.0000E00
207.96	0.0000E00
208.33	0.0000E00
208.71	0.0000E00
209.08	0.0000E00
209.46	0.0000E00
209.84	0.0000E00
210.21	0.0000E00
210.59	0.0000E00
210.96	0.0000E00
211.34	0.0000E00
211.71	0.0000E00
212.09	0.0000E00
212.46	0.0000E00
212.84	0.0000E00
213.22	0.0000E00
213.59	0.0000E00
213.97	0.0000E00
214.34	0.0000E00
214.72	0.0000E00
215.09	0.0000E00
215.47	0.0000E00
215.84	0.0000E00
216.22	0.0000E00
216.59	0.0000E00
216.97	0.0000E00
217.34	0.0000E00
217.72	0.0000E00
218.09	0.0000E00
218.47	0.0000E00
218.84	0.0000E00
219.22	0.0000E00
219.59	0.0000E00
219.97	0.0000E00
220.34	0.0000E00
220.72	0.0000E00
221.09	0.0000E00
221.47	0.0000E00
221.84	0.0000E00
222.22	0.0000E00
222.59	0.0000E00
222.97	0.0000E00
223.34	0.0000E00
223.72	0.0000E00
224.09	0.0000E00
224.46	0.0000E00
224.84	0.0000E00
225.21	0.0000E00
225.59	0.0000E00
225.96	0.0000E00
226.34	0.0000E00
226.71	0.0000E00
227.08	0.0000E00
227.46	0.0000E00
227.83	0.0000E00
228.21	0.0000E00
228.58	0.0000E00
228.95	0.0000E00
229.33	0.0000E00
229.70	0.0000E00
230.08	0.0000E00
230.45	0.0000E00
230.82	0.0000E00
231.20	0.0000E00
231.57	0.0000E00
231.95	0.0000E00
232.32	0.0000E00
232.69	0.0000E00
233.07	0.0000E00
233.44	0.0000E00
233.81	0.0000E00
234.19	0.0000E00
234.56	0.0000E00
234.93	0.0000E00
235.31	0.0000E00
235.68	0.0000E00
236.05	0.0000E00
236.43	0.0000E00
236.80	0.0000E00
237.17	0.0000E00
237.55	0.0000E00
237.92	0.0000E00
238.29	0.0000E00
238.67	0.0000E00
239.04	0.0000E00
239.41	0.0000E00
239.79	0.0000E00
240.16	0.0000E00
240.53	0.0000E00
240.91	0.0000E00
241.28	0.0000E00
241.65	0.0000E00
242.02	0.0000E00
242.40	0.0000E00
242.77	0.0000E00
243.14	0.0000E00
243.51	0.0000E00
243.89	0.0000E00
244.26	0.0000E00
244.63	0.0000E00
245.00	0.0000E00
245.38	0.0000E00
245.75	0.0000E00
246.12	0.0000E00
246.49	0.0000E00
246.87	0.0000E00
247.24	0.0000E00
247.61	0.0000E00
247.98	0.0000E00
248.36	0.0000E00
248.73	0.0000E00
249.10	0.0000E00
249.47	0.0000E00
249.84	0.0000E00
250.22	0.0000E00
250.59	0.0000E00
250.96	0.0000E00
251.33	0.0000E00
251.70	0.0000E00
252.08	0.0000E00
252.45	0.0000E00
252.82	0.0000E00
253.19	0.0000E00
253.56	0.0000E00
253.94	0.0000E00
254.31	0.0000E00
254.68	0.0000E00
255.05	0.0000E00
255.42	0.0000E00
255.79	0.0000E00
256.16	0.0000E00
256.54	0.0000E00
256.91	0.0000E00
257.28	0.0000E00
257.65	0.0000E00
258.02	0.0000E00
258.39	0.0000E00
258.76	0.0000E00
259.14	0.0000E00
259.51	0.0000E00
259.88	0.0000E00
260.25	0.0000E00
260.62	0.0000E00
260.99	0.0000E00
261.36	0.0000E00
261.73	0.0000E00
262.10	0.0000E00
262.47	0.0000E00
262.85	0.0000E00
263.22	0.0000E00
263.59	0.0000E00
263.96	0.0000E00
264.33	0.0000E00
264.70	0.0000E00
265.07	0.0000E00
265.44	0.0000E00
265.81	0.0000E00
266.18	0.0000E00
266.55	0.0000E00
266.92	0.0000E00
267.29	0.0000E00
267.66	0.0000E00
268.03	0.0000E00
268.40	0.0000E00
268.77	0.0000E00
269.14	0.0000E00
269.51	0.0000E00
269.88	0.0000E00
270.25	0.0000E00
270.62	0.0000E00
270.99	0.0000E00
271.36	0.0000E00
271.73	0.0000E00
272.10	0.0000E00
272.47	0.0000E00
272.84	0.0000E00
273.21	0.0000E00
273.58	0.0000E00
273.95	0.0000E00
274.32	0.0000E00
274.69	0.0000E00
275.06	0.0000E00
275.43	0.0000E00
275.80	0.0000E00
276.17	0.0000E00
276.54	0.0000E00
276.91	0.0000E00
277.28	0.0000E00
277.65	0.0000E00
278.02	0.0000E00
278.39	0.0000E00
278.76	0.0000E00
279.13	0.0000E00
279.50	0.0000E00
279.87	0.0000E00
280.23	0.0000E00
280.60	0.0000E00
280.97	0.0000E00
281.34	0.0000E00
281.71	0.0000E00
282.08	0.0000E00
282.45	0.0000E00
282.82	0.0000E00
283.19	0.0000E00
283.56	0.0000E00
283.92	0.0000E00
284.29	0.0000E00
284.66	0.0000E00
285.03	0.0000E00
285.40	0.0000E00
285.77	0.0000E00
286.14	0.0000E00
286.51	0.0000E00
286.87	0.0000E00
287.24	0.0000E00
287.61	0.0000E00
287.98	0.0000E00
288.35	0.0000E00
288.72	0.0000E00
289.08	0.0000E00
289.45	0.0000E00
289.82	0.0000E00
290.19	0.0000E00
290.56	0.0000E00
290.93	0.0000E00
291.29	0.0000E00
291.66	0.0000E00
292.03	0.0000E00
292.40	0.0000E00
292.77	0.0000E00
293.13	0.0000E00
293.50	0.0000E00
293.87	0.0000E00
294.24	0.0000E00
294.60	0.0000E00
294.97	0.0000E00
295.34	0.0000E00
295.71	0.0000E00
296.08	0.0000E00
296.44	0.0000E00
296.81	0.0000E00
297.18	0.0000E00
297.55	0.0000E00
297.91	0.0000E00
298.28	0.0000E00
298.65	0.0000E00
299.02	0.0000E00
299.38	0.0000E00
299.75	0.0000E00
300.12	1.7894E-01
300.48	4.6237E-01
300.85	1.8449E-01
301.22	5.0428E-01
301.59	1.5484E-01
301.95	1.8208E-01
302.32	2.6292E-01
302.69	2.6598E-01
303.05	1.6312E-01
303.42	2.2217E-01
303.79	2.5524E-01
304.15	1.6272E-01
304.52	1.8437E-01
304.89	1.7545E-01
305.25	3.5412E-01
305.62	2.2509E-01
305.99	2.8102E-01
306.35	1.6204E-01
306.72	2.2457E-01
307.09	2.0638E-01
307.45	2.0313E-01
307.82	1.4553E-01
308.19	1.8527E-01
308.55	2.1382E-01
308.92	2.5279E-01
309.29	2.0807E-01
309.65	2.9252E-01
310.02	1.9164E-01
310.38	2.0338E-01
310.75	2.7310E-01
311.12	2.6798E-01
311.48	4.6435E-01
311.85	3.0435E-01
312.22	2.1711E-01
312.58	4.9628E-01
312.95	3.0485E-01
313.31	2.9603E-01
313.68	3.8723E-01
314.05	6.4953E-01
314.41	3.6217E-01
314.78	2.2037E-01
315.14	4.3257E-01
315.51	7.7038E-01
315.87	3.3577E-01
316.24	4.9902E-01
316.61	4.7398E-01
316.97	3.3081E-01
317.34	5.6732E-01
317.70	4.5051E-01
318.07	4.5514E-01
318.43	5.4403E-01
318.80	4.0803E-01
319.16	5.2652E-01
319.53	3.7383E-01
319.89	7.6983E-01
320.26	6.0289E-01
320.62	7.5306E-01
320.99	6.5691E-01
321.35	3.8436E-01
321.72	5.2291E-01
322.08	8.1489E-01
322.45	4.9810E-01
322.81	5.4192E-01
323.18	1.6843E00
323.54	9.0730E-01
323.91	6.9858E-01
324.27	1.4558E00
324.64	1.1546E00
325.00	8.8308E-01
325.37	1.5056E00
325.73	5.8999E-01
326.10	2.2172E00
326.46	1.0622E00
326.83	9.2536E-01
327.19	1.9850E00
327.56	7.8036E-01
327.92	1.1328E00
328.29	8.8880E-01
328.65	1.1371E00
329.01	1.4125E00
329.38	9.5260E-01
329.74	8.8045E-01
330.11	1.3345E00
330.47	8.8984E-01
330.84	1.2520E00
331.20	1.2491E00
331.56	1.1553E00
331.93	1.3216E00
332.29	1.2578E00
332.66	8.8414E-01
333.02	1.0592E00
333.38	1.6132E00
333.75	7.5967E-01
334.11	1.2728E00
334.48	1.2241E00
334.84	1.1460E00
335.20	1.4461E00
335.57	2.7008E00
335.93	1.7917E00
336.29	1.3483E00
336.66	1.2770E00
337.02	9.0542E-01
337.38	1.1042E00
337.75	1.1292E00
338.11	9.8398E-01
338.47	1.4012E00
338.84	1.1656E00
339.20	9.7212E-01
339.56	2.8513E00
339.93	8.8711E-01
340.29	1.0515E00
340.65	1.1460E00
341.02	1.9211E00
341.38	1.3085E00
341.74	1.4083E00
342.11	1.3729E00
342.47	1.3827E00
342.83	7.6028E-01
343.20	1.7592E00
343.56	1.0649E00
343.92	1.4819E00
344.28	9.8608E-01
344.65	1.5644E00
345.01	9.2188E-01
345.37	1.4897E00
345.73	1.3272E00
346.10	1.1388E00
346.46	1.3505E00
346.82	1.0313E00
347.19	2.3417E00
347.55	9.6364E-01
347.91	9.7205E-01
348.27	1.0915E00
348.63	9.4918E-01
349.00	9.3836E-01
349.36	1.8902E00
349.72	1.1783E00
350.08	1.7175E00
350.45	9.8194E-01
350.81	9.1575E-01
351.17	1.2050E00
351.53	1.3047E00
351.89	1.0637E00
352.26	1.2218E00
352.62	1.0108E00
352.98	1.1749E00
353.34	1.0369E00
353.70	1.3701E00
354.07	1.0058E00
354.43	9.5384E-01
354.79	1.1198E00
355.15	8.9600E-01
355.51	8.5622E-01
355.87	9.6913E-01
356.24	1.0091E00
356.60	9.7686E-01
356.96	1.0569E00
357.32	9.5112E-01
357.68	8.9349E-01
358.04	8.0640E-01
358.40	8.9078E-01
358.77	8.2849E-01
359.13	9.8096E-01
359.49	1.0415E00
359.85	1.0126E00
360.21	7.6236E-01
360.57	9.3083E-01
360.93	9.2504E-01
361.29	9.7989E-01
361.66	8.1449E-01
362.02	7.5053E-01
362.38	9.7799E-01
362.74	8.5099E-01
363.10	8.9868E-01
363.46	1.0445E00
363.82	8.9397E-01
364.18	1.0700E00
364.54	1.0149E00
364.90	9.6626E-01
365.26	9.5004E-01
365.62	1.0852E00
365.98	9.4627E-01
366.35	7.5741E-01
366.71	9.1798E-01
367.07	1.1756E00
367.43	7.4349E-01
367.79	1.0621E00
368.15	9.7450E-01
368.51	1.1549E00
368.87	1.0101E00
369.23	1.0795E00
369.59	8.4890E-01
369.95	9.1974E-01
370.31	8.7695E-01
370.67	1.0376E00
371.03	8.7527E-01
371.39	8.5657E-01
371.75	8.6459E-01
372.11	8.9199E-01
372.47	8.2053E-01
372.83	8.2811E-01
373.19	6.9142E-01
373.55	9.0619E-01
373.91	9.2424E-01
374.27	9.9712E-01
374.63	9.7283E-01
374.99	8.8363E-01
375.35	8.4915E-01
375.71	8.6577E-01
376.07	8.7309E-01
376.42	8.6401E-01
376.78	7.8337E-01
377.14	8.8811E-01
377.50	9.7033E-01
377.86	8.2576E-01
378.22	7.7923E-01
378.58	7.7983E-01
378.94	7.5657E-01
379.30	7.9389E-01
379.66	7.8188E-01
380.02	7.6544E-01
380.38	7.4394E-01
380.74	7.8007E-01
381.09	8.1849E-01
381.45	7.5475E-01
381.81	7.2939E-01
382.17	7.6893E-01
382.53	7.9922E-01
382.89	7.1656E-01
383.25	7.5335E-01
383.61	7.4431E-01
383.97	7.2216E-01
384.32	7.2047E-01
384.68	6.8763E-01
385.04	7.6402E-01
385.40	7.8686E-01
385.76	7.8403E-01
386.12	7.3758E-01
386.48	7.4874E-01
386.83	6.9911E-01
387.19	6.9741E-01
387.55	7.7977E-01
387.91	7.5366E-01
388.27	7.0564E-01
388.62	7.9266E-01
388.98	7.1848E-01
389.34	7.9669E-01
389.70	7.2353E-01
390.06	7.4662E-01
390.42	7.5352E-01
390.77	7.3504E-01
391.13	7.4977E-01
391.49	7.3615E-01
391.85	7.7603E-01
392.20	6.8544E-01
392.56	6.9522E-01
392.92	7.0464E-01
393.28	7.0772E-01
393.64	7.3875E-01
393.99	7.5289E-01
394.35	7.4098E-01
394.71	7.3287E-01
395.07	7.1765E-01
395.42	7.1971E-01
395.78	7.3347E-01
396.14	6.6241E-01
396.50	6.6416E-01
396.85	7.2998E-01
397.21	7.0359E-01
397.57	7.2313E-01
397.92	6.7646E-01
398.28	6.5430E-01
398.64	7.7775E-01
399.00	6.2694E-01
399.35	6.5271E-01
399.71	6.9964E-01
400.07	6.8313E-01
400.42	6.6722E-01
400.78	6.8380E-01
401.14	6.8719E-01
401.49	6.3629E-01
401.85	6.3254E-01
402.21	6.4217E-01
402.57	6.3814E-01
402.92	6.7297E-01
403.28	6.4041E-01
403.63	6.3754E-01
403.99	6.5153E-01
404.35	6.3279E-01
404.70	6.2146E-01
405.06	6.3105E-01
405.42	6.4506E-01
405.77	6.0001E-01
406.13	5.9967E-01
406.49	5.9536E-01
406.84	6.0230E-01
407.20	5.8722E-01
407.55	6.3426E-01
407.91	6.4628E-01
408.27	6.0514E-01
408.62	6.0855E-01
408.98	6.1589E-01
409.34	6.2609E-01
409.69	5.9961E-01
410.05	6.3165E-01
410.40	6.0324E-01
410.76	5.5806E-01
411.11	5.6327E-01
411.47	6.1070E-01
411.83	5.7873E-01
412.18	5.8942E-01
412.54	5.7778E-01
412.89	5.7436E-01
413.25	5.9584E-01
413.60	6.2178E-01
413.96	5.8305E-01
414.31	5.8687E-01
414.67	6.1942E-01
415.03	6.0751E-01
415.38	6.2193E-01
415.74	6.1480E-01
416.09	6.1038E-01
416.45	6.1829E-01
416.80	6.0671E-01
417.16	6.0208E-01
417.51	5.9844E-01
417.87	5.7578E-01
418.22	5.6955E-01
418.58	5.8210E-01
418.93	5.5718E-01
419.29	5.9711E-01
419.64	5.7941E-01
420.00	5.4797E-01
420.35	5.3792E-01
420.71	5.6451E-01
421.06	5.6690E-01
421.42	5.8096E-01
421.77	5.7262E-01
422.12	5.7159E-01
422.48	5.4109E-01
422.83	5.7852E-01
423.19	5.4663E-01
423.54	5.4719E-01
423.90	5.5400E-01
424.25	5.2277E-01
424.61	5.7616E-01
424.96	5.3955E-01
425.31	5.3616E-01
425.67	5.1422E-01
426.02	5.3670E-01
426.38	5.3632E-01
426.73	5.0791E-01
427.09	5.3190E-01
427.44	5.0975E-01
427.79	5.1557E-01
428.15	5.3156E-01
428.50	5.2807E-01
428.85	5.4038E-01
429.21	4.9909E-01
429.56	4.8826E-01
429.92	4.9820E-01
430.27	5.1460E-01
430.62	5.1364E-01
430.98	5.2046E-01
431.33	5.0872E-01
431.68	4.9124E-01
432.04	4.8762E-01
432.39	4.9470E-01
432.74	5.1215E-01
433.10	4.8063E-01
433.45	5.0920E-01
433.80	5.0631E-01
434.16	5.1731E-01
434.51	4.9237E-01
434.86	5.1256E-01
435.22	4.9426E-01
435.57	5.2806E-01
435.92	5.1752E-01
436.28	5.1508E-01
436.63	4.7803E-01
436.98	5.1141E-01
437.34	5.0708E-01
437.69	4.8265E-01
438.04	4.6927E-01
438.39	5.0250E-01
438.75	5.1437E-01
439.10	4.6424E-01
439.45	5.0451E-01
439.81	4.9862E-01
440.16	4.6906E-01
440.51	4.8978E-01
440.86	4.8834E-01
441.22	4.7722E-01
441.57	4.8193E-01
441.92	4.6805E-01
442.27	4.9107E-01
442.63	4.8075E-01
442.98	5.1348E-01
443.33	5.0228E-01
443.68	4.6735E-01
444.03	4.4122E-01
444.39	4.4328E-01
444.74	4.8105E-01
445.09	4.8779E-01
445.44	4.8889E-01
445.79	4.3203E-01
446.15	4.6393E-01
446.50	4.7956E-01
446.85	4.5106E-01
447.20	4.3890E-01
447.55	4.7413E-01
447.91	4.5633E-01
448.26	4.6865E-01
448.61	4.6356E-01
448.96	4.5439E-01
449.31	4.6130E-01
449.66	4.6556E-01
450.02	4.5820E-01
450.37	4.5867E-01
450.72	4.5284E-01
451.07	4.8818E-01
451.42	4.8519E-01
451.77	4.5829E-01
452.12	4.5807E-01
452.47	4.7895E-01
452.83	4.4039E-01
453.18	4.6587E-01
453.53	4.6076E-01
453.88	4.3373E-01
454.23	4.2860E-01
454.58	4.2866E-01
454.93	4.5979E-01
455.28	4.5696E-01
455.63	4.4336E-01
455.98	4.3350E-01
456.34	4.5740E-01
456.69	4.4297E-01
457.04	4.4637E-01
457.39	4.1893E-01
457.74	4.2740E-01
458.09	4.1637E-01
458.44	4.1569E-01
458.79	4.0662E-01
459.14	4.2057E-01
459.49	4.3746E-01
459.84	4.1312E-01
460.19	4.3915E-01
460.54	4.3653E-01
460.89	4.0225E-01
461.24	4.4064E-01
461.59	4.2159E-01
461.94	4.2688E-01
462.29	3.9914E-01
462.64	4.2248E-01
462.99	4.2667E-01
463.34	4.5127E-01
463.69	4.2287E-01
464.04	3.9451E-01
464.39	4.0990E-01
464.74	4.1544E-01
465.09	4.2689E-01
465.44	4.0206E-01
465.79	4.1447E-01
466.14	4.1631E-01
466.49	4.0937E-01
466.84	4.0553E-01
467.19	4.1982E-01
467.54	4.2118E-01
467.89	4.0088E-01
468.24	3.7994E-01
468.59	3.9260E-01
468.94	3.8460E-01
469.29	3.8655E-01
469.64	3.9961E-01
469.99	3.8465E-01
470.34	3.7290E-01
470.68	3.9675E-01
471.03	3.8282E-01
471.38	3.8421E-01
471.73	3.6595E-01
472.08	3.6118E-01
472.43	3.4842E-01
472.78	3.6797E-01
473.13	3.6370E-01
473.48	3.5795E-01
473.83	3.5115E-01
474.17	3.5634E-01
474.52	3.5255E-01
474.87	3.3828E-01
475.22	3.4540E-01
475.57	3.2864E-01
475.92	3.2020E-01
476.27	3.2989E-01
476.61	3.2108E-01
476.96	3.1303E-01
477.31	3.0306E-01
477.66	3.0901E-01
478.01	3.0701E-01
478.36	3.0546E-01
478.70	3.0096E-01
479.05	3.0583E-01
479.40	2.9168E-01
479.75	2.8869E-01
480.10	2.9023E-01
480.45	2.8352E-01
480.79	2.8229E-01
481.14	2.8614E-01
481.49	2.7932E-01
481.84	2.7439E-01
482.19	2.7250E-01
482.53	2.7180E-01
482.88	2.6950E-01
483.23	2.6480E-01
483.58	2.5934E-01
483.92	2.6581E-01
484.27	2.5764E-01
484.62	2.5614E-01
484.97	2.5054E-01
485.31	2.4928E-01
485.66	2.5470E-01
486.01	2.5448E-01
486.36	2.4226E-01
486.70	2.4902E-01
487.05	2.4751E-01
487.40	2.4770E-01
487.75	2.4029E-01
488.09	2.4093E-01
488.44	2.4298E-01
488.79	2.3904E-01
489.13	2.3641E-01
489.48	2.3945E-01
489.83	2.3982E-01
490.17	2.3367E-01
490.52	2.3358E-01
490.87	2.3453E-01
491.22	2.3776E-01
491.56	2.3440E-01
491.91	2.3750E-01
492.26	2.3481E-01
492.60	2.3467E-01
492.95	2.3678E-01
493.30	2.3632E-01
493.64	2.3345E-01
493.99	2.3476E-01
494.34	2.3196E-01
494.68	2.2933E-01
495.03	2.3506E-01
495.37	2.3318E-01
495.72	2.3549E-01
496.07	2.3018E-01
496.41	2.3167E-01
496.76	2.3029E-01
497.11	2.3256E-01
497.45	2.3157E-01
497.80	2.3182E-01
498.14	2.3164E-01
498.49	2.3204E-01
498.84	2.3273E-01
499.18	2.3230E-01
499.53	2.3207E-01
499.87	2.3029E-01
500.22	2.3300E-01
500.56	2.3235E-01
500.91	2.3189E-01
501.26	2.3163E-01
501.60	2.3111E-01
501.95	2.2936E-01
502.29	2.3233E-01
502.64	2.2817E-01
502.98	2.3176E-01
503.33	2.2984E-01
503.67	2.3036E-01
504.02	2.2997E-01
504.36	2.2946E-01
504.71	2.3019E-01
505.06	2.2795E-01
505.40	2.2810E-01
505.75	2.2934E-01
506.09	2.2951E-01
506.44	2.2928E-01
506.78	2.2721E-01
507.13	2.2835E-01
507.47	2.2651E-01
507.82	2.2662E-01
508.16	2.2881E-01
508.51	2.2673E-01
508.85	2.2394E-01
509.19	2.2677E-01
509.54	2.2633E-01
509.88	2.2652E-01
510.23	2.2327E-01
510.57	2.2430E-01
510.92	2.2358E-01
511.26	2.2377E-01
511.61	2.2364E-01
511.95	2.2397E-01
512.30	2.2260E-01
512.64	2.2427E-01
512.98	2.2046E-01
513.33	2.2209E-01
513.67	2.2262E-01
514.02	2.2188E-01
514.36	2.1978E-01
514.70	2.2109E-01
515.05	2.1859E-01
515.39	2.2034E-01
515.74	2.1824E-01
516.08	2.1703E-01
516.42	2.1885E-01
516.77	2.1950E-01
517.11	2.1963E-01
517.46	2.2081E-01
517.80	2.1761E-01
518.14	2.1893E-01
518.49	2.1707E-01
518.83	2.1796E-01
519.17	2.1789E-01
519.52	2.1824E-01
519.86	2.1726E-01
520.20	2.1631E-01
520.55	2.1704E-01
520.89	2.1569E-01
521.23	2.1800E-01
521.58	2.1740E-01
521.92	2.1907E-01
522.26	2.2022E-01
522.61	2.1669E-01
522.95	2.1831E-01
523.29	2.1521E-01
523.64	2.1535E-01
523.98	2.1632E-01
524.32	2.1706E-01
524.66	2.1894E-01
525.01	2.1889E-01
525.35	2.1985E-01
525.69	2.2043E-01
526.04	2.1968E-01
526.38	2.1645E-01
526.72	2.2087E-01
527.06	2.1942E-01
527.41	2.2137E-01
527.75	2.2327E-01
528.09	2.2158E-01
528.43	2.2496E-01
528.78	2.2222E-01
529.12	2.2442E-01
529.46	2.2627E-01
529.80	2.2548E-01
530.15	2.2606E-01
530.49	2.2614E-01
530.83	2.2723E-01
531.17	2.2733E-01
531.51	2.2658E-01
531.86	2.2857E-01
532.20	2.2951E-01
532.54	2.2912E-01
532.88	2.3074E-01
533.22	2.3269E-01
533.57	2.3360E-01
533.91	2.3309E-01
534.25	2.3497E-01
534.59	2.3375E-01
534.93	2.3594E-01
535.27	2.3483E-01
535.62	2.3917E-01
535.96	2.3829E-01
536.30	2.3872E-01
536.64	2.3916E-01
536.98	2.4130E-01
537.32	2.4049E-01
537.66	2.4041E-01
538.01	2.4288E-01
538.35	2.4475E-01
538.69	2.4191E-01
539.03	2.4785E-01
539.37	2.4531E-01
539.71	2.4733E-01
540.05	2.4763E-01
540.39	2.4850E-01
540.73	2.4743E-01
541.07	2.4812E-01
541.42	2.4867E-01
541.76	2.4905E-01
542.10	2.5030E-01
542.44	2.5117E-01
542.78	2.5156E-01
543.12	2.5092E-01
543.46	2.5620E-01
543.80	2.5313E-01
544.14	2.5314E-01
544.48	2.5223E-01
544.82	2.5483E-01
545.16	2.5406E-01
545.50	2.5330E-01
545.84	2.5620E-01
546.18	2.5447E-01
546.52	2.5742E-01
546.86	2.5514E-01
547.20	2.5879E-01
547.54	2.6177E-01
547.88	2.5723E-01
548.22	2.5764E-01
548.56	2.5916E-01
548.90	2.5735E-01
549.24	2.5969E-01
549.58	2.6037E-01
549.92	2.5856E-01
550.26	2.6316E-01
550.60	2.5927E-01
550.94	2.5786E-01
551.28	2.6165E-01
551.62	2.5958E-01
551.96	2.6210E-01
552.30	2.6321E-01
552.64	2.6224E-01
552.98	2.6228E-01
553.32	2.6284E-01
553.66	2.6158E-01
554.00	2.6202E-01
554.34	2.6274E-01
554.68	2.6381E-01
555.02	2.6417E-01
555.36	2.6528E-01
555.69	2.6406E-01
556.03	2.6375E-01
556.37	2.6516E-01
556.71	2.6284E-01
557.05	2.6260E-01
557.39	2.6301E-01
557.73	2.6349E-01
558.07	2.6508E-01
558.41	2.6424E-01
558.75	2.6467E-01
559.08	2.6483E-01
559.42	2.6233E-01
559.76	2.6633E-01
560.10	2.6606E-01
560.44	2.6595E-01
560.78	2.6337E-01
561.12	2.6508E-01
561.45	2.6471E-01
561.79	2.6581E-01
562.13	2.6590E-01
562.47	2.6588E-01
562.81	2.6631E-01
563.15	2.6608E-01
563.48	2.6640E-01
563.82	2.6327E-01
564.16	2.6574E-01
564.50	2.6609E-01
564.84	2.6671E-01
565.17	2.6681E-01
565.51	2.6612E-01
565.85	2.6804E-01
566.19	2.6474E-01
566.52	2.6845E-01
566.86	2.6563E-01
567.20	2.6830E-01
567.54	2.6713E-01
567.88	2.6752E-01
568.21	2.6772E-01
568.55	2.6894E-01
568.89	2.6900E-01
569.23	2.6893E-01
569.56	2.6826E-01
569.90	2.6944E-01
570.24	2.7125E-01
570.57	2.7114E-01
570.91	2.7162E-01
571.25	2.6790E-01
571.59	2.7092E-01
571.92	2.7060E-01
572.26	2.7193E-01
572.60	2.7415E-01
572.93	2.7267E-01
573.27	2.7541E-01
573.61	2.7592E-01
573.95	2.7169E-01
574.28	2.7616E-01
574.62	2.7637E-01
574.96	2.7651E-01
575.29	2.7591E-01
575.63	2.8040E-01
575.97	2.7941E-01
576.30	2.8603E-01
576.64	2.8231E-01
576.98	2.8184E-01
577.31	2.8328E-01
577.65	2.8634E-01
577.98	2.8426E-01
578.32	2.8660E-01
578.66	2.8809E-01
578.99	2.8852E-01
579.33	2.8972E-01
579.67	2.8767E-01
580.00	2.9144E-01
580.34	2.9064E-01
580.67	2.9230E-01
581.01	2.9463E-01
581.35	2.9592E-01
581.68	2.9740E-01
582.02	2.9575E-01
582.35	2.9815E-01
582.69	2.9811E-01
583.02	3.0254E-01
583.36	2.9971E-01
583.70	2.9921E-01
584.03	3.0156E-01
584.37	2.9973E-01
584.70	3.0600E-01
585.04	3.0595E-01
585.37	3.0435E-01
585.71	3.0904E-01
586.04	3.0823E-01
586.38	3.0571E-01
586.72	3.0965E-01
587.05	3.1146E-01
587.39	3.1255E-01
587.72	3.1058E-01
588.06	3.1347E-01
588.39	3.1319E-01
588.73	3.1648E-01
589.06	3.1402E-01
589.40	3.1870E-01
589.73	3.2040E-01
590.07	3.2108E-01
590.40	3.2150E-01
590.73	3.2508E-01
591.07	3.2168E-01
591.40	3.2857E-01
591.74	3.2140E-01
592.07	3.2586E-01
592.41	3.2743E-01
592.74	3.2809E-01
593.08	3.2629E-01
593.41	3.2855E-01
593.75	3.2617E-01
594.08	3.3092E-01
594.41	3.3000E-01
594.75	3.3094E-01
595.08	3.3052E-01
595.42	3.2650E-01
595.75	3.3225E-01
596.09	3.3176E-01
596.42	3.3034E-01
596.75	3.3421E-01
597.09	3.3615E-01
597.42	3.3308E-01
597.75	3.3682E-01
598.09	3.3775E-01
598.42	3.3522E-01
598.76	3.3681E-01
599.09	3.4141E-01
599.42	3.4151E-01
599.76	3.3952E-01
600.09	3.3838E-01
600.42	3.4395E-01
600.76	3.3681E-01
601.09	3.4128E-01
601.42	3.4463E-01
601.76	3.4061E-01
602.09	3.4016E-01
602.42	3.4214E-01
602.76	3.4106E-01
603.09	3.3988E-01
603.42	3.4606E-01
603.76	3.4235E-01
604.09	3.4249E-01
604.42	3.4501E-01
604.76	3.4244E-01
605.09	3.4746E-01
605.42	3.4405E-01
605.75	3.4578E-01
606.09	3.4421E-01
606.42	3.4535E-01
606.75	3.4693E-01
607.09	3.4736E-01
607.42	3.4772E-01
607.75	3.4816E-01
608.08	3.4748E-01
608.42	3.5017E-01
608.75	3.4641E-01
609.08	3.5071E-01
609.41	3.5006E-01
609.75	3.4816E-01
610.08	3.5004E-01
610.41	3.5218E-01
610.74	3.5124E-01
611.07	3.5132E-01
611.41	3.5044E-01
611.74	3.5153E-01
612.07	3.5390E-01
612.40	3.4884E-01
612.73	3.5228E-01
613.07	3.5472E-01
613.40	3.5050E-01
613.73	3.4941E-01
614.06	3.5278E-01
614.39	3.5351E-01
614.72	3.5471E-01
615.06	3.5454E-01
615.39	3.5906E-01
615.72	3.5326E-01
616.05	3.5670E-01
616.38	3.5743E-01
616.71	3.5814E-01
617.05	3.5599E-01
617.38	3.5796E-01
617.71	3.5584E-01
618.04	3.5795E-01
618.37	3.5545E-01
618.70	3.5683E-01
619.03	3.5812E-01
619.36	3.5262E-01
619.69	3.6027E-01
620.03	3.5601E-01
620.36	3.5701E-01
620.69	3.5491E-01
621.02	3.5808E-01
621.35	3.5712E-01
621.68	3.5407E-01
622.01	3.5324E-01
622.34	3.5513E-01
622.67	3.5448E-01
623.00	3.5533E-01
623.33	3.5602E-01
623.66	3.5361E-01
623.99	3.5438E-01
624.32	3.5357E-01
624.65	3.5475E-01
624.99	3.5461E-01
625.32	3.5558E-01
625.65	3.5493E-01
625.98	3.4992E-01
626.31	3.5458E-01
626.64	3.5518E-01
626.97	3.5544E-01
627.30	3.5276E-01
627.63	3.5459E-01
627.96	3.5134E-01
628.29	3.5158E-01
628.62	3.5506E-01
628.95	3.5492E-01
629.28	3.4886E-01
629.61	3.6005E-01
629.94	3.5507E-01
630.26	3.5570E-01
630.59	3.5789E-01
630.92	3.5577E-01
631.25	3.5738E-01
631.58	3.6123E-01
631.91	3.5592E-01
632.24	3.6390E-01
632.57	3.5988E-01
632.90	3.6070E-01
633.23	3.6118E-01
633.56	3.6299E-01
633.89	3.6380E-01
634.22	3.6505E-01
634.55	3.6613E-01
634.88	3.7027E-01
635.20	3.6958E-01
635.53	3.7174E-01
635.86	3.7217E-01
636.19	3.7636E-01
636.52	3.7773E-01
636.85	3.7460E-01
637.18	3.7896E-01
637.51	3.7611E-01
637.83	3.7995E-01
638.16	3.7644E-01
638.49	3.8756E-01
638.82	3.8600E-01
639.15	3.8896E-01
639.48	3.9178E-01
639.81	3.9362E-01
640.13	3.9007E-01
640.46	3.9586E-01
640.79	3.9583E-01
641.12	3.9955E-01
641.45	3.9886E-01
641.77	3.9660E-01
642.10	4.0548E-01
642.43	4.0640E-01
642.76	4.0814E-01
643.09	4.0596E-01
643.41	4.0904E-01
643.74	4.0967E-01
644.07	4.0931E-01
644.40	4.1284E-01
644.73	4.1717E-01
645.05	4.1876E-01
645.38	4.2195E-01
645.71	4.2275E-01
646.04	4.2298E-01
646.36	4.2226E-01
646.69	4.2838E-01
647.02	4.2898E-01
647.35	4.2599E-01
647.67	4.3180E-01
648.00	4.3046E-01
648.33	4.3583E-01
648.66	4.3352E-01
648.98	4.3975E-01
649.31	4.3840E-01
649.64	4.3995E-01
649.96	4.4409E-01
650.29	4.4683E-01
650.62	4.4680E-01
650.94	4.4627E-01
651.27	4.4587E-01
651.60	4.4731E-01
651.92	4.5462E-01
652.25	4.5585E-01
652.58	4.5501E-01
652.90	4.5692E-01
653.23	4.5732E-01
653.56	4.5879E-01
653.88	4.6064E-01
654.21	4.6098E-01
654.54	4.6248E-01
654.86	4.6906E-01
655.19	4.6288E-01
655.52	4.7035E-01
655.84	4.6939E-01
656.17	4.7186E-01
656.49	4.7721E-01
656.82	4.7136E-01
657.15	4.7676E-01
657.47	4.7705E-01
657.80	4.7767E-01
658.13	4.7899E-01
658.45	4.8213E-01
658.78	4.8065E-01
659.10	4.8661E-01
659.43	4.8593E-01
659.75	4.8465E-01
660.08	4.8297E-01
660.41	4.8924E-01
660.73	4.9024E-01
661.06	4.9375E-01
661.38	4.9172E-01
661.71	4.9331E-01
662.03	4.9398E-01
662.36	5.0001E-01
662.68	4.9895E-01
663.01	4.9289E-01
663.33	4.9746E-01
663.66	5.0110E-01
663.98	4.9799E-01
664.31	4.9828E-01
664.63	5.0878E-01
664.96	5.0539E-01
665.28	5.0886E-01
665.61	5.0795E-01
665.93	5.0923E-01
666.26	5.1161E-01
666.58	5.1215E-01
666.91	5.0881E-01
667.23	5.1452E-01
667.56	5.0825E-01
667.88	5.1643E-01
668.21	5.1608E-01
668.53	5.1392E-01
668.86	5.2369E-01
669.18	5.1606E-01
669.50	5.2761E-01
669.83	5.2608E-01
670.15	5.2738E-01
670.48	5.2611E-01
670.80	5.2454E-01
671.13	5.2210E-01
671.45	5.2785E-01
671.77	5.3139E-01
672.10	5.2769E-01
672.42	5.3498E-01
672.75	5.3198E-01
673.07	5.3614E-01
673.39	5.3140E-01
673.72	5.3520E-01
674.04	5.3910E-01
674.37	5.4284E-01
674.69	5.3929E-01
675.01	5.4358E-01
675.34	5.4500E-01
675.66	5.4627E-01
675.98	5.4080E-01
676.31	5.4952E-01
676.63	5.5069E-01
676.95	5.4871E-01
677.28	5.5215E-01
677.60	5.5281E-01
677.92	5.5055E-01
678.25	5.5648E-01
678.57	5.5723E-01
678.89	5.5587E-01
679.22	5.6470E-01
679.54	5.6197E-01
679.86	5.6202E-01
680.18	5.6353E-01
680.51	5.6562E-01
680.83	5.7115E-01
681.15	5.6526E-01
681.48	5.6962E-01
681.80	5.7315E-01
682.12	5.6936E-01
682.44	5.7939E-01
682.77	5.7892E-01
683.09	5.8215E-01
683.41	5.7953E-01
683.73	5.8537E-01
684.06	5.8489E-01
684.38	5.8661E-01
684.70	5.8506E-01
685.02	5.9101E-01
685.34	5.9701E-01
685.67	5.9202E-01
685.99	5.9957E-01
686.31	5.9451E-01
686.63	6.0492E-01
686.96	6.0120E-01
687.28	6.0866E-01
687.60	6.0017E-01
687.92	6.0680E-01
688.24	6.1336E-01
688.56	6.1438E-01
688.89	6.1603E-01
689.21	6.1288E-01
689.53	6.1650E-01
689.85	6.2544E-01
690.17	6.2100E-01
690.49	6.3110E-01
690.82	6.3050E-01
691.14	6.3052E-01
691.46	6.3383E-01
691.78	6.3777E-01
692.10	6.3078E-01
692.42	6.3814E-01
692.74	6.4314E-01
693.06	6.4425E-01
693.39	6.5558E-01
693.71	6.5663E-01
694.03	6.5662E-01
694.35	6.5859E-01
694.67	6.6065E-01
694.99	6.6679E-01
695.31	6.6961E-01
695.63	6.6854E-01
695.95	6.7446E-01
696.27	6.7164E-01
696.59	6.7800E-01
696.91	6.8702E-01
697.23	6.8632E-01
697.56	6.8464E-01
697.88	6.9188E-01
698.20	6.9090E-01
698.52	6.9835E-01
698.84	7.0363E-01
699.16	7.0837E-01
699.48	7.0174E-01
699.80	7.1092E-01
700.12	7.1726E-01
700.44	7.1781E-01
700.76	7.2011E-01
701.08	7.2425E-01
701.40	7.2771E-01
701.72	7.3543E-01
702.04	7.3479E-01
702.36	7.4166E-01
702.68	7.4421E-01
703.00	7.4940E-01
703.32	7.5337E-01
703.64	7.5441E-01
703.96	7.4659E-01
704.28	7.5813E-01
704.60	7.6741E-01
704.91	7.6927E-01
705.23	7.7078E-01
705.55	7.7911E-01
705.87	7.7422E-01
706.19	7.7623E-01
706.51	7.8175E-01
706.83	7.8491E-01
707.15	8.0627E-01
707.47	7.8951E-01
707.79	8.0420E-01
708.11	8.0526E-01
708.43	8.0885E-01
708.74	8.1637E-01
709.06	8.2844E-01
709.38	8.2256E-01
709.70	8.1754E-01
710.02	8.2935E-01
710.34	8.2618E-01
710.66	8.4730E-01
710.98	8.4170E-01
711.29	8.4201E-01
711.61	8.5663E-01
711.93	8.6174E-01
712.25	8.5372E-01
712.57	8.6539E-01
712.89	8.6902E-01
713.20	8.7009E-01
713.52	8.7867E-01
713.84	8.8697E-01
714.16	8.7969E-01
714.48	8.8206E-01
714.80	8.9652E-01
715.11	8.9473E-01
715.43	9.0714E-01
715.75	9.1282E-01
716.07	9.2237E-01
716.39	9.0583E-01
716.70	9.1680E-01
717.02	9.1233E-01
717.34	9.3929E-01
717.66	9.2928E-01
717.97	9.4023E-01
718.29	9.4648E-01
718.61	9.5804E-01
718.93	9.5811E-01
719.24	9.6133E-01
719.56	9.8211E-01
719.88	9.7343E-01
720.20	9.8544E-01
720.51	9.9840E-01
720.83	9.9408E-01
721.15	1.0140E00
721.46	1.0105E00
721.78	1.0175E00
722.10	1.0308E00
722.42	1.0419E00
722.73	1.0478E00
723.05	1.0348E00
723.37	1.0494E00
723.68	1.0599E00
724.00	1.0597E00
724.32	1.0789E00
724.63	1.0757E00
724.95	1.0699E00
725.27	1.0807E00
725.58	1.0880E00
725.90	1.0879E00
726.22	1.1061E00
726.53	1.0817E00
726.85	1.0976E00
727.16	1.1202E00
727.48	1.1007E00
727.80	1.1136E00
728.11	1.1179E00
728.43	1.1138E00
728.74	1.1096E00
729.06	1.1323E00
729.38	1.1270E00
729.69	1.1316E00
730.01	1.1402E00
730.32	1.1476E00
730.64	1.1473E00
730.96	1.1351E00
731.27	1.1667E00
731.59	1.1393E00
731.90	1.1533E00
732.22	1.1631E00
732.53	1.1618E00
732.85	1.1763E00
733.16	1.1710E00
733.48	1.1784E00
733.80	1.1726E00
734.11	1.1939E00
734.43	1.1927E00
734.74	1.1890E00
735.06	1.2058E00
735.37	1.2146E00
735.69	1.1999E00
736.00	1.2143E00
736.32	1.2166E00
736.63	1.2241E00
736.95	1.2217E00
737.26	1.2439E00
737.58	1.2442E00
737.89	1.2528E00
738.21	1.2404E00
738.52	1.2475E00
738.83	1.2510E00
739.15	1.2506E00
739.46	1.2697E00
739.78	1.2653E00
740.09	1.2796E00
740.41	1.2732E00
740.72	1.2685E00
741.04	1.2694E00
741.35	1.2711E00
741.66	1.2926E00
741.98	1.2858E00
742.29	1.2919E00
742.61	1.2853E00
742.92	1.2906E00
743.23	1.2916E00
743.55	1.2985E00
743.86	1.2878E00
744.18	1.2964E00
744.49	1.2980E00
744.80	1.2969E00
745.12	1.2983E00
745.43	1.3033E00
745.74	1.3025E00
746.06	1.2919E00
746.37	1.2905E00
746.68	1.3010E00
747.00	1.2986E00
747.31	1.2884E00
747.62	1.2795E00
747.94	1.3007E00
748.25	1.3023E00
748.56	1.3021E00
748.88	1.2837E00
749.19	1.2950E00
749.50	1.2985E00
749.82	1.2895E00
750.13	1.2970E00
750.44	1.2993E00
750.75	1.2829E00
751.07	1.3009E00
751.38	1.3087E00
751.69	1.2838E00
752.01	1.3017E00
752.32	1.2994E00
752.63	1.3014E00
752.94	1.3094E00
753.26	1.3157E00
753.57	1.3016E00
753.88	1.3100E00
754.19	1.3120E00
754.51	1.3147E00
754.82	1.3103E00
755.13	1.3261E00
755.44	1.3235E00
755.75	1.3273E00
756.07	1.3276E00
756.38	1.3434E00
756.69	1.3402E00
757.00	1.3485E00
757.31	1.3649E00
757.63	1.3719E00
757.94	1.3749E00
758.25	1.3900E00
758.56	1.3545E00
758.87	1.4023E00
759.18	1.4044E00
759.50	1.4026E00
759.81	1.3967E00
760.12	1.4068E00
760.43	1.4182E00
760.74	1.4144E00
761.05	1.4412E00
761.36	1.4454E00
761.67	1.4555E00
761.99	1.4649E00
762.30	1.4450E00
762.61	1.4801E00
762.92	1.4765E00
763.23	1.4777E00
763.54	1.4930E00
763.85	1.5173E00
764.16	1.5205E00
764.47	1.5405E00
764.78	1.5512E00
765.10	1.5519E00
765.41	1.5526E00
765.72	1.5622E00
766.03	1.5994E00
766.34	1.6101E00
766.65	1.6206E00
766.96	1.6527E00
767.27	1.6393E00
767.58	1.6411E00
767.89	1.6598E00
768.20	1.6854E00
768.51	1.6855E00
768.82	1.6903E00
769.13	1.7220E00
769.44	1.7436E00
769.75	1.7400E00
770.06	1.7477E00
770.37	1.7435E00
770.68	1.7839E00
770.99	1.7987E00
771.30	1.8086E00
771.61	1.8643E00
771.92	1.8246E00
772.23	1.8475E00
772.54	1.8879E00
772.85	1.8698E00
773.16	1.8885E00
773.47	1.9447E00
773.78	1.9316E00
774.09	1.9605E00
774.39	1.9649E00
774.70	1.9711E00
775.01	2.0109E00
775.32	2.0208E00
775.63	2.0433E00
775.94	2.0647E00
776.25	2.0517E00
776.56	2.0701E00
776.87	2.1247E00
777.18	2.1191E00
777.48	2.1410E00
777.79	2.1595E00
778.10	2.1782E00
778.41	2.1961E00
778.72	2.2203E00
779.03	2.2304E00
779.34	2.2794E00
779.65	2.2825E00
779.95	2.3237E00
780.26	2.3034E00
780.57	2.3442E00
780.88	2.3355E00
781.19	2.3780E00
781.50	2.3833E00
781.80	2.4029E00
782.11	2.4096E00
782.42	2.4682E00
782.73	2.4199E00
783.04	2.5143E00
783.34	2.5138E00
783.65	2.5347E00
783.96	2.5436E00
784.27	2.5582E00
784.57	2.5790E00
784.88	2.6074E00
785.19	2.6199E00
785.50	2.6507E00
785.81	2.6823E00
786.11	2.6460E00
786.42	2.6770E00
786.73	2.7058E00
787.04	2.7386E00
787.34	2.7872E00
787.65	2.8011E00
787.96	2.8642E00
788.26	2.8424E00
788.57	2.8996E00
788.88	2.8663E00
789.19	2.9558E00
789.49	2.9266E00
789.80	2.9822E00
790.11	2.9878E00
790.41	3.0208E00
790.72	3.0497E00
791.03	3.0651E00
791.33	3.0938E00
791.64	3.1631E00
791.95	3.1067E00
792.25	3.2081E00
792.56	3.1767E00
792.87	3.2279E00
793.17	3.2454E00
793.48	3.2593E00
793.79	3.2933E00
794.09	3.3557E00
794.40	3.3060E00
794.70	3.3199E00
795.01	3.3316E00
795.32	3.3786E00
795.62	3.4448E00
795.93	3.4515E00
796.23	3.4595E00
796.54	3.5063E00
796.85	3.4932E00
797.15	3.5370E00
797.46	3.5673E00
797.76	3.6578E00
798.07	3.6422E00
798.37	3.6476E00
798.68	3.7056E00
798.99	3.7045E00
799.29	3.7423E00
799.60	3.8070E00
799.90	3.8078E00
800.21	3.8621E00
800.51	3.8924E00
800.82	3.8885E00
801.12	3.9572E00
801.43	3.9466E00
801.73	4.0295E00
802.04	4.0195E00
802.34	4.0185E00
802.65	4.0633E00
802.95	4.2004E00
803.26	4.1694E00
803.56	4.0954E00
803.87	4.1633E00
804.17	4.1915E00
804.48	4.1861E00
804.78	4.2659E00
805.09	4.3380E00
805.39	4.3125E00
805.70	4.3368E00
806.00	4.4004E00
806.30	4.3976E00
806.61	4.4646E00
806.91	4.4894E00
807.22	4.5309E00
807.52	4.5577E00
807.83	4.5763E00
808.13	4.6309E00
808.43	4.5380E00
808.74	4.6669E00
809.04	4.7069E00
809.35	4.6803E00
809.65	4.7955E00
809.95	4.8207E00
810.26	4.8738E00
810.56	4.8933E00
810.86	4.9581E00
811.17	5.0003E00
811.47	4.9902E00
811.77	4.9937E00
812.08	4.9835E00
812.38	5.1378E00
812.69	5.0356E00
812.99	5.2011E00
813.29	5.2232E00
813.59	5.2749E00
813.90	5.2860E00
814.20	5.2940E00
814.50	5.3696E00
814.81	5.3075E00
815.11	5.4321E00
815.41	5.5712E00
815.72	5.4984E00
816.02	5.5379E00
816.32	5.5635E00
816.62	5.5259E00
816.93	5.6301E00
817.23	5.8129E00
817.53	5.7101E00
817.84	5.8309E00
818.14	5.8150E00
818.44	5.6571E00
818.74	5.7893E00
819.04	5.8672E00
819.35	5.8145E00
819.65	5.8623E00
819.95	6.0012E00
820.25	6.0572E00
820.56	6.1372E00
820.86	6.2500E00
821.16	6.3241E00
821.46	6.3279E00
821.76	6.3612E00
822.07	6.3138E00
822.37	6.3620E00
822.67	6.2949E00
822.97	6.1830E00
823.27	6.0757E00
823.57	6.1671E00
823.88	6.1160E00
824.18	5.7864E00
824.48	5.8704E00
824.78	5.9806E00
825.08	6.2399E00
825.38	6.4252E00
825.69	6.3715E00
825.99	6.4792E00
826.29	6.5688E00
826.59	6.4646E00
826.89	6.5967E00
827.19	6.5343E00
827.49	6.5277E00
827.79	6.1759E00
828.09	5.9552E00
828.39	5.9696E00
828.70	5.9175E00
829.00	5.8743E00
829.30	5.8052E00
829.60	5.8490E00
829.90	5.7854E00
830.20	5.5804E00
830.50	5.7302E00
830.80	5.8241E00
831.10	5.6610E00
831.40	5.8175E00
831.70	5.6788E00
832.00	5.6781E00
832.30	5.6803E00
832.60	5.6814E00
832.90	5.6141E00
833.20	5.7210E00
833.50	5.5854E00
833.80	5.5461E00
834.10	5.5611E00
834.40	5.6052E00
834.70	5.6941E00
835.00	5.6125E00
835.30	5.7241E00
835.60	5.7632E00
835.90	5.7574E00
836.20	5.8897E00
836.50	5.9054E00
836.80	6.0787E00
837.10	6.2677E00
837.40	6.0592E00
837.70	6.0670E00
838.00	5.9111E00
838.30	5.9379E00
838.60	6.1051E00
838.90	6.0659E00
839.19	6.2781E00
839.49	6.1517E00
839.79	6.2335E00
840.09	6.1552E00
840.39	6.1675E00
840.69	6.2345E00
840.99	6.3652E00
841.29	6.3977E00
841.59	6.1741E00
841.88	6.1430E00
842.18	6.2662E00
842.48	6.3031E00
842.78	6.2101E00
843.08	6.3115E00
843.38	6.1626E00
843.68	6.3176E00
843.97	6.3753E00
844.27	6.3317E00
844.57	6.3034E00
844.87	6.3235E00
845.17	6.2695E00
845.47	6.0897E00
845.76	6.2462E00
846.06	6.4167E00
846.36	6.7248E00
846.66	6.3668E00
846.96	6.4182E00
847.25	6.2237E00
847.55	6.2198E00
847.85	6.3704E00
848.15	6.2426E00
848.44	6.3013E00
848.74	6.1632E00
849.04	6.1777E00
849.34	6.2683E00
849.63	6.2664E00
849.93	6.0416E00
850.23	6.1061E00
850.53	5.8407E00
850.82	5.9124E00
851.12	5.8207E00
851.42	5.8811E00
851.71	5.9303E00
852.01	5.9527E00
852.31	6.0797E00
852.61	5.9629E00
852.90	5.9771E00
853.20	6.0619E00
853.50	6.3378E00
853.79	6.2520E00
854.09	5.7903E00
854.39	5.6818E00
854.68	5.7227E00
854.98	5.5619E00
855.28	5.4638E00
855.57	5.6900E00
855.87	5.6173E00
856.17	5.6862E00
856.46	5.5220E00
856.76	5.5610E00
857.05	5.8916E00
857.35	5.8507E00
857.65	6.0339E00
857.94	6.0668E00
858.24	6.0915E00
858.53	6.1072E00
858.83	6.3547E00
859.13	6.1041E00
859.42	6.0014E00
859.72	6.2193E00
860.01	6.2641E00
860.31	6.0846E00
860.60	6.1519E00
860.90	6.2741E00
861.20	6.1410E00
861.49	5.9900E00
861.79	6.2454E00
862.08	7.0363E00
862.38	6.4452E00
862.67	6.0850E00
862.97	6.1524E00
863.26	6.0229E00
863.56	6.4075E00
863.85	6.4121E00
864.15	6.0882E00
864.44	6.2685E00
864.74	6.1395E00
865.03	6.3631E00
865.33	6.2627E00
865.62	6.1753E00
865.92	5.9528E00
866.21	6.2364E00
866.51	6.0622E00
866.80	6.1568E00
867.10	6.2465E00
867.39	5.7744E00
867.69	6.1300E00
867.98	5.5384E00
868.27	5.6649E00
868.57	5.6990E00
868.86	6.0793E00
869.16	5.8753E00
869.45	5.8943E00
869.75	5.7257E00
870.04	5.9562E00
870.33	6.1601E00
870.63	5.9332E00
870.92	6.2602E00
871.22	7.0688E00
871.51	6.0379E00
871.80	6.0882E00
872.10	6.0882E00
>>>>>End Processed Spectral Data<<<<<
