SpectraSuite Data File
++++++++++++++++++++++++++++++++++++
Date: Wed May 13 09:11:40 PDT 2015
User: schluterlab
Dark Spectrum Present: Yes
Reference Spectrum Present: No
Number of Sampled Component Spectra: 1
Spectrometers: USB2E3373
Integration Time (usec): 2200000 (USB2E3373)
Spectra Averaged: 3 (USB2E3373)
Boxcar Smoothing: 0 (USB2E3373)
Correct for Electrical Dark: No (USB2E3373)
Strobe/Lamp Enabled: No (USB2E3373)
Correct for Detector Non-linearity: No (USB2E3373)
Correct for Stray Light: No (USB2E3373)
Number of Pixels in Processed Spectrum: 2048
>>>>>Begin Processed Spectral Data<<<<<
178.53	0.0000E00
178.91	0.0000E00
179.29	0.0000E00
179.67	0.0000E00
180.04	0.0000E00
180.42	0.0000E00
180.80	0.0000E00
181.18	0.0000E00
181.56	0.0000E00
181.94	0.0000E00
182.31	0.0000E00
182.69	0.0000E00
183.07	0.0000E00
183.45	0.0000E00
183.83	0.0000E00
184.20	0.0000E00
184.58	0.0000E00
184.96	0.0000E00
185.34	0.0000E00
185.72	0.0000E00
186.09	0.0000E00
186.47	0.0000E00
186.85	0.0000E00
187.23	0.0000E00
187.61	0.0000E00
187.98	0.0000E00
188.36	0.0000E00
188.74	0.0000E00
189.12	0.0000E00
189.49	0.0000E00
189.87	0.0000E00
190.25	0.0000E00
190.63	0.0000E00
191.00	0.0000E00
191.38	0.0000E00
191.76	0.0000E00
192.14	0.0000E00
192.51	0.0000E00
192.89	0.0000E00
193.27	0.0000E00
193.65	0.0000E00
194.02	0.0000E00
194.40	0.0000E00
194.78	0.0000E00
195.15	0.0000E00
195.53	-0.0000E00
195.91	0.0000E00
196.29	0.0000E00
196.66	0.0000E00
197.04	0.0000E00
197.42	0.0000E00
197.79	0.0000E00
198.17	0.0000E00
198.55	0.0000E00
198.92	0.0000E00
199.30	0.0000E00
199.68	0.0000E00
200.05	0.0000E00
200.43	0.0000E00
200.81	0.0000E00
201.18	0.0000E00
201.56	0.0000E00
201.94	0.0000E00
202.31	-0.0000E00
202.69	0.0000E00
203.07	0.0000E00
203.44	0.0000E00
203.82	0.0000E00
204.19	0.0000E00
204.57	0.0000E00
204.95	0.0000E00
205.32	0.0000E00
205.70	0.0000E00
206.08	0.0000E00
206.45	0.0000E00
206.83	0.0000E00
207.20	0.0000E00
207.58	0.0000E00
207.96	0.0000E00
208.33	0.0000E00
208.71	0.0000E00
209.08	0.0000E00
209.46	0.0000E00
209.84	0.0000E00
210.21	0.0000E00
210.59	0.0000E00
210.96	0.0000E00
211.34	0.0000E00
211.71	0.0000E00
212.09	0.0000E00
212.46	0.0000E00
212.84	0.0000E00
213.22	0.0000E00
213.59	0.0000E00
213.97	0.0000E00
214.34	0.0000E00
214.72	0.0000E00
215.09	0.0000E00
215.47	0.0000E00
215.84	0.0000E00
216.22	0.0000E00
216.59	0.0000E00
216.97	0.0000E00
217.34	0.0000E00
217.72	0.0000E00
218.09	0.0000E00
218.47	0.0000E00
218.84	0.0000E00
219.22	0.0000E00
219.59	0.0000E00
219.97	0.0000E00
220.34	0.0000E00
220.72	0.0000E00
221.09	0.0000E00
221.47	0.0000E00
221.84	0.0000E00
222.22	0.0000E00
222.59	0.0000E00
222.97	0.0000E00
223.34	0.0000E00
223.72	0.0000E00
224.09	0.0000E00
224.46	0.0000E00
224.84	0.0000E00
225.21	0.0000E00
225.59	0.0000E00
225.96	0.0000E00
226.34	0.0000E00
226.71	0.0000E00
227.08	0.0000E00
227.46	0.0000E00
227.83	0.0000E00
228.21	0.0000E00
228.58	0.0000E00
228.95	0.0000E00
229.33	0.0000E00
229.70	0.0000E00
230.08	0.0000E00
230.45	0.0000E00
230.82	0.0000E00
231.20	0.0000E00
231.57	0.0000E00
231.95	0.0000E00
232.32	0.0000E00
232.69	0.0000E00
233.07	0.0000E00
233.44	0.0000E00
233.81	0.0000E00
234.19	0.0000E00
234.56	0.0000E00
234.93	0.0000E00
235.31	0.0000E00
235.68	0.0000E00
236.05	0.0000E00
236.43	0.0000E00
236.80	0.0000E00
237.17	0.0000E00
237.55	0.0000E00
237.92	0.0000E00
238.29	0.0000E00
238.67	0.0000E00
239.04	0.0000E00
239.41	0.0000E00
239.79	0.0000E00
240.16	0.0000E00
240.53	0.0000E00
240.91	0.0000E00
241.28	0.0000E00
241.65	0.0000E00
242.02	0.0000E00
242.40	0.0000E00
242.77	0.0000E00
243.14	0.0000E00
243.51	0.0000E00
243.89	0.0000E00
244.26	0.0000E00
244.63	0.0000E00
245.00	0.0000E00
245.38	0.0000E00
245.75	0.0000E00
246.12	0.0000E00
246.49	0.0000E00
246.87	0.0000E00
247.24	0.0000E00
247.61	0.0000E00
247.98	0.0000E00
248.36	0.0000E00
248.73	0.0000E00
249.10	0.0000E00
249.47	0.0000E00
249.84	0.0000E00
250.22	0.0000E00
250.59	0.0000E00
250.96	0.0000E00
251.33	0.0000E00
251.70	0.0000E00
252.08	0.0000E00
252.45	0.0000E00
252.82	0.0000E00
253.19	0.0000E00
253.56	0.0000E00
253.94	0.0000E00
254.31	0.0000E00
254.68	0.0000E00
255.05	0.0000E00
255.42	0.0000E00
255.79	0.0000E00
256.16	0.0000E00
256.54	0.0000E00
256.91	0.0000E00
257.28	0.0000E00
257.65	0.0000E00
258.02	0.0000E00
258.39	0.0000E00
258.76	0.0000E00
259.14	0.0000E00
259.51	0.0000E00
259.88	0.0000E00
260.25	0.0000E00
260.62	0.0000E00
260.99	0.0000E00
261.36	0.0000E00
261.73	0.0000E00
262.10	0.0000E00
262.47	0.0000E00
262.85	0.0000E00
263.22	0.0000E00
263.59	0.0000E00
263.96	0.0000E00
264.33	0.0000E00
264.70	0.0000E00
265.07	0.0000E00
265.44	0.0000E00
265.81	0.0000E00
266.18	0.0000E00
266.55	0.0000E00
266.92	0.0000E00
267.29	0.0000E00
267.66	0.0000E00
268.03	0.0000E00
268.40	0.0000E00
268.77	0.0000E00
269.14	0.0000E00
269.51	0.0000E00
269.88	0.0000E00
270.25	0.0000E00
270.62	0.0000E00
270.99	0.0000E00
271.36	0.0000E00
271.73	0.0000E00
272.10	0.0000E00
272.47	0.0000E00
272.84	0.0000E00
273.21	0.0000E00
273.58	0.0000E00
273.95	0.0000E00
274.32	0.0000E00
274.69	0.0000E00
275.06	0.0000E00
275.43	0.0000E00
275.80	0.0000E00
276.17	0.0000E00
276.54	0.0000E00
276.91	0.0000E00
277.28	0.0000E00
277.65	0.0000E00
278.02	0.0000E00
278.39	0.0000E00
278.76	0.0000E00
279.13	0.0000E00
279.50	0.0000E00
279.87	0.0000E00
280.23	0.0000E00
280.60	0.0000E00
280.97	0.0000E00
281.34	0.0000E00
281.71	0.0000E00
282.08	0.0000E00
282.45	0.0000E00
282.82	0.0000E00
283.19	0.0000E00
283.56	0.0000E00
283.92	0.0000E00
284.29	0.0000E00
284.66	0.0000E00
285.03	0.0000E00
285.40	0.0000E00
285.77	0.0000E00
286.14	0.0000E00
286.51	0.0000E00
286.87	0.0000E00
287.24	0.0000E00
287.61	0.0000E00
287.98	0.0000E00
288.35	0.0000E00
288.72	0.0000E00
289.08	0.0000E00
289.45	0.0000E00
289.82	0.0000E00
290.19	0.0000E00
290.56	0.0000E00
290.93	0.0000E00
291.29	0.0000E00
291.66	0.0000E00
292.03	0.0000E00
292.40	0.0000E00
292.77	0.0000E00
293.13	0.0000E00
293.50	0.0000E00
293.87	0.0000E00
294.24	0.0000E00
294.60	0.0000E00
294.97	0.0000E00
295.34	0.0000E00
295.71	0.0000E00
296.08	0.0000E00
296.44	0.0000E00
296.81	0.0000E00
297.18	0.0000E00
297.55	0.0000E00
297.91	0.0000E00
298.28	0.0000E00
298.65	0.0000E00
299.02	0.0000E00
299.38	0.0000E00
299.75	0.0000E00
300.12	1.1985E-01
300.48	3.1345E-01
300.85	1.2290E-01
301.22	3.4636E-01
301.59	1.0609E-01
301.95	1.2282E-01
302.32	1.7698E-01
302.69	1.7642E-01
303.05	1.0810E-01
303.42	1.5135E-01
303.79	1.7485E-01
304.15	1.1279E-01
304.52	1.2783E-01
304.89	1.2069E-01
305.25	2.4820E-01
305.62	1.5441E-01
305.99	1.9193E-01
306.35	1.1132E-01
306.72	1.5287E-01
307.09	1.4924E-01
307.45	1.4595E-01
307.82	1.0290E-01
308.19	1.3232E-01
308.55	1.4873E-01
308.92	1.8294E-01
309.29	1.4836E-01
309.65	2.2466E-01
310.02	1.3925E-01
310.38	1.4424E-01
310.75	1.9560E-01
311.12	1.9404E-01
311.48	3.4399E-01
311.85	2.2721E-01
312.22	1.6287E-01
312.58	3.6039E-01
312.95	2.2274E-01
313.31	2.1830E-01
313.68	2.8526E-01
314.05	4.8046E-01
314.41	2.6534E-01
314.78	1.6396E-01
315.14	3.3520E-01
315.51	5.6651E-01
315.87	2.4766E-01
316.24	3.6818E-01
316.61	3.4883E-01
316.97	2.4536E-01
317.34	4.2839E-01
317.70	3.3565E-01
318.07	3.4474E-01
318.43	4.0469E-01
318.80	3.0551E-01
319.16	3.8986E-01
319.53	2.8207E-01
319.89	5.7851E-01
320.26	4.5273E-01
320.62	5.5724E-01
320.99	4.9763E-01
321.35	2.8728E-01
321.72	3.9259E-01
322.08	6.0482E-01
322.45	3.8304E-01
322.81	3.9636E-01
323.18	1.2718E00
323.54	6.7190E-01
323.91	5.1799E-01
324.27	1.0767E00
324.64	8.5426E-01
325.00	6.5532E-01
325.37	1.1226E00
325.73	4.3913E-01
326.10	1.6295E00
326.46	7.8612E-01
326.83	6.9044E-01
327.19	1.4700E00
327.56	5.7984E-01
327.92	8.3808E-01
328.29	6.5428E-01
328.65	8.3511E-01
329.01	1.0268E00
329.38	7.0073E-01
329.74	6.4325E-01
330.11	9.8317E-01
330.47	6.5315E-01
330.84	9.1379E-01
331.20	9.0990E-01
331.56	8.3320E-01
331.93	9.6086E-01
332.29	9.1379E-01
332.66	6.3366E-01
333.02	7.6433E-01
333.38	1.1468E00
333.75	5.4279E-01
334.11	9.2425E-01
334.48	8.6652E-01
334.84	8.1097E-01
335.20	1.0220E00
335.57	1.9034E00
335.93	1.2614E00
336.29	9.5096E-01
336.66	8.9369E-01
337.02	6.3656E-01
337.38	7.6766E-01
337.75	7.8949E-01
338.11	6.9018E-01
338.47	9.9709E-01
338.84	8.3809E-01
339.20	7.1246E-01
339.56	2.1354E00
339.93	7.1335E-01
340.29	8.5059E-01
340.65	9.3695E-01
341.02	1.5874E00
341.38	1.0650E00
341.74	1.1568E00
342.11	1.1504E00
342.47	1.1849E00
342.83	6.9589E-01
343.20	1.5392E00
343.56	9.4067E-01
343.92	1.3373E00
344.28	8.0593E-01
344.65	1.2467E00
345.01	7.4896E-01
345.37	1.2771E00
345.73	1.1995E00
346.10	1.0270E00
346.46	1.2469E00
346.82	9.6663E-01
347.19	2.2349E00
347.55	9.1637E-01
347.91	9.3487E-01
348.27	1.0408E00
348.63	9.0009E-01
349.00	9.2163E-01
349.36	1.8568E00
349.72	1.1736E00
350.08	1.7347E00
350.45	9.9777E-01
350.81	9.2917E-01
351.17	1.2196E00
351.53	1.3152E00
351.89	1.0705E00
352.26	1.2263E00
352.62	1.0136E00
352.98	1.1790E00
353.34	1.0399E00
353.70	1.3736E00
354.07	1.0082E00
354.43	9.5654E-01
354.79	1.1227E00
355.15	8.9876E-01
355.51	8.5842E-01
355.87	9.7187E-01
356.24	1.0120E00
356.60	9.7962E-01
356.96	1.0606E00
357.32	9.5455E-01
357.68	8.9632E-01
358.04	8.0931E-01
358.40	8.9299E-01
358.77	8.3161E-01
359.13	9.8408E-01
359.49	1.0457E00
359.85	1.0165E00
360.21	7.6484E-01
360.57	9.3386E-01
360.93	9.2766E-01
361.29	9.8241E-01
361.66	8.1616E-01
362.02	7.5258E-01
362.38	9.8059E-01
362.74	8.5348E-01
363.10	9.0092E-01
363.46	1.0476E00
363.82	8.9611E-01
364.18	1.0731E00
364.54	1.0170E00
364.90	9.6883E-01
365.26	9.5240E-01
365.62	1.0885E00
365.98	9.4797E-01
366.35	7.5917E-01
366.71	9.2002E-01
367.07	1.1784E00
367.43	7.4534E-01
367.79	1.0656E00
368.15	9.7709E-01
368.51	1.1574E00
368.87	1.0127E00
369.23	1.0830E00
369.59	8.5130E-01
369.95	9.2179E-01
370.31	8.7936E-01
370.67	1.0406E00
371.03	8.7782E-01
371.39	8.5818E-01
371.75	8.6674E-01
372.11	8.9428E-01
372.47	8.2271E-01
372.83	8.3024E-01
373.19	6.9332E-01
373.55	9.0783E-01
373.91	9.2638E-01
374.27	1.0005E00
374.63	9.7491E-01
374.99	8.8628E-01
375.35	8.5126E-01
375.71	8.6814E-01
376.07	8.7534E-01
376.42	8.6541E-01
376.78	7.8525E-01
377.14	8.9009E-01
377.50	9.7266E-01
377.86	8.2738E-01
378.22	7.8077E-01
378.58	7.8157E-01
378.94	7.5845E-01
379.30	7.9613E-01
379.66	7.8443E-01
380.02	7.6761E-01
380.38	7.4604E-01
380.74	7.8228E-01
381.09	8.2010E-01
381.45	7.5688E-01
381.81	7.3146E-01
382.17	7.7090E-01
382.53	8.0114E-01
382.89	7.1803E-01
383.25	7.5522E-01
383.61	7.4661E-01
383.97	7.2421E-01
384.32	7.2251E-01
384.68	6.8905E-01
385.04	7.6566E-01
385.40	7.8882E-01
385.76	7.8585E-01
386.12	7.3884E-01
386.48	7.5112E-01
386.83	7.0037E-01
387.19	6.9866E-01
387.55	7.8218E-01
387.91	7.5579E-01
388.27	7.0734E-01
388.62	7.9429E-01
388.98	7.1983E-01
389.34	7.9922E-01
389.70	7.2545E-01
390.06	7.4854E-01
390.42	7.5539E-01
390.77	7.3649E-01
391.13	7.5151E-01
391.49	7.3829E-01
391.85	7.7789E-01
392.20	6.8727E-01
392.56	6.9689E-01
392.92	7.0646E-01
393.28	7.0936E-01
393.64	7.4141E-01
393.99	7.5528E-01
394.35	7.4269E-01
394.71	7.3406E-01
395.07	7.1912E-01
395.42	7.2137E-01
395.78	7.3498E-01
396.14	6.6371E-01
396.50	6.6615E-01
396.85	7.3242E-01
397.21	7.0551E-01
397.57	7.2480E-01
397.92	6.7785E-01
398.28	6.5593E-01
398.64	7.7915E-01
399.00	6.2823E-01
399.35	6.5372E-01
399.71	7.0096E-01
400.07	6.8424E-01
400.42	6.6865E-01
400.78	6.8544E-01
401.14	6.8855E-01
401.49	6.3793E-01
401.85	6.3401E-01
402.21	6.4372E-01
402.57	6.4000E-01
402.92	6.7522E-01
403.28	6.4211E-01
403.63	6.3852E-01
403.99	6.5287E-01
404.35	6.3442E-01
404.70	6.2269E-01
405.06	6.3240E-01
405.42	6.4705E-01
405.77	6.0192E-01
406.13	6.0111E-01
406.49	5.9709E-01
406.84	6.0364E-01
407.20	5.8914E-01
407.55	6.3584E-01
407.91	6.4761E-01
408.27	6.0680E-01
408.62	6.1022E-01
408.98	6.1795E-01
409.34	6.2862E-01
409.69	6.0131E-01
410.05	6.3382E-01
410.40	6.0505E-01
410.76	5.5968E-01
411.11	5.6511E-01
411.47	6.1295E-01
411.83	5.8037E-01
412.18	5.9155E-01
412.54	5.7971E-01
412.89	5.7603E-01
413.25	5.9762E-01
413.60	6.2365E-01
413.96	5.8505E-01
414.31	5.8868E-01
414.67	6.2144E-01
415.03	6.0970E-01
415.38	6.2406E-01
415.74	6.1659E-01
416.09	6.1273E-01
416.45	6.2036E-01
416.80	6.0890E-01
417.16	6.0399E-01
417.51	6.0045E-01
417.87	5.7800E-01
418.22	5.7135E-01
418.58	5.8385E-01
418.93	5.5890E-01
419.29	5.9896E-01
419.64	5.8155E-01
420.00	5.4971E-01
420.35	5.3976E-01
420.71	5.6679E-01
421.06	5.6870E-01
421.42	5.8335E-01
421.77	5.7469E-01
422.12	5.7316E-01
422.48	5.4276E-01
422.83	5.8051E-01
423.19	5.4879E-01
423.54	5.4949E-01
423.90	5.5585E-01
424.25	5.2479E-01
424.61	5.7854E-01
424.96	5.4168E-01
425.31	5.3837E-01
425.67	5.1625E-01
426.02	5.3905E-01
426.38	5.3858E-01
426.73	5.0983E-01
427.09	5.3391E-01
427.44	5.1163E-01
427.79	5.1734E-01
428.15	5.3393E-01
428.50	5.2988E-01
428.85	5.4270E-01
429.21	5.0101E-01
429.56	4.8998E-01
429.92	4.9944E-01
430.27	5.1615E-01
430.62	5.1549E-01
430.98	5.2211E-01
431.33	5.1029E-01
431.68	4.9309E-01
432.04	4.8934E-01
432.39	4.9653E-01
432.74	5.1434E-01
433.10	4.8215E-01
433.45	5.1064E-01
433.80	5.0804E-01
434.16	5.1922E-01
434.51	4.9431E-01
434.86	5.1445E-01
435.22	4.9617E-01
435.57	5.3019E-01
435.92	5.1965E-01
436.28	5.1712E-01
436.63	4.8000E-01
436.98	5.1320E-01
437.34	5.0943E-01
437.69	4.8435E-01
438.04	4.7116E-01
438.39	5.0444E-01
438.75	5.1631E-01
439.10	4.6615E-01
439.45	5.0619E-01
439.81	5.0080E-01
440.16	4.7119E-01
440.51	4.9197E-01
440.86	4.9030E-01
441.22	4.7939E-01
441.57	4.8362E-01
441.92	4.6990E-01
442.27	4.9330E-01
442.63	4.8277E-01
442.98	5.1529E-01
443.33	5.0426E-01
443.68	4.6911E-01
444.03	4.4247E-01
444.39	4.4480E-01
444.74	4.8282E-01
445.09	4.8959E-01
445.44	4.9065E-01
445.79	4.3355E-01
446.15	4.6564E-01
446.50	4.8162E-01
446.85	4.5276E-01
447.20	4.4015E-01
447.55	4.7572E-01
447.91	4.5817E-01
448.26	4.7001E-01
448.61	4.6523E-01
448.96	4.5591E-01
449.31	4.6280E-01
449.66	4.6676E-01
450.02	4.5977E-01
450.37	4.6016E-01
450.72	4.5427E-01
451.07	4.8989E-01
451.42	4.8694E-01
451.77	4.5971E-01
452.12	4.5964E-01
452.47	4.8059E-01
452.83	4.4163E-01
453.18	4.6759E-01
453.53	4.6238E-01
453.88	4.3540E-01
454.23	4.2949E-01
454.58	4.2990E-01
454.93	4.6125E-01
455.28	4.5818E-01
455.63	4.4466E-01
455.98	4.3528E-01
456.34	4.5834E-01
456.69	4.4434E-01
457.04	4.4771E-01
457.39	4.2018E-01
457.74	4.2883E-01
458.09	4.1773E-01
458.44	4.1654E-01
458.79	4.0795E-01
459.14	4.2187E-01
459.49	4.3911E-01
459.84	4.1454E-01
460.19	4.4069E-01
460.54	4.3770E-01
460.89	4.0364E-01
461.24	4.4193E-01
461.59	4.2300E-01
461.94	4.2850E-01
462.29	4.0048E-01
462.64	4.2382E-01
462.99	4.2817E-01
463.34	4.5267E-01
463.69	4.2403E-01
464.04	3.9576E-01
464.39	4.1128E-01
464.74	4.1697E-01
465.09	4.2795E-01
465.44	4.0313E-01
465.79	4.1596E-01
466.14	4.1817E-01
466.49	4.1105E-01
466.84	4.0706E-01
467.19	4.2115E-01
467.54	4.2251E-01
467.89	4.0205E-01
468.24	3.8147E-01
468.59	3.9371E-01
468.94	3.8569E-01
469.29	3.8794E-01
469.64	4.0080E-01
469.99	3.8594E-01
470.34	3.7414E-01
470.68	3.9828E-01
471.03	3.8413E-01
471.38	3.8549E-01
471.73	3.6707E-01
472.08	3.6201E-01
472.43	3.4967E-01
472.78	3.6917E-01
473.13	3.6498E-01
473.48	3.5915E-01
473.83	3.5209E-01
474.17	3.5769E-01
474.52	3.5358E-01
474.87	3.3932E-01
475.22	3.4662E-01
475.57	3.2957E-01
475.92	3.2138E-01
476.27	3.3091E-01
476.61	3.2223E-01
476.96	3.1408E-01
477.31	3.0410E-01
477.66	3.1013E-01
478.01	3.0783E-01
478.36	3.0636E-01
478.70	3.0215E-01
479.05	3.0685E-01
479.40	2.9268E-01
479.75	2.8954E-01
480.10	2.9133E-01
480.45	2.8456E-01
480.79	2.8330E-01
481.14	2.8737E-01
481.49	2.8035E-01
481.84	2.7547E-01
482.19	2.7332E-01
482.53	2.7247E-01
482.88	2.7038E-01
483.23	2.6589E-01
483.58	2.6023E-01
483.92	2.6674E-01
484.27	2.5853E-01
484.62	2.5688E-01
484.97	2.5148E-01
485.31	2.5001E-01
485.66	2.5540E-01
486.01	2.5529E-01
486.36	2.4316E-01
486.70	2.4983E-01
487.05	2.4827E-01
487.40	2.4864E-01
487.75	2.4122E-01
488.09	2.4153E-01
488.44	2.4367E-01
488.79	2.3982E-01
489.13	2.3733E-01
489.48	2.4023E-01
489.83	2.4060E-01
490.17	2.3439E-01
490.52	2.3444E-01
490.87	2.3536E-01
491.22	2.3868E-01
491.56	2.3522E-01
491.91	2.3834E-01
492.26	2.3561E-01
492.60	2.3536E-01
492.95	2.3749E-01
493.30	2.3729E-01
493.64	2.3424E-01
493.99	2.3557E-01
494.34	2.3272E-01
494.68	2.3022E-01
495.03	2.3583E-01
495.37	2.3386E-01
495.72	2.3614E-01
496.07	2.3103E-01
496.41	2.3239E-01
496.76	2.3098E-01
497.11	2.3331E-01
497.45	2.3230E-01
497.80	2.3255E-01
498.14	2.3246E-01
498.49	2.3292E-01
498.84	2.3347E-01
499.18	2.3313E-01
499.53	2.3275E-01
499.87	2.3086E-01
500.22	2.3354E-01
500.56	2.3314E-01
500.91	2.3274E-01
501.26	2.3248E-01
501.60	2.3194E-01
501.95	2.3009E-01
502.29	2.3320E-01
502.64	2.2891E-01
502.98	2.3262E-01
503.33	2.3053E-01
503.67	2.3127E-01
504.02	2.3066E-01
504.36	2.3003E-01
504.71	2.3088E-01
505.06	2.2869E-01
505.40	2.2879E-01
505.75	2.2993E-01
506.09	2.3032E-01
506.44	2.3006E-01
506.78	2.2799E-01
507.13	2.2897E-01
507.47	2.2727E-01
507.82	2.2722E-01
508.16	2.2952E-01
508.51	2.2751E-01
508.85	2.2476E-01
509.19	2.2749E-01
509.54	2.2699E-01
509.88	2.2724E-01
510.23	2.2402E-01
510.57	2.2515E-01
510.92	2.2437E-01
511.26	2.2437E-01
511.61	2.2443E-01
511.95	2.2475E-01
512.30	2.2346E-01
512.64	2.2503E-01
512.98	2.2106E-01
513.33	2.2266E-01
513.67	2.2334E-01
514.02	2.2260E-01
514.36	2.2055E-01
514.70	2.2177E-01
515.05	2.1922E-01
515.39	2.2121E-01
515.74	2.1903E-01
516.08	2.1787E-01
516.42	2.1971E-01
516.77	2.2025E-01
517.11	2.2031E-01
517.46	2.2148E-01
517.80	2.1831E-01
518.14	2.1966E-01
518.49	2.1765E-01
518.83	2.1852E-01
519.17	2.1856E-01
519.52	2.1891E-01
519.86	2.1785E-01
520.20	2.1689E-01
520.55	2.1759E-01
520.89	2.1634E-01
521.23	2.1862E-01
521.58	2.1796E-01
521.92	2.1971E-01
522.26	2.2092E-01
522.61	2.1741E-01
522.95	2.1899E-01
523.29	2.1587E-01
523.64	2.1607E-01
523.98	2.1695E-01
524.32	2.1779E-01
524.66	2.1979E-01
525.01	2.1952E-01
525.35	2.2059E-01
525.69	2.2103E-01
526.04	2.2015E-01
526.38	2.1708E-01
526.72	2.2140E-01
527.06	2.2007E-01
527.41	2.2196E-01
527.75	2.2376E-01
528.09	2.2230E-01
528.43	2.2546E-01
528.78	2.2281E-01
529.12	2.2504E-01
529.46	2.2681E-01
529.80	2.2614E-01
530.15	2.2678E-01
530.49	2.2682E-01
530.83	2.2781E-01
531.17	2.2802E-01
531.51	2.2703E-01
531.86	2.2910E-01
532.20	2.3028E-01
532.54	2.2967E-01
532.88	2.3155E-01
533.22	2.3343E-01
533.57	2.3432E-01
533.91	2.3363E-01
534.25	2.3562E-01
534.59	2.3451E-01
534.93	2.3655E-01
535.27	2.3550E-01
535.62	2.3999E-01
535.96	2.3900E-01
536.30	2.3933E-01
536.64	2.4000E-01
536.98	2.4196E-01
537.32	2.4106E-01
537.66	2.4105E-01
538.01	2.4365E-01
538.35	2.4566E-01
538.69	2.4247E-01
539.03	2.4857E-01
539.37	2.4592E-01
539.71	2.4790E-01
540.05	2.4831E-01
540.39	2.4916E-01
540.73	2.4813E-01
541.07	2.4877E-01
541.42	2.4946E-01
541.76	2.4989E-01
542.10	2.5096E-01
542.44	2.5186E-01
542.78	2.5201E-01
543.12	2.5158E-01
543.46	2.5706E-01
543.80	2.5369E-01
544.14	2.5382E-01
544.48	2.5286E-01
544.82	2.5544E-01
545.16	2.5487E-01
545.50	2.5389E-01
545.84	2.5679E-01
546.18	2.5510E-01
546.52	2.5824E-01
546.86	2.5593E-01
547.20	2.5943E-01
547.54	2.6248E-01
547.88	2.5794E-01
548.22	2.5837E-01
548.56	2.5992E-01
548.90	2.5814E-01
549.24	2.6031E-01
549.58	2.6115E-01
549.92	2.5936E-01
550.26	2.6372E-01
550.60	2.6005E-01
550.94	2.5866E-01
551.28	2.6244E-01
551.62	2.6056E-01
551.96	2.6255E-01
552.30	2.6405E-01
552.64	2.6303E-01
552.98	2.6307E-01
553.32	2.6349E-01
553.66	2.6214E-01
554.00	2.6299E-01
554.34	2.6339E-01
554.68	2.6467E-01
555.02	2.6492E-01
555.36	2.6610E-01
555.69	2.6488E-01
556.03	2.6450E-01
556.37	2.6606E-01
556.71	2.6345E-01
557.05	2.6318E-01
557.39	2.6391E-01
557.73	2.6428E-01
558.07	2.6613E-01
558.41	2.6499E-01
558.75	2.6548E-01
559.08	2.6555E-01
559.42	2.6311E-01
559.76	2.6717E-01
560.10	2.6682E-01
560.44	2.6672E-01
560.78	2.6409E-01
561.12	2.6586E-01
561.45	2.6535E-01
561.79	2.6649E-01
562.13	2.6656E-01
562.47	2.6666E-01
562.81	2.6700E-01
563.15	2.6693E-01
563.48	2.6732E-01
563.82	2.6425E-01
564.16	2.6654E-01
564.50	2.6677E-01
564.84	2.6751E-01
565.17	2.6740E-01
565.51	2.6676E-01
565.85	2.6878E-01
566.19	2.6554E-01
566.52	2.6909E-01
566.86	2.6629E-01
567.20	2.6887E-01
567.54	2.6790E-01
567.88	2.6857E-01
568.21	2.6845E-01
568.55	2.6977E-01
568.89	2.6990E-01
569.23	2.6949E-01
569.56	2.6897E-01
569.90	2.7006E-01
570.24	2.7192E-01
570.57	2.7197E-01
570.91	2.7255E-01
571.25	2.6882E-01
571.59	2.7196E-01
571.92	2.7148E-01
572.26	2.7261E-01
572.60	2.7483E-01
572.93	2.7339E-01
573.27	2.7607E-01
573.61	2.7675E-01
573.95	2.7246E-01
574.28	2.7682E-01
574.62	2.7703E-01
574.96	2.7731E-01
575.29	2.7658E-01
575.63	2.8131E-01
575.97	2.8029E-01
576.30	2.8674E-01
576.64	2.8311E-01
576.98	2.8268E-01
577.31	2.8423E-01
577.65	2.8713E-01
577.98	2.8500E-01
578.32	2.8731E-01
578.66	2.8895E-01
578.99	2.8941E-01
579.33	2.9044E-01
579.67	2.8844E-01
580.00	2.9239E-01
580.34	2.9151E-01
580.67	2.9325E-01
581.01	2.9569E-01
581.35	2.9671E-01
581.68	2.9799E-01
582.02	2.9687E-01
582.35	2.9902E-01
582.69	2.9911E-01
583.02	3.0345E-01
583.36	3.0061E-01
583.70	3.0008E-01
584.03	3.0216E-01
584.37	3.0061E-01
584.70	3.0697E-01
585.04	3.0700E-01
585.37	3.0508E-01
585.71	3.0975E-01
586.04	3.0933E-01
586.38	3.0663E-01
586.72	3.1071E-01
587.05	3.1244E-01
587.39	3.1344E-01
587.72	3.1157E-01
588.06	3.1430E-01
588.39	3.1394E-01
588.73	3.1719E-01
589.06	3.1502E-01
589.40	3.1973E-01
589.73	3.2123E-01
590.07	3.2221E-01
590.40	3.2222E-01
590.73	3.2609E-01
591.07	3.2281E-01
591.40	3.2944E-01
591.74	3.2231E-01
592.07	3.2669E-01
592.41	3.2825E-01
592.74	3.2922E-01
593.08	3.2710E-01
593.41	3.2960E-01
593.75	3.2720E-01
594.08	3.3212E-01
594.41	3.3085E-01
594.75	3.3188E-01
595.08	3.3143E-01
595.42	3.2765E-01
595.75	3.3293E-01
596.09	3.3287E-01
596.42	3.3142E-01
596.75	3.3507E-01
597.09	3.3707E-01
597.42	3.3402E-01
597.75	3.3771E-01
598.09	3.3856E-01
598.42	3.3593E-01
598.76	3.3791E-01
599.09	3.4253E-01
599.42	3.4219E-01
599.76	3.4060E-01
600.09	3.3960E-01
600.42	3.4489E-01
600.76	3.3790E-01
601.09	3.4233E-01
601.42	3.4578E-01
601.76	3.4148E-01
602.09	3.4089E-01
602.42	3.4302E-01
602.76	3.4196E-01
603.09	3.4093E-01
603.42	3.4704E-01
603.76	3.4323E-01
604.09	3.4346E-01
604.42	3.4613E-01
604.76	3.4324E-01
605.09	3.4872E-01
605.42	3.4526E-01
605.75	3.4697E-01
606.09	3.4519E-01
606.42	3.4654E-01
606.75	3.4782E-01
607.09	3.4849E-01
607.42	3.4870E-01
607.75	3.4905E-01
608.08	3.4831E-01
608.42	3.5122E-01
608.75	3.4742E-01
609.08	3.5164E-01
609.41	3.5099E-01
609.75	3.4909E-01
610.08	3.5076E-01
610.41	3.5324E-01
610.74	3.5203E-01
611.07	3.5237E-01
611.41	3.5164E-01
611.74	3.5282E-01
612.07	3.5500E-01
612.40	3.4979E-01
612.73	3.5328E-01
613.07	3.5539E-01
613.40	3.5150E-01
613.73	3.5049E-01
614.06	3.5368E-01
614.39	3.5460E-01
614.72	3.5565E-01
615.06	3.5551E-01
615.39	3.6017E-01
615.72	3.5423E-01
616.05	3.5795E-01
616.38	3.5841E-01
616.71	3.5924E-01
617.05	3.5702E-01
617.38	3.5885E-01
617.71	3.5679E-01
618.04	3.5890E-01
618.37	3.5667E-01
618.70	3.5763E-01
619.03	3.5913E-01
619.36	3.5386E-01
619.69	3.6101E-01
620.03	3.5732E-01
620.36	3.5793E-01
620.69	3.5591E-01
621.02	3.5921E-01
621.35	3.5813E-01
621.68	3.5531E-01
622.01	3.5439E-01
622.34	3.5611E-01
622.67	3.5530E-01
623.00	3.5639E-01
623.33	3.5711E-01
623.66	3.5477E-01
623.99	3.5560E-01
624.32	3.5457E-01
624.65	3.5569E-01
624.99	3.5537E-01
625.32	3.5656E-01
625.65	3.5602E-01
625.98	3.5106E-01
626.31	3.5562E-01
626.64	3.5612E-01
626.97	3.5644E-01
627.30	3.5376E-01
627.63	3.5565E-01
627.96	3.5270E-01
628.29	3.5249E-01
628.62	3.5597E-01
628.95	3.5574E-01
629.28	3.5024E-01
629.61	3.6097E-01
629.94	3.5595E-01
630.26	3.5662E-01
630.59	3.5899E-01
630.92	3.5659E-01
631.25	3.5814E-01
631.58	3.6219E-01
631.91	3.5718E-01
632.24	3.6471E-01
632.57	3.6109E-01
632.90	3.6172E-01
633.23	3.6205E-01
633.56	3.6417E-01
633.89	3.6470E-01
634.22	3.6630E-01
634.55	3.6704E-01
634.88	3.7119E-01
635.20	3.7031E-01
635.53	3.7305E-01
635.86	3.7313E-01
636.19	3.7774E-01
636.52	3.7883E-01
636.85	3.7560E-01
637.18	3.7987E-01
637.51	3.7708E-01
637.83	3.8109E-01
638.16	3.7773E-01
638.49	3.8882E-01
638.82	3.8719E-01
639.15	3.9002E-01
639.48	3.9272E-01
639.81	3.9470E-01
640.13	3.9124E-01
640.46	3.9674E-01
640.79	3.9698E-01
641.12	4.0057E-01
641.45	4.0019E-01
641.77	3.9741E-01
642.10	4.0674E-01
642.43	4.0761E-01
642.76	4.0940E-01
643.09	4.0717E-01
643.41	4.1026E-01
643.74	4.1065E-01
644.07	4.1043E-01
644.40	4.1404E-01
644.73	4.1856E-01
645.05	4.1991E-01
645.38	4.2285E-01
645.71	4.2391E-01
646.04	4.2447E-01
646.36	4.2345E-01
646.69	4.2985E-01
647.02	4.3008E-01
647.35	4.2753E-01
647.67	4.3317E-01
648.00	4.3171E-01
648.33	4.3713E-01
648.66	4.3464E-01
648.98	4.4095E-01
649.31	4.3968E-01
649.64	4.4100E-01
649.96	4.4562E-01
650.29	4.4809E-01
650.62	4.4833E-01
650.94	4.4757E-01
651.27	4.4725E-01
651.60	4.4861E-01
651.92	4.5642E-01
652.25	4.5718E-01
652.58	4.5668E-01
652.90	4.5884E-01
653.23	4.5842E-01
653.56	4.6009E-01
653.88	4.6182E-01
654.21	4.6221E-01
654.54	4.6406E-01
654.86	4.7035E-01
655.19	4.6419E-01
655.52	4.7176E-01
655.84	4.7052E-01
656.17	4.7316E-01
656.49	4.7872E-01
656.82	4.7286E-01
657.15	4.7819E-01
657.47	4.7795E-01
657.80	4.7869E-01
658.13	4.8039E-01
658.45	4.8324E-01
658.78	4.8185E-01
659.10	4.8828E-01
659.43	4.8743E-01
659.75	4.8639E-01
660.08	4.8450E-01
660.41	4.9049E-01
660.73	4.9137E-01
661.06	4.9519E-01
661.38	4.9332E-01
661.71	4.9462E-01
662.03	4.9508E-01
662.36	5.0177E-01
662.68	5.0015E-01
663.01	4.9420E-01
663.33	4.9900E-01
663.66	5.0248E-01
663.98	4.9974E-01
664.31	5.0012E-01
664.63	5.1013E-01
664.96	5.0677E-01
665.28	5.1056E-01
665.61	5.0952E-01
665.93	5.1054E-01
666.26	5.1279E-01
666.58	5.1369E-01
666.91	5.1029E-01
667.23	5.1588E-01
667.56	5.0969E-01
667.88	5.1811E-01
668.21	5.1714E-01
668.53	5.1537E-01
668.86	5.2540E-01
669.18	5.1796E-01
669.50	5.2896E-01
669.83	5.2762E-01
670.15	5.2882E-01
670.48	5.2791E-01
670.80	5.2575E-01
671.13	5.2357E-01
671.45	5.2988E-01
671.77	5.3275E-01
672.10	5.2918E-01
672.42	5.3663E-01
672.75	5.3366E-01
673.07	5.3798E-01
673.39	5.3295E-01
673.72	5.3649E-01
674.04	5.4053E-01
674.37	5.4451E-01
674.69	5.4077E-01
675.01	5.4489E-01
675.34	5.4686E-01
675.66	5.4773E-01
675.98	5.4247E-01
676.31	5.5112E-01
676.63	5.5248E-01
676.95	5.4956E-01
677.28	5.5347E-01
677.60	5.5409E-01
677.92	5.5206E-01
678.25	5.5782E-01
678.57	5.5881E-01
678.89	5.5749E-01
679.22	5.6625E-01
679.54	5.6337E-01
679.86	5.6332E-01
680.18	5.6527E-01
680.51	5.6751E-01
680.83	5.7257E-01
681.15	5.6642E-01
681.48	5.7084E-01
681.80	5.7447E-01
682.12	5.7083E-01
682.44	5.8078E-01
682.77	5.8045E-01
683.09	5.8414E-01
683.41	5.8131E-01
683.73	5.8728E-01
684.06	5.8654E-01
684.38	5.8837E-01
684.70	5.8631E-01
685.02	5.9258E-01
685.34	5.9890E-01
685.67	5.9379E-01
685.99	6.0126E-01
686.31	5.9619E-01
686.63	6.0616E-01
686.96	6.0290E-01
687.28	6.1059E-01
687.60	6.0186E-01
687.92	6.0867E-01
688.24	6.1505E-01
688.56	6.1638E-01
688.89	6.1809E-01
689.21	6.1477E-01
689.53	6.1835E-01
689.85	6.2737E-01
690.17	6.2260E-01
690.49	6.3283E-01
690.82	6.3277E-01
691.14	6.3235E-01
691.46	6.3600E-01
691.78	6.3958E-01
692.10	6.3294E-01
692.42	6.4005E-01
692.74	6.4502E-01
693.06	6.4602E-01
693.39	6.5749E-01
693.71	6.5871E-01
694.03	6.5887E-01
694.35	6.6079E-01
694.67	6.6218E-01
694.99	6.6873E-01
695.31	6.7070E-01
695.63	6.7008E-01
695.95	6.7585E-01
696.27	6.7383E-01
696.59	6.8009E-01
696.91	6.8926E-01
697.23	6.8808E-01
697.56	6.8669E-01
697.88	6.9444E-01
698.20	6.9256E-01
698.52	6.9985E-01
698.84	7.0574E-01
699.16	7.1019E-01
699.48	7.0331E-01
699.80	7.1281E-01
700.12	7.1917E-01
700.44	7.2046E-01
700.76	7.2202E-01
701.08	7.2648E-01
701.40	7.2927E-01
701.72	7.3763E-01
702.04	7.3630E-01
702.36	7.4319E-01
702.68	7.4568E-01
703.00	7.5191E-01
703.32	7.5563E-01
703.64	7.5616E-01
703.96	7.4832E-01
704.28	7.6073E-01
704.60	7.6971E-01
704.91	7.7132E-01
705.23	7.7257E-01
705.55	7.8104E-01
705.87	7.7595E-01
706.19	7.7869E-01
706.51	7.8403E-01
706.83	7.8761E-01
707.15	8.0869E-01
707.47	7.9154E-01
707.79	8.0661E-01
708.11	8.0809E-01
708.43	8.1162E-01
708.74	8.1889E-01
709.06	8.3007E-01
709.38	8.2439E-01
709.70	8.1993E-01
710.02	8.3134E-01
710.34	8.2802E-01
710.66	8.4941E-01
710.98	8.4415E-01
711.29	8.4381E-01
711.61	8.5913E-01
711.93	8.6425E-01
712.25	8.5628E-01
712.57	8.6844E-01
712.89	8.7118E-01
713.20	8.7241E-01
713.52	8.8183E-01
713.84	8.8979E-01
714.16	8.8240E-01
714.48	8.8470E-01
714.80	8.9898E-01
715.11	8.9718E-01
715.43	9.1001E-01
715.75	9.1540E-01
716.07	9.2529E-01
716.39	9.0854E-01
716.70	9.1939E-01
717.02	9.1483E-01
717.34	9.4146E-01
717.66	9.3231E-01
717.97	9.4369E-01
718.29	9.4883E-01
718.61	9.6043E-01
718.93	9.6041E-01
719.24	9.6356E-01
719.56	9.8531E-01
719.88	9.7569E-01
720.20	9.8831E-01
720.51	1.0006E00
720.83	9.9715E-01
721.15	1.0180E00
721.46	1.0139E00
721.78	1.0198E00
722.10	1.0341E00
722.42	1.0446E00
722.73	1.0508E00
723.05	1.0378E00
723.37	1.0520E00
723.68	1.0631E00
724.00	1.0626E00
724.32	1.0823E00
724.63	1.0789E00
724.95	1.0739E00
725.27	1.0841E00
725.58	1.0906E00
725.90	1.0912E00
726.22	1.1084E00
726.53	1.0853E00
726.85	1.1011E00
727.16	1.1232E00
727.48	1.1039E00
727.80	1.1166E00
728.11	1.1211E00
728.43	1.1174E00
728.74	1.1126E00
729.06	1.1345E00
729.38	1.1306E00
729.69	1.1349E00
730.01	1.1429E00
730.32	1.1511E00
730.64	1.1503E00
730.96	1.1386E00
731.27	1.1699E00
731.59	1.1421E00
731.90	1.1564E00
732.22	1.1661E00
732.53	1.1647E00
732.85	1.1789E00
733.16	1.1734E00
733.48	1.1817E00
733.80	1.1753E00
734.11	1.1967E00
734.43	1.1960E00
734.74	1.1922E00
735.06	1.2085E00
735.37	1.2184E00
735.69	1.2032E00
736.00	1.2182E00
736.32	1.2198E00
736.63	1.2263E00
736.95	1.2259E00
737.26	1.2467E00
737.58	1.2473E00
737.89	1.2561E00
738.21	1.2434E00
738.52	1.2509E00
738.83	1.2552E00
739.15	1.2540E00
739.46	1.2723E00
739.78	1.2683E00
740.09	1.2840E00
740.41	1.2767E00
740.72	1.2724E00
741.04	1.2731E00
741.35	1.2744E00
741.66	1.2965E00
741.98	1.2886E00
742.29	1.2945E00
742.61	1.2880E00
742.92	1.2941E00
743.23	1.2947E00
743.55	1.3017E00
743.86	1.2919E00
744.18	1.2998E00
744.49	1.3005E00
744.80	1.2999E00
745.12	1.3013E00
745.43	1.3059E00
745.74	1.3055E00
746.06	1.2953E00
746.37	1.2939E00
746.68	1.3049E00
747.00	1.3023E00
747.31	1.2909E00
747.62	1.2824E00
747.94	1.3045E00
748.25	1.3058E00
748.56	1.3049E00
748.88	1.2867E00
749.19	1.2974E00
749.50	1.3022E00
749.82	1.2928E00
750.13	1.3014E00
750.44	1.3022E00
750.75	1.2858E00
751.07	1.3036E00
751.38	1.3120E00
751.69	1.2874E00
752.01	1.3054E00
752.32	1.3029E00
752.63	1.3048E00
752.94	1.3132E00
753.26	1.3193E00
753.57	1.3059E00
753.88	1.3139E00
754.19	1.3152E00
754.51	1.3174E00
754.82	1.3143E00
755.13	1.3298E00
755.44	1.3270E00
755.75	1.3314E00
756.07	1.3313E00
756.38	1.3459E00
756.69	1.3433E00
757.00	1.3511E00
757.31	1.3688E00
757.63	1.3759E00
757.94	1.3780E00
758.25	1.3928E00
758.56	1.3580E00
758.87	1.4054E00
759.18	1.4085E00
759.50	1.4057E00
759.81	1.3993E00
760.12	1.4101E00
760.43	1.4217E00
760.74	1.4160E00
761.05	1.4453E00
761.36	1.4481E00
761.67	1.4592E00
761.99	1.4691E00
762.30	1.4471E00
762.61	1.4829E00
762.92	1.4796E00
763.23	1.4808E00
763.54	1.4974E00
763.85	1.5201E00
764.16	1.5241E00
764.47	1.5444E00
764.78	1.5542E00
765.10	1.5548E00
765.41	1.5560E00
765.72	1.5663E00
766.03	1.6025E00
766.34	1.6145E00
766.65	1.6249E00
766.96	1.6551E00
767.27	1.6436E00
767.58	1.6446E00
767.89	1.6641E00
768.20	1.6888E00
768.51	1.6900E00
768.82	1.6944E00
769.13	1.7260E00
769.44	1.7482E00
769.75	1.7447E00
770.06	1.7510E00
770.37	1.7477E00
770.68	1.7890E00
770.99	1.8033E00
771.30	1.8136E00
771.61	1.8688E00
771.92	1.8285E00
772.23	1.8518E00
772.54	1.8924E00
772.85	1.8738E00
773.16	1.8924E00
773.47	1.9504E00
773.78	1.9366E00
774.09	1.9674E00
774.39	1.9688E00
774.70	1.9761E00
775.01	2.0173E00
775.32	2.0247E00
775.63	2.0480E00
775.94	2.0691E00
776.25	2.0565E00
776.56	2.0772E00
776.87	2.1294E00
777.18	2.1231E00
777.48	2.1452E00
777.79	2.1654E00
778.10	2.1840E00
778.41	2.2012E00
778.72	2.2255E00
779.03	2.2350E00
779.34	2.2850E00
779.65	2.2852E00
779.95	2.3285E00
780.26	2.3081E00
780.57	2.3482E00
780.88	2.3426E00
781.19	2.3850E00
781.50	2.3864E00
781.80	2.4085E00
782.11	2.4152E00
782.42	2.4735E00
782.73	2.4246E00
783.04	2.5208E00
783.34	2.5200E00
783.65	2.5406E00
783.96	2.5493E00
784.27	2.5641E00
784.57	2.5856E00
784.88	2.6132E00
785.19	2.6289E00
785.50	2.6568E00
785.81	2.6902E00
786.11	2.6528E00
786.42	2.6839E00
786.73	2.7140E00
787.04	2.7461E00
787.34	2.7948E00
787.65	2.8083E00
787.96	2.8733E00
788.26	2.8504E00
788.57	2.9078E00
788.88	2.8740E00
789.19	2.9639E00
789.49	2.9347E00
789.80	2.9902E00
790.11	2.9955E00
790.41	3.0273E00
790.72	3.0554E00
791.03	3.0743E00
791.33	3.1028E00
791.64	3.1740E00
791.95	3.1169E00
792.25	3.2149E00
792.56	3.1838E00
792.87	3.2348E00
793.17	3.2543E00
793.48	3.2697E00
793.79	3.3018E00
794.09	3.3647E00
794.40	3.3153E00
794.70	3.3278E00
795.01	3.3402E00
795.32	3.3873E00
795.62	3.4522E00
795.93	3.4612E00
796.23	3.4696E00
796.54	3.5169E00
796.85	3.5031E00
797.15	3.5485E00
797.46	3.5762E00
797.76	3.6682E00
798.07	3.6506E00
798.37	3.6601E00
798.68	3.7167E00
798.99	3.7140E00
799.29	3.7538E00
799.60	3.8171E00
799.90	3.8157E00
800.21	3.8724E00
800.51	3.9055E00
800.82	3.8971E00
801.12	3.9681E00
801.43	3.9588E00
801.73	4.0423E00
802.04	4.0312E00
802.34	4.0305E00
802.65	4.0745E00
802.95	4.2123E00
803.26	4.1816E00
803.56	4.1080E00
803.87	4.1790E00
804.17	4.2012E00
804.48	4.1990E00
804.78	4.2806E00
805.09	4.3496E00
805.39	4.3251E00
805.70	4.3490E00
806.00	4.4114E00
806.30	4.4085E00
806.61	4.4769E00
806.91	4.5036E00
807.22	4.5426E00
807.52	4.5687E00
807.83	4.5865E00
808.13	4.6440E00
808.43	4.5516E00
808.74	4.6797E00
809.04	4.7223E00
809.35	4.6964E00
809.65	4.8062E00
809.95	4.8340E00
810.26	4.8935E00
810.56	4.9063E00
810.86	4.9743E00
811.17	5.0110E00
811.47	5.0069E00
811.77	5.0061E00
812.08	4.9998E00
812.38	5.1546E00
812.69	5.0533E00
812.99	5.2243E00
813.29	5.2542E00
813.59	5.3120E00
813.90	5.3427E00
814.20	5.3612E00
814.50	5.4432E00
814.81	4.9567E00
815.11	4.4260E00
815.41	4.1551E00
815.72	4.0792E00
816.02	4.0168E00
816.32	3.8658E00
816.62	3.8152E00
816.93	3.8173E00
817.23	3.9095E00
817.53	3.9087E00
817.84	3.8591E00
818.14	3.8533E00
818.44	3.8761E00
818.74	4.0960E00
819.04	4.0578E00
819.35	4.0229E00
819.65	4.1135E00
819.95	4.1230E00
820.25	4.2674E00
820.56	4.5003E00
820.86	4.6911E00
821.16	4.8784E00
821.46	4.8750E00
821.76	4.8921E00
822.07	4.8422E00
822.37	4.6151E00
822.67	4.4867E00
822.97	4.0883E00
823.27	3.7827E00
823.57	3.7488E00
823.88	3.8504E00
824.18	3.9939E00
824.48	4.1840E00
824.78	4.2656E00
825.08	4.5321E00
825.38	4.6745E00
825.69	4.6127E00
825.99	4.7021E00
826.29	4.7752E00
826.59	4.6801E00
826.89	4.7787E00
827.19	4.8498E00
827.49	4.7756E00
827.79	4.5007E00
828.09	4.2973E00
828.39	4.3137E00
828.70	4.3100E00
829.00	4.2818E00
829.30	4.2386E00
829.60	4.1962E00
829.90	4.1955E00
830.20	4.0753E00
830.50	4.1765E00
830.80	4.2306E00
831.10	4.1457E00
831.40	4.2925E00
831.70	4.2092E00
832.00	4.1974E00
832.30	4.1285E00
832.60	4.1520E00
832.90	4.1372E00
833.20	4.2393E00
833.50	4.1477E00
833.80	4.0880E00
834.10	4.0998E00
834.40	4.1496E00
834.70	4.2841E00
835.00	4.2166E00
835.30	4.3043E00
835.60	4.2993E00
835.90	4.3379E00
836.20	4.4197E00
836.50	4.4508E00
836.80	4.5969E00
837.10	4.8039E00
837.40	4.6028E00
837.70	4.5753E00
838.00	4.4758E00
838.30	4.5029E00
838.60	4.5868E00
838.90	4.5983E00
839.19	4.7643E00
839.49	4.6600E00
839.79	4.7285E00
840.09	4.6717E00
840.39	4.7145E00
840.69	4.7813E00
840.99	4.8778E00
841.29	4.8728E00
841.59	4.6714E00
841.88	4.7187E00
842.18	4.8092E00
842.48	4.8181E00
842.78	4.7767E00
843.08	4.8392E00
843.38	4.6897E00
843.68	4.8896E00
843.97	4.9078E00
844.27	4.8105E00
844.57	4.8537E00
844.87	4.8570E00
845.17	4.8003E00
845.47	4.7020E00
845.76	4.8444E00
846.06	4.9552E00
846.36	5.2582E00
846.66	4.9612E00
846.96	4.9095E00
847.25	4.8094E00
847.55	4.8324E00
847.85	4.9543E00
848.15	4.8582E00
848.44	4.9197E00
848.74	4.7366E00
849.04	4.7713E00
849.34	4.8563E00
849.63	4.8287E00
849.93	4.7206E00
850.23	4.6901E00
850.53	4.5559E00
850.82	4.5706E00
851.12	4.4837E00
851.42	4.5591E00
851.71	4.6037E00
852.01	4.5881E00
852.31	4.6802E00
852.61	4.6164E00
852.90	4.6601E00
853.20	4.7323E00
853.50	4.9572E00
853.79	4.9170E00
854.09	4.5044E00
854.39	4.4488E00
854.68	4.4800E00
854.98	4.2882E00
855.28	4.2390E00
855.57	4.4468E00
855.87	4.3707E00
856.17	4.4433E00
856.46	4.2736E00
856.76	4.3545E00
857.05	4.6044E00
857.35	4.5506E00
857.65	4.7647E00
857.94	4.7289E00
858.24	4.7919E00
858.53	4.7685E00
858.83	5.0408E00
859.13	4.7940E00
859.42	4.7157E00
859.72	4.8422E00
860.01	4.8995E00
860.31	4.7430E00
860.60	4.7867E00
860.90	4.9115E00
861.20	4.8111E00
861.49	4.6814E00
861.79	4.8800E00
862.08	5.6450E00
862.38	5.0875E00
862.67	4.8124E00
862.97	4.8578E00
863.26	4.7867E00
863.56	5.0706E00
863.85	5.1209E00
864.15	4.7559E00
864.44	4.9573E00
864.74	4.8494E00
865.03	5.0035E00
865.33	4.9305E00
865.62	4.8386E00
865.92	4.6869E00
866.21	4.9420E00
866.51	4.8023E00
866.80	4.8949E00
867.10	4.9559E00
867.39	4.5996E00
867.69	4.8611E00
867.98	4.3937E00
868.27	4.4381E00
868.57	4.4899E00
868.86	4.8668E00
869.16	4.6750E00
869.45	4.6270E00
869.75	4.5420E00
870.04	4.7150E00
870.33	4.9169E00
870.63	4.7238E00
870.92	4.9799E00
871.22	5.6816E00
871.51	4.7990E00
871.80	4.8898E00
872.10	4.8898E00
>>>>>End Processed Spectral Data<<<<<
