SpectraSuite Data File
++++++++++++++++++++++++++++++++++++
Date: Tue May 12 10:27:49 PDT 2015
User: schluterlab
Dark Spectrum Present: Yes
Reference Spectrum Present: No
Number of Sampled Component Spectra: 1
Spectrometers: USB2E3373
Integration Time (usec): 2000000 (USB2E3373)
Spectra Averaged: 3 (USB2E3373)
Boxcar Smoothing: 0 (USB2E3373)
Correct for Electrical Dark: No (USB2E3373)
Strobe/Lamp Enabled: No (USB2E3373)
Correct for Detector Non-linearity: No (USB2E3373)
Correct for Stray Light: No (USB2E3373)
Number of Pixels in Processed Spectrum: 2048
>>>>>Begin Processed Spectral Data<<<<<
178.53	0.0000E00
178.91	0.0000E00
179.29	0.0000E00
179.67	0.0000E00
180.04	0.0000E00
180.42	0.0000E00
180.80	0.0000E00
181.18	0.0000E00
181.56	0.0000E00
181.94	0.0000E00
182.31	0.0000E00
182.69	0.0000E00
183.07	0.0000E00
183.45	0.0000E00
183.83	0.0000E00
184.20	0.0000E00
184.58	0.0000E00
184.96	0.0000E00
185.34	0.0000E00
185.72	0.0000E00
186.09	0.0000E00
186.47	0.0000E00
186.85	0.0000E00
187.23	0.0000E00
187.61	0.0000E00
187.98	0.0000E00
188.36	0.0000E00
188.74	0.0000E00
189.12	0.0000E00
189.49	0.0000E00
189.87	0.0000E00
190.25	0.0000E00
190.63	0.0000E00
191.00	0.0000E00
191.38	0.0000E00
191.76	0.0000E00
192.14	0.0000E00
192.51	0.0000E00
192.89	0.0000E00
193.27	0.0000E00
193.65	0.0000E00
194.02	0.0000E00
194.40	0.0000E00
194.78	0.0000E00
195.15	0.0000E00
195.53	-0.0000E00
195.91	0.0000E00
196.29	0.0000E00
196.66	0.0000E00
197.04	0.0000E00
197.42	0.0000E00
197.79	0.0000E00
198.17	0.0000E00
198.55	0.0000E00
198.92	0.0000E00
199.30	0.0000E00
199.68	0.0000E00
200.05	0.0000E00
200.43	0.0000E00
200.81	0.0000E00
201.18	0.0000E00
201.56	0.0000E00
201.94	0.0000E00
202.31	-0.0000E00
202.69	0.0000E00
203.07	0.0000E00
203.44	0.0000E00
203.82	0.0000E00
204.19	0.0000E00
204.57	0.0000E00
204.95	0.0000E00
205.32	0.0000E00
205.70	0.0000E00
206.08	0.0000E00
206.45	0.0000E00
206.83	0.0000E00
207.20	0.0000E00
207.58	0.0000E00
207.96	0.0000E00
208.33	0.0000E00
208.71	0.0000E00
209.08	0.0000E00
209.46	0.0000E00
209.84	0.0000E00
210.21	0.0000E00
210.59	0.0000E00
210.96	0.0000E00
211.34	0.0000E00
211.71	0.0000E00
212.09	0.0000E00
212.46	0.0000E00
212.84	0.0000E00
213.22	0.0000E00
213.59	0.0000E00
213.97	0.0000E00
214.34	0.0000E00
214.72	0.0000E00
215.09	0.0000E00
215.47	0.0000E00
215.84	0.0000E00
216.22	0.0000E00
216.59	0.0000E00
216.97	0.0000E00
217.34	0.0000E00
217.72	0.0000E00
218.09	0.0000E00
218.47	0.0000E00
218.84	0.0000E00
219.22	0.0000E00
219.59	0.0000E00
219.97	0.0000E00
220.34	0.0000E00
220.72	0.0000E00
221.09	0.0000E00
221.47	0.0000E00
221.84	0.0000E00
222.22	0.0000E00
222.59	0.0000E00
222.97	0.0000E00
223.34	0.0000E00
223.72	0.0000E00
224.09	0.0000E00
224.46	0.0000E00
224.84	0.0000E00
225.21	0.0000E00
225.59	0.0000E00
225.96	0.0000E00
226.34	0.0000E00
226.71	0.0000E00
227.08	0.0000E00
227.46	0.0000E00
227.83	0.0000E00
228.21	0.0000E00
228.58	0.0000E00
228.95	0.0000E00
229.33	0.0000E00
229.70	0.0000E00
230.08	0.0000E00
230.45	0.0000E00
230.82	0.0000E00
231.20	0.0000E00
231.57	0.0000E00
231.95	0.0000E00
232.32	0.0000E00
232.69	0.0000E00
233.07	0.0000E00
233.44	0.0000E00
233.81	0.0000E00
234.19	0.0000E00
234.56	0.0000E00
234.93	0.0000E00
235.31	0.0000E00
235.68	0.0000E00
236.05	0.0000E00
236.43	0.0000E00
236.80	0.0000E00
237.17	0.0000E00
237.55	0.0000E00
237.92	0.0000E00
238.29	0.0000E00
238.67	0.0000E00
239.04	0.0000E00
239.41	0.0000E00
239.79	0.0000E00
240.16	0.0000E00
240.53	0.0000E00
240.91	0.0000E00
241.28	0.0000E00
241.65	0.0000E00
242.02	0.0000E00
242.40	0.0000E00
242.77	0.0000E00
243.14	0.0000E00
243.51	0.0000E00
243.89	0.0000E00
244.26	0.0000E00
244.63	0.0000E00
245.00	0.0000E00
245.38	0.0000E00
245.75	0.0000E00
246.12	0.0000E00
246.49	0.0000E00
246.87	0.0000E00
247.24	0.0000E00
247.61	0.0000E00
247.98	0.0000E00
248.36	0.0000E00
248.73	0.0000E00
249.10	0.0000E00
249.47	0.0000E00
249.84	0.0000E00
250.22	0.0000E00
250.59	0.0000E00
250.96	0.0000E00
251.33	0.0000E00
251.70	0.0000E00
252.08	0.0000E00
252.45	0.0000E00
252.82	0.0000E00
253.19	0.0000E00
253.56	0.0000E00
253.94	0.0000E00
254.31	0.0000E00
254.68	0.0000E00
255.05	0.0000E00
255.42	0.0000E00
255.79	0.0000E00
256.16	0.0000E00
256.54	0.0000E00
256.91	0.0000E00
257.28	0.0000E00
257.65	0.0000E00
258.02	0.0000E00
258.39	0.0000E00
258.76	0.0000E00
259.14	0.0000E00
259.51	0.0000E00
259.88	0.0000E00
260.25	0.0000E00
260.62	0.0000E00
260.99	0.0000E00
261.36	0.0000E00
261.73	0.0000E00
262.10	0.0000E00
262.47	0.0000E00
262.85	0.0000E00
263.22	0.0000E00
263.59	0.0000E00
263.96	0.0000E00
264.33	0.0000E00
264.70	0.0000E00
265.07	0.0000E00
265.44	0.0000E00
265.81	0.0000E00
266.18	0.0000E00
266.55	0.0000E00
266.92	0.0000E00
267.29	0.0000E00
267.66	0.0000E00
268.03	0.0000E00
268.40	0.0000E00
268.77	0.0000E00
269.14	0.0000E00
269.51	0.0000E00
269.88	0.0000E00
270.25	0.0000E00
270.62	0.0000E00
270.99	0.0000E00
271.36	0.0000E00
271.73	0.0000E00
272.10	0.0000E00
272.47	0.0000E00
272.84	0.0000E00
273.21	0.0000E00
273.58	0.0000E00
273.95	0.0000E00
274.32	0.0000E00
274.69	0.0000E00
275.06	0.0000E00
275.43	0.0000E00
275.80	0.0000E00
276.17	0.0000E00
276.54	0.0000E00
276.91	0.0000E00
277.28	0.0000E00
277.65	0.0000E00
278.02	0.0000E00
278.39	0.0000E00
278.76	0.0000E00
279.13	0.0000E00
279.50	0.0000E00
279.87	0.0000E00
280.23	0.0000E00
280.60	0.0000E00
280.97	0.0000E00
281.34	0.0000E00
281.71	0.0000E00
282.08	0.0000E00
282.45	0.0000E00
282.82	0.0000E00
283.19	0.0000E00
283.56	0.0000E00
283.92	0.0000E00
284.29	0.0000E00
284.66	0.0000E00
285.03	0.0000E00
285.40	0.0000E00
285.77	0.0000E00
286.14	0.0000E00
286.51	0.0000E00
286.87	0.0000E00
287.24	0.0000E00
287.61	0.0000E00
287.98	0.0000E00
288.35	0.0000E00
288.72	0.0000E00
289.08	0.0000E00
289.45	0.0000E00
289.82	0.0000E00
290.19	0.0000E00
290.56	0.0000E00
290.93	0.0000E00
291.29	0.0000E00
291.66	0.0000E00
292.03	0.0000E00
292.40	0.0000E00
292.77	0.0000E00
293.13	0.0000E00
293.50	0.0000E00
293.87	0.0000E00
294.24	0.0000E00
294.60	0.0000E00
294.97	0.0000E00
295.34	0.0000E00
295.71	0.0000E00
296.08	0.0000E00
296.44	0.0000E00
296.81	0.0000E00
297.18	0.0000E00
297.55	0.0000E00
297.91	0.0000E00
298.28	0.0000E00
298.65	0.0000E00
299.02	0.0000E00
299.38	0.0000E00
299.75	0.0000E00
300.12	6.5224E-01
300.48	1.6192E00
300.85	6.8240E-01
301.22	1.7859E00
301.59	5.3200E-01
301.95	6.2696E-01
302.32	9.2899E-01
302.69	9.2401E-01
303.05	5.6044E-01
303.42	7.3519E-01
303.79	8.1065E-01
304.15	5.0491E-01
304.52	5.8920E-01
304.89	5.4771E-01
305.25	1.0582E00
305.62	6.7186E-01
305.99	8.0508E-01
306.35	4.7543E-01
306.72	6.3057E-01
307.09	5.2681E-01
307.45	5.2731E-01
307.82	3.7707E-01
308.19	4.6936E-01
308.55	5.2546E-01
308.92	6.1271E-01
309.29	5.1011E-01
309.65	6.2211E-01
310.02	4.5193E-01
310.38	4.5967E-01
310.75	5.8046E-01
311.12	5.3714E-01
311.48	9.0411E-01
311.85	5.8147E-01
312.22	4.0309E-01
312.58	9.1681E-01
312.95	5.5417E-01
313.31	5.2071E-01
313.68	6.6906E-01
314.05	1.0798E00
314.41	5.8878E-01
314.78	3.5487E-01
315.14	6.6898E-01
315.51	1.2295E00
315.87	5.2976E-01
316.24	7.8885E-01
316.61	7.2131E-01
316.97	4.7187E-01
317.34	7.6004E-01
317.70	5.7853E-01
318.07	5.9890E-01
318.43	7.0660E-01
318.80	5.1971E-01
319.16	6.5140E-01
319.53	4.5727E-01
319.89	9.2696E-01
320.26	7.1267E-01
320.62	8.4762E-01
320.99	7.6041E-01
321.35	4.4020E-01
321.72	6.0919E-01
322.08	9.2683E-01
322.45	5.6585E-01
322.81	5.9819E-01
323.18	1.8646E00
323.54	9.7862E-01
323.91	7.4113E-01
324.27	1.4573E00
324.64	1.0839E00
325.00	7.9781E-01
325.37	1.3014E00
325.73	4.8010E-01
326.10	1.7077E00
326.46	7.8077E-01
326.83	6.5799E-01
327.19	1.4011E00
327.56	5.4251E-01
327.92	7.7814E-01
328.29	6.1638E-01
328.65	7.8996E-01
329.01	9.7071E-01
329.38	6.2278E-01
329.74	5.5086E-01
330.11	8.2286E-01
330.47	5.4258E-01
330.84	7.7906E-01
331.20	7.7829E-01
331.56	7.2219E-01
331.93	8.0737E-01
332.29	7.7095E-01
332.66	5.2676E-01
333.02	6.3926E-01
333.38	9.5220E-01
333.75	4.4894E-01
334.11	7.9151E-01
334.48	6.9214E-01
334.84	6.4405E-01
335.20	7.9227E-01
335.57	1.4764E00
335.93	9.7743E-01
336.29	7.6401E-01
336.66	7.2026E-01
337.02	5.3932E-01
337.38	6.3058E-01
337.75	6.2111E-01
338.11	5.2537E-01
338.47	7.3957E-01
338.84	6.2481E-01
339.20	5.1048E-01
339.56	1.5105E00
339.93	5.1334E-01
340.29	5.8676E-01
340.65	6.2533E-01
341.02	1.0449E00
341.38	7.1619E-01
341.74	7.7879E-01
342.11	7.6469E-01
342.47	7.7417E-01
342.83	4.7574E-01
343.20	9.8622E-01
343.56	5.9953E-01
343.92	9.1421E-01
344.28	5.4174E-01
344.65	8.5933E-01
345.01	5.1977E-01
345.37	8.2845E-01
345.73	7.7007E-01
346.10	6.5278E-01
346.46	7.9400E-01
346.82	5.9762E-01
347.19	1.3748E00
347.55	5.6387E-01
347.91	5.8195E-01
348.27	6.4390E-01
348.63	5.6239E-01
349.00	5.7517E-01
349.36	1.1466E00
349.72	7.2995E-01
350.08	1.0757E00
350.45	6.4206E-01
350.81	6.0035E-01
351.17	8.1235E-01
351.53	8.6621E-01
351.89	7.1749E-01
352.26	8.4536E-01
352.62	6.8279E-01
352.98	7.8838E-01
353.34	7.0363E-01
353.70	9.6686E-01
354.07	7.6507E-01
354.43	7.8167E-01
354.79	8.5075E-01
355.15	6.8312E-01
355.51	6.5822E-01
355.87	7.4276E-01
356.24	7.6249E-01
356.60	7.3734E-01
356.96	8.0146E-01
357.32	6.8301E-01
357.68	6.5691E-01
358.04	5.7851E-01
358.40	6.4113E-01
358.77	5.9956E-01
359.13	7.2933E-01
359.49	8.2127E-01
359.85	8.6201E-01
360.21	6.6858E-01
360.57	8.2665E-01
360.93	8.2328E-01
361.29	8.9116E-01
361.66	7.1700E-01
362.02	6.8508E-01
362.38	9.0484E-01
362.74	8.2398E-01
363.10	9.4737E-01
363.46	1.0693E00
363.82	9.1133E-01
364.18	1.1297E00
364.54	1.0867E00
364.90	1.0556E00
365.26	1.0439E00
365.62	1.1977E00
365.98	1.0411E00
366.35	8.3087E-01
366.71	1.0023E00
367.07	1.2817E00
367.43	8.1062E-01
367.79	1.1583E00
368.15	1.0624E00
368.51	1.2597E00
368.87	1.1007E00
369.23	1.1769E00
369.59	9.2522E-01
369.95	1.0032E00
370.31	9.5571E-01
370.67	1.1312E00
371.03	9.5437E-01
371.39	9.3367E-01
371.75	9.4191E-01
372.11	9.7135E-01
372.47	8.9415E-01
372.83	9.0202E-01
373.19	7.5351E-01
373.55	9.8741E-01
373.91	1.0078E00
374.27	1.0878E00
374.63	1.0600E00
374.99	9.6258E-01
375.35	9.2502E-01
375.71	9.4321E-01
376.07	9.5086E-01
376.42	9.4096E-01
376.78	8.5307E-01
377.14	9.6788E-01
377.50	1.0570E00
377.86	8.9938E-01
378.22	8.4856E-01
378.58	8.4951E-01
378.94	8.2403E-01
379.30	8.6534E-01
379.66	8.5321E-01
380.02	8.3470E-01
380.38	8.1118E-01
380.74	8.4992E-01
381.09	8.9139E-01
381.45	8.2190E-01
381.81	7.9580E-01
382.17	8.3821E-01
382.53	8.7213E-01
382.89	7.8045E-01
383.25	8.2066E-01
383.61	8.1207E-01
383.97	7.8715E-01
384.32	7.8505E-01
384.68	7.5024E-01
385.04	8.3272E-01
385.40	8.5716E-01
385.76	8.5401E-01
386.12	8.0335E-01
386.48	8.1642E-01
386.83	7.6165E-01
387.19	7.6012E-01
387.55	8.5018E-01
387.91	8.2178E-01
388.27	7.6876E-01
388.62	8.6371E-01
388.98	7.8315E-01
389.34	8.6915E-01
389.70	7.8893E-01
390.06	8.1368E-01
390.42	8.2056E-01
390.77	8.0085E-01
391.13	8.1726E-01
391.49	8.0185E-01
391.85	8.4587E-01
392.20	7.4791E-01
392.56	7.5760E-01
392.92	7.6840E-01
393.28	7.7142E-01
393.64	8.0635E-01
393.99	8.2115E-01
394.35	8.0719E-01
394.71	7.9807E-01
395.07	7.8144E-01
395.42	7.8448E-01
395.78	7.9908E-01
396.14	7.2116E-01
396.50	7.2456E-01
396.85	7.9595E-01
397.21	7.6625E-01
397.57	7.8706E-01
397.92	7.3614E-01
398.28	7.1265E-01
398.64	8.4739E-01
399.00	6.8326E-01
399.35	7.1104E-01
399.71	7.6249E-01
400.07	7.4405E-01
400.42	7.2666E-01
400.78	7.4439E-01
401.14	7.4854E-01
401.49	6.9375E-01
401.85	6.8948E-01
402.21	7.0021E-01
402.57	6.9606E-01
402.92	7.3430E-01
403.28	6.9829E-01
403.63	6.9462E-01
403.99	7.1128E-01
404.35	6.9035E-01
404.70	6.7711E-01
405.06	6.8797E-01
405.42	7.0330E-01
405.77	6.5346E-01
406.13	6.5382E-01
406.49	6.4917E-01
406.84	6.5696E-01
407.20	6.4090E-01
407.55	6.9183E-01
407.91	7.0415E-01
408.27	6.5944E-01
408.62	6.6350E-01
408.98	6.7173E-01
409.34	6.8344E-01
409.69	6.5431E-01
410.05	6.8934E-01
410.40	6.5827E-01
410.76	6.0876E-01
411.11	6.1413E-01
411.47	6.6578E-01
411.83	6.3120E-01
412.18	6.4370E-01
412.54	6.3054E-01
412.89	6.2627E-01
413.25	6.4930E-01
413.60	6.7798E-01
413.96	6.3630E-01
414.31	6.4013E-01
414.67	6.7564E-01
415.03	6.6288E-01
415.38	6.7896E-01
415.74	6.7054E-01
416.09	6.6629E-01
416.45	6.7470E-01
416.80	6.6160E-01
417.16	6.5622E-01
417.51	6.5253E-01
417.87	6.2852E-01
418.22	6.2070E-01
418.58	6.3466E-01
418.93	6.0754E-01
419.29	6.5119E-01
419.64	6.3210E-01
420.00	5.9724E-01
420.35	5.8669E-01
420.71	6.1606E-01
421.06	6.1840E-01
421.42	6.3401E-01
421.77	6.2497E-01
422.12	6.2336E-01
422.48	5.9061E-01
422.83	6.3048E-01
423.19	5.9583E-01
423.54	5.9628E-01
423.90	6.0376E-01
424.25	5.7002E-01
424.61	6.2823E-01
424.96	5.8806E-01
425.31	5.8477E-01
425.67	5.6103E-01
426.02	5.8556E-01
426.38	5.8484E-01
426.73	5.5372E-01
427.09	5.8037E-01
427.44	5.5568E-01
427.79	5.6193E-01
428.15	5.7931E-01
428.50	5.7540E-01
428.85	5.8988E-01
429.21	5.4378E-01
429.56	5.3212E-01
429.92	5.4262E-01
430.27	5.6058E-01
430.62	5.6016E-01
430.98	5.6711E-01
431.33	5.5379E-01
431.68	5.3535E-01
432.04	5.3160E-01
432.39	5.3960E-01
432.74	5.5939E-01
433.10	5.2411E-01
433.45	5.5450E-01
433.80	5.5145E-01
434.16	5.6367E-01
434.51	5.3738E-01
434.86	5.5869E-01
435.22	5.3866E-01
435.57	5.7609E-01
435.92	5.6483E-01
436.28	5.6178E-01
436.63	5.2128E-01
436.98	5.5700E-01
437.34	5.5329E-01
437.69	5.2614E-01
438.04	5.1212E-01
438.39	5.4782E-01
438.75	5.6066E-01
439.10	5.0619E-01
439.45	5.4991E-01
439.81	5.4391E-01
440.16	5.1154E-01
440.51	5.3428E-01
440.86	5.3265E-01
441.22	5.2040E-01
441.57	5.2512E-01
441.92	5.1009E-01
442.27	5.3495E-01
442.63	5.2383E-01
442.98	5.5950E-01
443.33	5.4833E-01
443.68	5.0976E-01
444.03	4.8076E-01
444.39	4.8330E-01
444.74	5.2421E-01
445.09	5.3243E-01
445.44	5.3325E-01
445.79	4.7076E-01
446.15	5.0564E-01
446.50	5.2295E-01
446.85	4.9162E-01
447.20	4.7837E-01
447.55	5.1676E-01
447.91	4.9740E-01
448.26	5.1026E-01
448.61	5.0558E-01
448.96	4.9498E-01
449.31	5.0277E-01
449.66	5.0720E-01
450.02	4.9952E-01
450.37	5.0051E-01
450.72	4.9326E-01
451.07	5.3152E-01
451.42	5.2891E-01
451.77	4.9988E-01
452.12	4.9917E-01
452.47	5.2201E-01
452.83	4.7977E-01
453.18	5.0788E-01
453.53	5.0184E-01
453.88	4.7297E-01
454.23	4.6674E-01
454.58	4.6680E-01
454.93	5.0147E-01
455.28	4.9848E-01
455.63	4.8385E-01
455.98	4.7268E-01
456.34	4.9796E-01
456.69	4.8276E-01
457.04	4.8697E-01
457.39	4.5632E-01
457.74	4.6594E-01
458.09	4.5357E-01
458.44	4.5290E-01
458.79	4.4329E-01
459.14	4.5838E-01
459.49	4.7675E-01
459.84	4.5077E-01
460.19	4.7908E-01
460.54	4.7640E-01
460.89	4.3925E-01
461.24	4.8034E-01
461.59	4.5930E-01
461.94	4.6562E-01
462.29	4.3540E-01
462.64	4.6046E-01
462.99	4.6503E-01
463.34	4.9167E-01
463.69	4.6077E-01
464.04	4.2994E-01
464.39	4.4687E-01
464.74	4.5290E-01
465.09	4.6503E-01
465.44	4.3821E-01
465.79	4.5200E-01
466.14	4.5393E-01
466.49	4.4671E-01
466.84	4.4233E-01
467.19	4.5768E-01
467.54	4.5908E-01
467.89	4.3685E-01
468.24	4.1420E-01
468.59	4.2782E-01
468.94	4.1903E-01
469.29	4.2138E-01
469.64	4.3568E-01
469.99	4.1945E-01
470.34	4.0614E-01
470.68	4.3246E-01
471.03	4.1738E-01
471.38	4.1858E-01
471.73	3.9868E-01
472.08	3.9392E-01
472.43	3.8020E-01
472.78	4.0164E-01
473.13	3.9701E-01
473.48	3.9047E-01
473.83	3.8279E-01
474.17	3.8855E-01
474.52	3.8421E-01
474.87	3.6828E-01
475.22	3.7607E-01
475.57	3.5785E-01
475.92	3.4884E-01
476.27	3.5930E-01
476.61	3.4976E-01
476.96	3.4097E-01
477.31	3.3019E-01
477.66	3.3688E-01
478.01	3.3470E-01
478.36	3.3261E-01
478.70	3.2814E-01
479.05	3.3309E-01
479.40	3.1807E-01
479.75	3.1465E-01
480.10	3.1635E-01
480.45	3.0917E-01
480.79	3.0764E-01
481.14	3.1208E-01
481.49	3.0454E-01
481.84	2.9905E-01
482.19	2.9687E-01
482.53	2.9608E-01
482.88	2.9368E-01
483.23	2.8861E-01
483.58	2.8280E-01
483.92	2.9013E-01
484.27	2.8064E-01
484.62	2.7890E-01
484.97	2.7283E-01
485.31	2.7170E-01
485.66	2.7769E-01
486.01	2.7743E-01
486.36	2.6411E-01
486.70	2.7178E-01
487.05	2.6985E-01
487.40	2.7016E-01
487.75	2.6194E-01
488.09	2.6239E-01
488.44	2.6476E-01
488.79	2.6087E-01
489.13	2.5767E-01
489.48	2.6095E-01
489.83	2.6133E-01
490.17	2.5444E-01
490.52	2.5442E-01
490.87	2.5573E-01
491.22	2.5916E-01
491.56	2.5547E-01
491.91	2.5892E-01
492.26	2.5592E-01
492.60	2.5590E-01
492.95	2.5813E-01
493.30	2.5766E-01
493.64	2.5473E-01
493.99	2.5589E-01
494.34	2.5262E-01
494.68	2.5017E-01
495.03	2.5642E-01
495.37	2.5406E-01
495.72	2.5676E-01
496.07	2.5094E-01
496.41	2.5261E-01
496.76	2.5080E-01
497.11	2.5329E-01
497.45	2.5230E-01
497.80	2.5264E-01
498.14	2.5275E-01
498.49	2.5299E-01
498.84	2.5373E-01
499.18	2.5318E-01
499.53	2.5311E-01
499.87	2.5073E-01
500.22	2.5380E-01
500.56	2.5324E-01
500.91	2.5304E-01
501.26	2.5258E-01
501.60	2.5238E-01
501.95	2.5018E-01
502.29	2.5350E-01
502.64	2.4888E-01
502.98	2.5255E-01
503.33	2.5059E-01
503.67	2.5147E-01
504.02	2.5069E-01
504.36	2.5015E-01
504.71	2.5115E-01
505.06	2.4862E-01
505.40	2.4874E-01
505.75	2.5032E-01
506.09	2.5028E-01
506.44	2.5000E-01
506.78	2.4764E-01
507.13	2.4898E-01
507.47	2.4696E-01
507.82	2.4684E-01
508.16	2.4934E-01
508.51	2.4701E-01
508.85	2.4409E-01
509.19	2.4716E-01
509.54	2.4689E-01
509.88	2.4725E-01
510.23	2.4358E-01
510.57	2.4453E-01
510.92	2.4379E-01
511.26	2.4414E-01
511.61	2.4406E-01
511.95	2.4436E-01
512.30	2.4280E-01
512.64	2.4436E-01
512.98	2.4014E-01
513.33	2.4194E-01
513.67	2.4245E-01
514.02	2.4164E-01
514.36	2.3958E-01
514.70	2.4117E-01
515.05	2.3836E-01
515.39	2.4029E-01
515.74	2.3811E-01
516.08	2.3685E-01
516.42	2.3889E-01
516.77	2.3917E-01
517.11	2.3952E-01
517.46	2.4069E-01
517.80	2.3725E-01
518.14	2.3884E-01
518.49	2.3656E-01
518.83	2.3741E-01
519.17	2.3748E-01
519.52	2.3788E-01
519.86	2.3681E-01
520.20	2.3562E-01
520.55	2.3643E-01
520.89	2.3506E-01
521.23	2.3735E-01
521.58	2.3686E-01
521.92	2.3880E-01
522.26	2.4002E-01
522.61	2.3633E-01
522.95	2.3800E-01
523.29	2.3472E-01
523.64	2.3490E-01
523.98	2.3597E-01
524.32	2.3682E-01
524.66	2.3883E-01
525.01	2.3890E-01
525.35	2.3950E-01
525.69	2.4012E-01
526.04	2.3933E-01
526.38	2.3611E-01
526.72	2.4071E-01
527.06	2.3927E-01
527.41	2.4111E-01
527.75	2.4313E-01
528.09	2.4117E-01
528.43	2.4518E-01
528.78	2.4229E-01
529.12	2.4475E-01
529.46	2.4631E-01
529.80	2.4579E-01
530.15	2.4641E-01
530.49	2.4649E-01
530.83	2.4796E-01
531.17	2.4790E-01
531.51	2.4710E-01
531.86	2.4914E-01
532.20	2.5027E-01
532.54	2.4979E-01
532.88	2.5137E-01
533.22	2.5346E-01
533.57	2.5463E-01
533.91	2.5409E-01
534.25	2.5638E-01
534.59	2.5490E-01
534.93	2.5691E-01
535.27	2.5586E-01
535.62	2.6057E-01
535.96	2.5940E-01
536.30	2.6020E-01
536.64	2.6069E-01
536.98	2.6283E-01
537.32	2.6211E-01
537.66	2.6205E-01
538.01	2.6490E-01
538.35	2.6692E-01
538.69	2.6391E-01
539.03	2.7013E-01
539.37	2.6732E-01
539.71	2.6973E-01
540.05	2.6987E-01
540.39	2.7086E-01
540.73	2.6965E-01
541.07	2.7052E-01
541.42	2.7092E-01
541.76	2.7110E-01
542.10	2.7266E-01
542.44	2.7399E-01
542.78	2.7420E-01
543.12	2.7343E-01
543.46	2.7914E-01
543.80	2.7589E-01
544.14	2.7574E-01
544.48	2.7470E-01
544.82	2.7782E-01
545.16	2.7807E-01
545.50	2.7653E-01
545.84	2.7931E-01
546.18	2.7737E-01
546.52	2.8049E-01
546.86	2.7842E-01
547.20	2.8213E-01
547.54	2.8523E-01
547.88	2.8034E-01
548.22	2.8088E-01
548.56	2.8244E-01
548.90	2.8054E-01
549.24	2.8309E-01
549.58	2.8366E-01
549.92	2.8181E-01
550.26	2.8670E-01
550.60	2.8248E-01
550.94	2.8126E-01
551.28	2.8501E-01
551.62	2.8306E-01
551.96	2.8579E-01
552.30	2.8718E-01
552.64	2.8602E-01
552.98	2.8586E-01
553.32	2.8622E-01
553.66	2.8492E-01
554.00	2.8560E-01
554.34	2.8658E-01
554.68	2.8770E-01
555.02	2.8807E-01
555.36	2.8903E-01
555.69	2.8771E-01
556.03	2.8759E-01
556.37	2.8892E-01
556.71	2.8650E-01
557.05	2.8574E-01
557.39	2.8638E-01
557.73	2.8715E-01
558.07	2.8934E-01
558.41	2.8795E-01
558.75	2.8834E-01
559.08	2.8859E-01
559.42	2.8594E-01
559.76	2.9022E-01
560.10	2.8976E-01
560.44	2.8974E-01
560.78	2.8700E-01
561.12	2.8877E-01
561.45	2.8854E-01
561.79	2.8983E-01
562.13	2.8970E-01
562.47	2.8991E-01
562.81	2.8991E-01
563.15	2.8991E-01
563.48	2.9053E-01
563.82	2.8694E-01
564.16	2.8946E-01
564.50	2.8976E-01
564.84	2.9054E-01
565.17	2.9085E-01
565.51	2.8992E-01
565.85	2.9270E-01
566.19	2.8884E-01
566.52	2.9291E-01
566.86	2.8924E-01
567.20	2.9209E-01
567.54	2.9150E-01
567.88	2.9187E-01
568.21	2.9159E-01
568.55	2.9315E-01
568.89	2.9313E-01
569.23	2.9274E-01
569.56	2.9228E-01
569.90	2.9386E-01
570.24	2.9561E-01
570.57	2.9564E-01
570.91	2.9584E-01
571.25	2.9183E-01
571.59	2.9556E-01
571.92	2.9520E-01
572.26	2.9615E-01
572.60	2.9870E-01
572.93	2.9713E-01
573.27	3.0004E-01
573.61	3.0057E-01
573.95	2.9602E-01
574.28	3.0088E-01
574.62	3.0127E-01
574.96	3.0150E-01
575.29	3.0072E-01
575.63	3.0540E-01
575.97	3.0448E-01
576.30	3.1151E-01
576.64	3.0753E-01
576.98	3.0689E-01
577.31	3.0870E-01
577.65	3.1171E-01
577.98	3.0964E-01
578.32	3.1221E-01
578.66	3.1404E-01
578.99	3.1476E-01
579.33	3.1607E-01
579.67	3.1340E-01
580.00	3.1737E-01
580.34	3.1658E-01
580.67	3.1855E-01
581.01	3.2114E-01
581.35	3.2222E-01
581.68	3.2356E-01
582.02	3.2237E-01
582.35	3.2487E-01
582.69	3.2497E-01
583.02	3.3006E-01
583.36	3.2663E-01
583.70	3.2603E-01
584.03	3.2865E-01
584.37	3.2682E-01
584.70	3.3343E-01
585.04	3.3334E-01
585.37	3.3175E-01
585.71	3.3671E-01
586.04	3.3582E-01
586.38	3.3334E-01
586.72	3.3775E-01
587.05	3.3966E-01
587.39	3.4089E-01
587.72	3.3883E-01
588.06	3.4139E-01
588.39	3.4100E-01
588.73	3.4425E-01
589.06	3.4190E-01
589.40	3.4711E-01
589.73	3.4903E-01
590.07	3.4968E-01
590.40	3.4993E-01
590.73	3.5419E-01
591.07	3.5069E-01
591.40	3.5820E-01
591.74	3.5011E-01
592.07	3.5491E-01
592.41	3.5641E-01
592.74	3.5765E-01
593.08	3.5529E-01
593.41	3.5794E-01
593.75	3.5528E-01
594.08	3.6074E-01
594.41	3.5890E-01
594.75	3.6023E-01
595.08	3.6015E-01
595.42	3.5601E-01
595.75	3.6184E-01
596.09	3.6177E-01
596.42	3.5951E-01
596.75	3.6409E-01
597.09	3.6602E-01
597.42	3.6243E-01
597.75	3.6681E-01
598.09	3.6797E-01
598.42	3.6485E-01
598.76	3.6687E-01
599.09	3.7208E-01
599.42	3.7164E-01
599.76	3.6991E-01
600.09	3.6858E-01
600.42	3.7442E-01
600.76	3.6744E-01
601.09	3.7171E-01
601.42	3.7529E-01
601.76	3.7072E-01
602.09	3.6998E-01
602.42	3.7267E-01
602.76	3.7105E-01
603.09	3.7034E-01
603.42	3.7704E-01
603.76	3.7265E-01
604.09	3.7289E-01
604.42	3.7570E-01
604.76	3.7272E-01
605.09	3.7861E-01
605.42	3.7502E-01
605.75	3.7684E-01
606.09	3.7464E-01
606.42	3.7634E-01
606.75	3.7802E-01
607.09	3.7836E-01
607.42	3.7895E-01
607.75	3.7949E-01
608.08	3.7826E-01
608.42	3.8142E-01
608.75	3.7710E-01
609.08	3.8149E-01
609.41	3.8104E-01
609.75	3.7930E-01
610.08	3.8132E-01
610.41	3.8315E-01
610.74	3.8246E-01
611.07	3.8274E-01
611.41	3.8204E-01
611.74	3.8313E-01
612.07	3.8546E-01
612.40	3.8004E-01
612.73	3.8389E-01
613.07	3.8622E-01
613.40	3.8179E-01
613.73	3.8033E-01
614.06	3.8433E-01
614.39	3.8560E-01
614.72	3.8670E-01
615.06	3.8615E-01
615.39	3.9070E-01
615.72	3.8459E-01
616.05	3.8806E-01
616.38	3.8909E-01
616.71	3.9040E-01
617.05	3.8765E-01
617.38	3.9015E-01
617.71	3.8787E-01
618.04	3.8956E-01
618.37	3.8724E-01
618.70	3.8865E-01
619.03	3.8991E-01
619.36	3.8389E-01
619.69	3.9212E-01
620.03	3.8839E-01
620.36	3.8877E-01
620.69	3.8708E-01
621.02	3.9010E-01
621.35	3.8906E-01
621.68	3.8514E-01
622.01	3.8454E-01
622.34	3.8646E-01
622.67	3.8546E-01
623.00	3.8714E-01
623.33	3.8755E-01
623.66	3.8474E-01
623.99	3.8591E-01
624.32	3.8502E-01
624.65	3.8584E-01
624.99	3.8576E-01
625.32	3.8725E-01
625.65	3.8650E-01
625.98	3.8109E-01
626.31	3.8586E-01
626.64	3.8641E-01
626.97	3.8709E-01
627.30	3.8434E-01
627.63	3.8623E-01
627.96	3.8286E-01
628.29	3.8277E-01
628.62	3.8668E-01
628.95	3.8650E-01
629.28	3.8016E-01
629.61	3.9215E-01
629.94	3.8666E-01
630.26	3.8745E-01
630.59	3.8983E-01
630.92	3.8732E-01
631.25	3.8934E-01
631.58	3.9381E-01
631.91	3.8829E-01
632.24	3.9659E-01
632.57	3.9254E-01
632.90	3.9255E-01
633.23	3.9342E-01
633.56	3.9535E-01
633.89	3.9603E-01
634.22	3.9770E-01
634.55	3.9857E-01
634.88	4.0318E-01
635.20	4.0225E-01
635.53	4.0502E-01
635.86	4.0511E-01
636.19	4.0998E-01
636.52	4.1140E-01
636.85	4.0797E-01
637.18	4.1286E-01
637.51	4.0972E-01
637.83	4.1368E-01
638.16	4.0982E-01
638.49	4.2208E-01
638.82	4.2041E-01
639.15	4.2345E-01
639.48	4.2708E-01
639.81	4.2875E-01
640.13	4.2510E-01
640.46	4.3130E-01
640.79	4.3112E-01
641.12	4.3502E-01
641.45	4.3423E-01
641.77	4.3159E-01
642.10	4.4187E-01
642.43	4.4251E-01
642.76	4.4464E-01
643.09	4.4215E-01
643.41	4.4562E-01
643.74	4.4600E-01
644.07	4.4599E-01
644.40	4.4980E-01
644.73	4.5440E-01
645.05	4.5645E-01
645.38	4.5949E-01
645.71	4.6075E-01
646.04	4.6097E-01
646.36	4.6022E-01
646.69	4.6693E-01
647.02	4.6726E-01
647.35	4.6461E-01
647.67	4.7070E-01
648.00	4.6888E-01
648.33	4.7513E-01
648.66	4.7221E-01
648.98	4.7842E-01
649.31	4.7758E-01
649.64	4.7983E-01
649.96	4.8436E-01
650.29	4.8624E-01
650.62	4.8680E-01
650.94	4.8664E-01
651.27	4.8620E-01
651.60	4.8719E-01
651.92	4.9528E-01
652.25	4.9645E-01
652.58	4.9545E-01
652.90	4.9805E-01
653.23	4.9810E-01
653.56	4.9987E-01
653.88	5.0196E-01
654.21	5.0200E-01
654.54	5.0453E-01
654.86	5.1067E-01
655.19	5.0423E-01
655.52	5.1229E-01
655.84	5.1129E-01
656.17	5.1407E-01
656.49	5.1980E-01
656.82	5.1405E-01
657.15	5.1935E-01
657.47	5.1922E-01
657.80	5.1999E-01
658.13	5.2138E-01
658.45	5.2516E-01
658.78	5.2337E-01
659.10	5.3018E-01
659.43	5.2957E-01
659.75	5.2786E-01
660.08	5.2607E-01
660.41	5.3271E-01
660.73	5.3395E-01
661.06	5.3764E-01
661.38	5.3542E-01
661.71	5.3799E-01
662.03	5.3775E-01
662.36	5.4454E-01
662.68	5.4353E-01
663.01	5.3706E-01
663.33	5.4182E-01
663.66	5.4578E-01
663.98	5.4286E-01
664.31	5.4271E-01
664.63	5.5419E-01
664.96	5.5049E-01
665.28	5.5442E-01
665.61	5.5333E-01
665.93	5.5459E-01
666.26	5.5688E-01
666.58	5.5757E-01
666.91	5.5408E-01
667.23	5.5981E-01
667.56	5.5366E-01
667.88	5.6198E-01
668.21	5.6195E-01
668.53	5.5936E-01
668.86	5.7058E-01
669.18	5.6236E-01
669.50	5.7515E-01
669.83	5.7274E-01
670.15	5.7465E-01
670.48	5.7321E-01
670.80	5.7081E-01
671.13	5.6801E-01
671.45	5.7531E-01
671.77	5.7847E-01
672.10	5.7380E-01
672.42	5.8298E-01
672.75	5.7980E-01
673.07	5.8485E-01
673.39	5.7873E-01
673.72	5.8262E-01
674.04	5.8630E-01
674.37	5.9068E-01
674.69	5.8687E-01
675.01	5.9184E-01
675.34	5.9369E-01
675.66	5.9482E-01
675.98	5.8922E-01
676.31	5.9810E-01
676.63	5.9994E-01
676.95	5.9655E-01
677.28	6.0111E-01
677.60	6.0169E-01
677.92	5.9948E-01
678.25	6.0657E-01
678.57	6.0754E-01
678.89	6.0527E-01
679.22	6.1462E-01
679.54	6.1192E-01
679.86	6.1228E-01
680.18	6.1414E-01
680.51	6.1595E-01
680.83	6.2170E-01
681.15	6.1539E-01
681.48	6.1999E-01
681.80	6.2420E-01
682.12	6.2023E-01
682.44	6.3046E-01
682.77	6.3053E-01
683.09	6.3454E-01
683.41	6.3179E-01
683.73	6.3839E-01
684.06	6.3698E-01
684.38	6.3951E-01
684.70	6.3700E-01
685.02	6.4360E-01
685.34	6.5058E-01
685.67	6.4441E-01
685.99	6.5302E-01
686.31	6.4774E-01
686.63	6.5886E-01
686.96	6.5509E-01
687.28	6.6270E-01
687.60	6.5322E-01
687.92	6.6061E-01
688.24	6.6776E-01
688.56	6.6893E-01
688.89	6.7054E-01
689.21	6.6832E-01
689.53	6.7158E-01
689.85	6.8132E-01
690.17	6.7619E-01
690.49	6.8755E-01
690.82	6.8701E-01
691.14	6.8679E-01
691.46	6.9070E-01
691.78	6.9541E-01
692.10	6.8725E-01
692.42	6.9515E-01
692.74	7.0090E-01
693.06	7.0242E-01
693.39	7.1385E-01
693.71	7.1506E-01
694.03	7.1560E-01
694.35	7.1780E-01
694.67	7.1949E-01
694.99	7.2662E-01
695.31	7.2913E-01
695.63	7.2827E-01
695.95	7.3511E-01
696.27	7.3203E-01
696.59	7.3857E-01
696.91	7.4872E-01
697.23	7.4802E-01
697.56	7.4568E-01
697.88	7.5428E-01
698.20	7.5295E-01
698.52	7.6029E-01
698.84	7.6617E-01
699.16	7.7192E-01
699.48	7.6398E-01
699.80	7.7444E-01
700.12	7.8115E-01
700.44	7.8248E-01
700.76	7.8438E-01
701.08	7.8902E-01
701.40	7.9238E-01
701.72	8.0079E-01
702.04	7.9996E-01
702.36	8.0661E-01
702.68	8.1049E-01
703.00	8.1629E-01
703.32	8.2046E-01
703.64	8.2104E-01
703.96	8.1309E-01
704.28	8.2543E-01
704.60	8.3546E-01
704.91	8.3764E-01
705.23	8.3936E-01
705.55	8.4930E-01
705.87	8.4325E-01
706.19	8.4624E-01
706.51	8.5167E-01
706.83	8.5571E-01
707.15	8.7755E-01
707.47	8.5917E-01
707.79	8.7499E-01
708.11	8.7712E-01
708.43	8.8050E-01
708.74	8.8908E-01
709.06	9.0192E-01
709.38	8.9598E-01
709.70	8.9020E-01
710.02	9.0236E-01
710.34	8.9945E-01
710.66	9.2213E-01
710.98	9.1689E-01
711.29	9.1685E-01
711.61	9.3252E-01
711.93	9.3833E-01
712.25	9.3007E-01
712.57	9.4270E-01
712.89	9.4642E-01
713.20	9.4742E-01
713.52	9.5634E-01
713.84	9.6530E-01
714.16	9.5911E-01
714.48	9.6136E-01
714.80	9.7662E-01
715.11	9.7442E-01
715.43	9.8733E-01
715.75	9.9412E-01
716.07	1.0040E00
716.39	9.8514E-01
716.70	9.9724E-01
717.02	9.9256E-01
717.34	1.0224E00
717.66	1.0117E00
717.97	1.0241E00
718.29	1.0299E00
718.61	1.0438E00
718.93	1.0429E00
719.24	1.0461E00
719.56	1.0686E00
719.88	1.0595E00
720.20	1.0729E00
720.51	1.0864E00
720.83	1.0821E00
721.15	1.1039E00
721.46	1.1008E00
721.78	1.1072E00
722.10	1.1224E00
722.42	1.1332E00
722.73	1.1406E00
723.05	1.1259E00
723.37	1.1424E00
723.68	1.1531E00
724.00	1.1539E00
724.32	1.1745E00
724.63	1.1716E00
724.95	1.1666E00
725.27	1.1763E00
725.58	1.1837E00
725.90	1.1838E00
726.22	1.2032E00
726.53	1.1778E00
726.85	1.1945E00
727.16	1.2199E00
727.48	1.1990E00
727.80	1.2124E00
728.11	1.2169E00
728.43	1.2143E00
728.74	1.2090E00
729.06	1.2318E00
729.38	1.2271E00
729.69	1.2324E00
730.01	1.2415E00
730.32	1.2500E00
730.64	1.2478E00
730.96	1.2360E00
731.27	1.2692E00
731.59	1.2399E00
731.90	1.2553E00
732.22	1.2652E00
732.53	1.2635E00
732.85	1.2797E00
733.16	1.2762E00
733.48	1.2830E00
733.80	1.2749E00
734.11	1.2990E00
734.43	1.2978E00
734.74	1.2968E00
735.06	1.3133E00
735.37	1.3228E00
735.69	1.3069E00
736.00	1.3213E00
736.32	1.3220E00
736.63	1.3322E00
736.95	1.3294E00
737.26	1.3545E00
737.58	1.3527E00
737.89	1.3638E00
738.21	1.3500E00
738.52	1.3584E00
738.83	1.3631E00
739.15	1.3629E00
739.46	1.3819E00
739.78	1.3764E00
740.09	1.3938E00
740.41	1.3845E00
740.72	1.3802E00
741.04	1.3810E00
741.35	1.3843E00
741.66	1.4076E00
741.98	1.3974E00
742.29	1.4067E00
742.61	1.3993E00
742.92	1.4037E00
743.23	1.4039E00
743.55	1.4139E00
743.86	1.4022E00
744.18	1.4113E00
744.49	1.4134E00
744.80	1.4117E00
745.12	1.4140E00
745.43	1.4182E00
745.74	1.4172E00
746.06	1.4062E00
746.37	1.4049E00
746.68	1.4165E00
747.00	1.4141E00
747.31	1.4008E00
747.62	1.3927E00
747.94	1.4152E00
748.25	1.4170E00
748.56	1.4203E00
748.88	1.3982E00
749.19	1.4094E00
749.50	1.4117E00
749.82	1.4038E00
750.13	1.4124E00
750.44	1.4128E00
750.75	1.3959E00
751.07	1.4170E00
751.38	1.4250E00
751.69	1.3977E00
752.01	1.4162E00
752.32	1.4152E00
752.63	1.4176E00
752.94	1.4263E00
753.26	1.4324E00
753.57	1.4181E00
753.88	1.4269E00
754.19	1.4276E00
754.51	1.4309E00
754.82	1.4267E00
755.13	1.4435E00
755.44	1.4422E00
755.75	1.4450E00
756.07	1.4464E00
756.38	1.4623E00
756.69	1.4573E00
757.00	1.4682E00
757.31	1.4860E00
757.63	1.4936E00
757.94	1.4960E00
758.25	1.5125E00
758.56	1.4760E00
758.87	1.5259E00
759.18	1.5297E00
759.50	1.5285E00
759.81	1.5220E00
760.12	1.5334E00
760.43	1.5437E00
760.74	1.5382E00
761.05	1.5697E00
761.36	1.5744E00
761.67	1.5863E00
761.99	1.5965E00
762.30	1.5734E00
762.61	1.6114E00
762.92	1.6075E00
763.23	1.6095E00
763.54	1.6267E00
763.85	1.6533E00
764.16	1.6572E00
764.47	1.6765E00
764.78	1.6886E00
765.10	1.6895E00
765.41	1.6908E00
765.72	1.7007E00
766.03	1.7399E00
766.34	1.7544E00
766.65	1.7647E00
766.96	1.7997E00
767.27	1.7874E00
767.58	1.7883E00
767.89	1.8065E00
768.20	1.8351E00
768.51	1.8354E00
768.82	1.8391E00
769.13	1.8740E00
769.44	1.8997E00
769.75	1.8979E00
770.06	1.9011E00
770.37	1.8991E00
770.68	1.9451E00
770.99	1.9592E00
771.30	1.9709E00
771.61	2.0301E00
771.92	1.9844E00
772.23	2.0114E00
772.54	2.0551E00
772.85	2.0354E00
773.16	2.0561E00
773.47	2.1177E00
773.78	2.1042E00
774.09	2.1358E00
774.39	2.1384E00
774.70	2.1445E00
775.01	2.1869E00
775.32	2.1960E00
775.63	2.2189E00
775.94	2.2453E00
776.25	2.2321E00
776.56	2.2552E00
776.87	2.3121E00
777.18	2.3044E00
777.48	2.3282E00
777.79	2.3509E00
778.10	2.3715E00
778.41	2.3910E00
778.72	2.4195E00
779.03	2.4284E00
779.34	2.4815E00
779.65	2.4817E00
779.95	2.5280E00
780.26	2.5050E00
780.57	2.5487E00
780.88	2.5433E00
781.19	2.5893E00
781.50	2.5929E00
781.80	2.6171E00
782.11	2.6228E00
782.42	2.6857E00
782.73	2.6356E00
783.04	2.7366E00
783.34	2.7391E00
783.65	2.7590E00
783.96	2.7667E00
784.27	2.7821E00
784.57	2.8047E00
784.88	2.8383E00
785.19	2.8507E00
785.50	2.8860E00
785.81	2.9219E00
786.11	2.8816E00
786.42	2.9162E00
786.73	2.9458E00
787.04	2.9812E00
787.34	3.0343E00
787.65	3.0468E00
787.96	3.1182E00
788.26	3.0949E00
788.57	3.1558E00
788.88	3.1197E00
789.19	3.2179E00
789.49	3.1889E00
789.80	3.2486E00
790.11	3.2561E00
790.41	3.2855E00
790.72	3.3198E00
791.03	3.3343E00
791.33	3.3681E00
791.64	3.4442E00
791.95	3.3839E00
792.25	3.4931E00
792.56	3.4599E00
792.87	3.5123E00
793.17	3.5343E00
793.48	3.5514E00
793.79	3.5860E00
794.09	3.6555E00
794.40	3.6022E00
794.70	3.6161E00
795.01	3.6283E00
795.32	3.6791E00
795.62	3.7512E00
795.93	3.7588E00
796.23	3.7685E00
796.54	3.8196E00
796.85	3.8059E00
797.15	3.8560E00
797.46	3.8843E00
797.76	3.9856E00
798.07	3.9682E00
798.37	3.9751E00
798.68	4.0334E00
798.99	4.0365E00
799.29	4.0776E00
799.60	4.1510E00
799.90	4.1491E00
800.21	4.2079E00
800.51	4.2431E00
800.82	4.2337E00
801.12	4.3115E00
801.43	4.3017E00
801.73	4.3913E00
802.04	4.3823E00
802.34	4.3752E00
802.65	4.4278E00
802.95	4.5800E00
803.26	4.5423E00
803.56	4.4616E00
803.87	4.5332E00
804.17	4.5679E00
804.48	4.5632E00
804.78	4.6466E00
805.09	4.7309E00
805.39	4.6977E00
805.70	4.7205E00
806.00	4.7960E00
806.30	4.7917E00
806.61	4.8614E00
806.91	4.8854E00
807.22	4.9365E00
807.52	4.9645E00
807.83	4.9864E00
808.13	5.0433E00
808.43	4.9463E00
808.74	5.0824E00
809.04	5.1251E00
809.35	5.0997E00
809.65	5.2203E00
809.95	5.2509E00
810.26	5.3092E00
810.56	5.3318E00
810.86	5.3987E00
811.17	5.4484E00
811.47	5.4402E00
811.77	5.4356E00
812.08	5.4273E00
812.38	5.5993E00
812.69	5.4850E00
812.99	5.6658E00
813.29	5.6952E00
813.59	5.7462E00
813.90	5.7642E00
814.20	5.7719E00
814.50	5.8630E00
814.81	5.7992E00
815.11	5.9440E00
815.41	6.1057E00
815.72	6.0384E00
816.02	6.0870E00
816.32	5.9586E00
816.62	5.5155E00
816.93	5.5210E00
817.23	5.6415E00
817.53	5.5538E00
817.84	5.4487E00
818.14	5.3605E00
818.44	5.3860E00
818.74	5.6502E00
819.04	5.5846E00
819.35	5.5347E00
819.65	5.6260E00
819.95	5.6759E00
820.25	5.7492E00
820.56	5.8661E00
820.86	5.9707E00
821.16	6.1117E00
821.46	6.0664E00
821.76	6.1086E00
822.07	6.0529E00
822.37	5.8773E00
822.67	5.9339E00
822.97	5.7073E00
823.27	5.4999E00
823.57	5.5196E00
823.88	5.5193E00
824.18	5.6477E00
824.48	5.6672E00
824.78	5.7140E00
825.08	5.8503E00
825.38	6.0078E00
825.69	5.9202E00
825.99	5.9603E00
826.29	6.0505E00
826.59	5.9033E00
826.89	6.0418E00
827.19	6.0380E00
827.49	6.0612E00
827.79	5.8453E00
828.09	5.6688E00
828.39	5.7368E00
828.70	5.7163E00
829.00	5.6540E00
829.30	5.5984E00
829.60	5.6337E00
829.90	5.5291E00
830.20	5.3975E00
830.50	5.5577E00
830.80	5.5755E00
831.10	5.4125E00
831.40	5.5897E00
831.70	5.5155E00
832.00	5.5434E00
832.30	5.5391E00
832.60	5.5052E00
832.90	5.4950E00
833.20	5.5815E00
833.50	5.4127E00
833.80	5.4402E00
834.10	5.4153E00
834.40	5.4381E00
834.70	5.4535E00
835.00	5.4531E00
835.30	5.4282E00
835.60	5.5804E00
835.90	5.5842E00
836.20	5.7006E00
836.50	5.7080E00
836.80	5.8529E00
837.10	6.1242E00
837.40	5.8493E00
837.70	5.8885E00
838.00	5.7209E00
838.30	5.7488E00
838.60	5.9668E00
838.90	5.8710E00
839.19	6.1147E00
839.49	5.9726E00
839.79	6.0175E00
840.09	5.9174E00
840.39	5.9958E00
840.69	6.0054E00
840.99	6.3502E00
841.29	6.3383E00
841.59	6.1025E00
841.88	6.1581E00
842.18	6.2754E00
842.48	6.3114E00
842.78	6.3360E00
843.08	6.3711E00
843.38	6.2263E00
843.68	6.5149E00
843.97	6.5830E00
844.27	6.4960E00
844.57	6.4688E00
844.87	6.4916E00
845.17	6.4522E00
845.47	6.3928E00
845.76	6.5653E00
846.06	6.6633E00
846.36	7.0342E00
846.66	6.5418E00
846.96	6.6425E00
847.25	6.5270E00
847.55	6.5524E00
847.85	6.7625E00
848.15	6.7276E00
848.44	6.8935E00
848.74	6.7806E00
849.04	6.8870E00
849.34	7.0109E00
849.63	6.9321E00
849.93	6.8356E00
850.23	6.9593E00
850.53	6.6801E00
850.82	6.8393E00
851.12	6.7836E00
851.42	6.9335E00
851.71	7.1243E00
852.01	7.2736E00
852.31	7.4629E00
852.61	7.3995E00
852.90	7.3624E00
853.20	7.4908E00
853.50	7.6916E00
853.79	7.7393E00
854.09	7.2494E00
854.39	7.2857E00
854.68	7.5206E00
854.98	7.4315E00
855.28	7.5057E00
855.57	7.7310E00
855.87	7.7601E00
856.17	7.8597E00
856.46	7.7577E00
856.76	7.7872E00
857.05	8.0257E00
857.35	7.8395E00
857.65	7.9976E00
857.94	7.9753E00
858.24	7.9553E00
858.53	8.0387E00
858.83	8.3721E00
859.13	8.0868E00
859.42	7.9709E00
859.72	8.2719E00
860.01	8.5268E00
860.31	8.2567E00
860.60	8.4317E00
860.90	8.6080E00
861.20	8.4757E00
861.49	8.3776E00
861.79	8.8208E00
862.08	9.7677E00
862.38	9.2574E00
862.67	8.9033E00
862.97	8.8541E00
863.26	8.8347E00
863.56	9.3752E00
863.85	9.3786E00
864.15	8.8616E00
864.44	9.2565E00
864.74	9.2617E00
865.03	9.4090E00
865.33	9.4030E00
865.62	9.1367E00
865.92	9.0723E00
866.21	9.5439E00
866.51	9.3456E00
866.80	9.3526E00
867.10	9.5296E00
867.39	8.9933E00
867.69	9.3772E00
867.98	8.5145E00
868.27	8.6547E00
868.57	8.5144E00
868.86	9.1351E00
869.16	8.6423E00
869.45	8.7216E00
869.75	8.4584E00
870.04	8.8616E00
870.33	8.9694E00
870.63	8.6263E00
870.92	9.0883E00
871.22	1.0088E01
871.51	8.9753E00
871.80	9.1506E00
872.10	9.1506E00
>>>>>End Processed Spectral Data<<<<<
