SpectraSuite Data File
++++++++++++++++++++++++++++++++++++
Date: Tue May 12 10:04:18 PDT 2015
User: schluterlab
Dark Spectrum Present: Yes
Reference Spectrum Present: No
Number of Sampled Component Spectra: 1
Spectrometers: USB2E3373
Integration Time (usec): 2000000 (USB2E3373)
Spectra Averaged: 3 (USB2E3373)
Boxcar Smoothing: 0 (USB2E3373)
Correct for Electrical Dark: No (USB2E3373)
Strobe/Lamp Enabled: No (USB2E3373)
Correct for Detector Non-linearity: No (USB2E3373)
Correct for Stray Light: No (USB2E3373)
Number of Pixels in Processed Spectrum: 2048
>>>>>Begin Processed Spectral Data<<<<<
178.53	0.0000E00
178.91	0.0000E00
179.29	0.0000E00
179.67	0.0000E00
180.04	0.0000E00
180.42	0.0000E00
180.80	0.0000E00
181.18	0.0000E00
181.56	0.0000E00
181.94	0.0000E00
182.31	0.0000E00
182.69	0.0000E00
183.07	0.0000E00
183.45	0.0000E00
183.83	0.0000E00
184.20	0.0000E00
184.58	0.0000E00
184.96	0.0000E00
185.34	0.0000E00
185.72	0.0000E00
186.09	0.0000E00
186.47	0.0000E00
186.85	0.0000E00
187.23	0.0000E00
187.61	0.0000E00
187.98	0.0000E00
188.36	0.0000E00
188.74	0.0000E00
189.12	0.0000E00
189.49	0.0000E00
189.87	0.0000E00
190.25	0.0000E00
190.63	0.0000E00
191.00	0.0000E00
191.38	0.0000E00
191.76	0.0000E00
192.14	0.0000E00
192.51	0.0000E00
192.89	0.0000E00
193.27	0.0000E00
193.65	0.0000E00
194.02	0.0000E00
194.40	0.0000E00
194.78	0.0000E00
195.15	0.0000E00
195.53	-0.0000E00
195.91	0.0000E00
196.29	0.0000E00
196.66	0.0000E00
197.04	0.0000E00
197.42	0.0000E00
197.79	0.0000E00
198.17	0.0000E00
198.55	0.0000E00
198.92	0.0000E00
199.30	0.0000E00
199.68	0.0000E00
200.05	0.0000E00
200.43	0.0000E00
200.81	0.0000E00
201.18	0.0000E00
201.56	0.0000E00
201.94	0.0000E00
202.31	-0.0000E00
202.69	0.0000E00
203.07	0.0000E00
203.44	0.0000E00
203.82	0.0000E00
204.19	0.0000E00
204.57	0.0000E00
204.95	0.0000E00
205.32	0.0000E00
205.70	0.0000E00
206.08	0.0000E00
206.45	0.0000E00
206.83	0.0000E00
207.20	0.0000E00
207.58	0.0000E00
207.96	0.0000E00
208.33	0.0000E00
208.71	0.0000E00
209.08	0.0000E00
209.46	0.0000E00
209.84	0.0000E00
210.21	0.0000E00
210.59	0.0000E00
210.96	0.0000E00
211.34	0.0000E00
211.71	0.0000E00
212.09	0.0000E00
212.46	0.0000E00
212.84	0.0000E00
213.22	0.0000E00
213.59	0.0000E00
213.97	0.0000E00
214.34	0.0000E00
214.72	0.0000E00
215.09	0.0000E00
215.47	0.0000E00
215.84	0.0000E00
216.22	0.0000E00
216.59	0.0000E00
216.97	0.0000E00
217.34	0.0000E00
217.72	0.0000E00
218.09	0.0000E00
218.47	0.0000E00
218.84	0.0000E00
219.22	0.0000E00
219.59	0.0000E00
219.97	0.0000E00
220.34	0.0000E00
220.72	0.0000E00
221.09	0.0000E00
221.47	0.0000E00
221.84	0.0000E00
222.22	0.0000E00
222.59	0.0000E00
222.97	0.0000E00
223.34	0.0000E00
223.72	0.0000E00
224.09	0.0000E00
224.46	0.0000E00
224.84	0.0000E00
225.21	0.0000E00
225.59	0.0000E00
225.96	0.0000E00
226.34	0.0000E00
226.71	0.0000E00
227.08	0.0000E00
227.46	0.0000E00
227.83	0.0000E00
228.21	0.0000E00
228.58	0.0000E00
228.95	0.0000E00
229.33	0.0000E00
229.70	0.0000E00
230.08	0.0000E00
230.45	0.0000E00
230.82	0.0000E00
231.20	0.0000E00
231.57	0.0000E00
231.95	0.0000E00
232.32	0.0000E00
232.69	0.0000E00
233.07	0.0000E00
233.44	0.0000E00
233.81	0.0000E00
234.19	0.0000E00
234.56	0.0000E00
234.93	0.0000E00
235.31	0.0000E00
235.68	0.0000E00
236.05	0.0000E00
236.43	0.0000E00
236.80	0.0000E00
237.17	0.0000E00
237.55	0.0000E00
237.92	0.0000E00
238.29	0.0000E00
238.67	0.0000E00
239.04	0.0000E00
239.41	0.0000E00
239.79	0.0000E00
240.16	0.0000E00
240.53	0.0000E00
240.91	0.0000E00
241.28	0.0000E00
241.65	0.0000E00
242.02	0.0000E00
242.40	0.0000E00
242.77	0.0000E00
243.14	0.0000E00
243.51	0.0000E00
243.89	0.0000E00
244.26	0.0000E00
244.63	0.0000E00
245.00	0.0000E00
245.38	0.0000E00
245.75	0.0000E00
246.12	0.0000E00
246.49	0.0000E00
246.87	0.0000E00
247.24	0.0000E00
247.61	0.0000E00
247.98	0.0000E00
248.36	0.0000E00
248.73	0.0000E00
249.10	0.0000E00
249.47	0.0000E00
249.84	0.0000E00
250.22	0.0000E00
250.59	0.0000E00
250.96	0.0000E00
251.33	0.0000E00
251.70	0.0000E00
252.08	0.0000E00
252.45	0.0000E00
252.82	0.0000E00
253.19	0.0000E00
253.56	0.0000E00
253.94	0.0000E00
254.31	0.0000E00
254.68	0.0000E00
255.05	0.0000E00
255.42	0.0000E00
255.79	0.0000E00
256.16	0.0000E00
256.54	0.0000E00
256.91	0.0000E00
257.28	0.0000E00
257.65	0.0000E00
258.02	0.0000E00
258.39	0.0000E00
258.76	0.0000E00
259.14	0.0000E00
259.51	0.0000E00
259.88	0.0000E00
260.25	0.0000E00
260.62	0.0000E00
260.99	0.0000E00
261.36	0.0000E00
261.73	0.0000E00
262.10	0.0000E00
262.47	0.0000E00
262.85	0.0000E00
263.22	0.0000E00
263.59	0.0000E00
263.96	0.0000E00
264.33	0.0000E00
264.70	0.0000E00
265.07	0.0000E00
265.44	0.0000E00
265.81	0.0000E00
266.18	0.0000E00
266.55	0.0000E00
266.92	0.0000E00
267.29	0.0000E00
267.66	0.0000E00
268.03	0.0000E00
268.40	0.0000E00
268.77	0.0000E00
269.14	0.0000E00
269.51	0.0000E00
269.88	0.0000E00
270.25	0.0000E00
270.62	0.0000E00
270.99	0.0000E00
271.36	0.0000E00
271.73	0.0000E00
272.10	0.0000E00
272.47	0.0000E00
272.84	0.0000E00
273.21	0.0000E00
273.58	0.0000E00
273.95	0.0000E00
274.32	0.0000E00
274.69	0.0000E00
275.06	0.0000E00
275.43	0.0000E00
275.80	0.0000E00
276.17	0.0000E00
276.54	0.0000E00
276.91	0.0000E00
277.28	0.0000E00
277.65	0.0000E00
278.02	0.0000E00
278.39	0.0000E00
278.76	0.0000E00
279.13	0.0000E00
279.50	0.0000E00
279.87	0.0000E00
280.23	0.0000E00
280.60	0.0000E00
280.97	0.0000E00
281.34	0.0000E00
281.71	0.0000E00
282.08	0.0000E00
282.45	0.0000E00
282.82	0.0000E00
283.19	0.0000E00
283.56	0.0000E00
283.92	0.0000E00
284.29	0.0000E00
284.66	0.0000E00
285.03	0.0000E00
285.40	0.0000E00
285.77	0.0000E00
286.14	0.0000E00
286.51	0.0000E00
286.87	0.0000E00
287.24	0.0000E00
287.61	0.0000E00
287.98	0.0000E00
288.35	0.0000E00
288.72	0.0000E00
289.08	0.0000E00
289.45	0.0000E00
289.82	0.0000E00
290.19	0.0000E00
290.56	0.0000E00
290.93	0.0000E00
291.29	0.0000E00
291.66	0.0000E00
292.03	0.0000E00
292.40	0.0000E00
292.77	0.0000E00
293.13	0.0000E00
293.50	0.0000E00
293.87	0.0000E00
294.24	0.0000E00
294.60	0.0000E00
294.97	0.0000E00
295.34	0.0000E00
295.71	0.0000E00
296.08	0.0000E00
296.44	0.0000E00
296.81	0.0000E00
297.18	0.0000E00
297.55	0.0000E00
297.91	0.0000E00
298.28	0.0000E00
298.65	0.0000E00
299.02	0.0000E00
299.38	0.0000E00
299.75	0.0000E00
300.12	3.9409E-01
300.48	9.9007E-01
300.85	4.1670E-01
301.22	1.1197E00
301.59	3.4785E-01
301.95	4.1356E-01
302.32	6.2499E-01
302.69	6.4633E-01
303.05	4.0955E-01
303.42	5.6312E-01
303.79	6.5186E-01
304.15	4.1188E-01
304.52	4.9810E-01
304.89	4.7908E-01
305.25	9.7559E-01
305.62	6.3831E-01
305.99	7.7913E-01
306.35	4.7904E-01
306.72	6.6594E-01
307.09	5.7540E-01
307.45	6.0122E-01
307.82	4.4914E-01
308.19	5.7574E-01
308.55	6.8476E-01
308.92	8.1695E-01
309.29	6.8368E-01
309.65	8.1240E-01
310.02	6.2847E-01
310.38	6.8339E-01
310.75	9.5558E-01
311.12	9.4858E-01
311.48	1.6777E00
311.85	1.0921E00
312.22	7.6967E-01
312.58	1.8243E00
312.95	1.1247E00
313.31	1.1118E00
313.68	1.4560E00
314.05	2.4469E00
314.41	1.3459E00
314.78	8.0323E-01
315.14	1.3543E00
315.51	2.8061E00
315.87	1.2142E00
316.24	1.7988E00
316.61	1.6560E00
316.97	1.0991E00
317.34	1.6864E00
317.70	1.3208E00
318.07	1.3306E00
318.43	1.5737E00
318.80	1.1773E00
319.16	1.4728E00
319.53	1.0302E00
319.89	2.0800E00
320.26	1.5745E00
320.62	1.9055E00
320.99	1.6708E00
321.35	9.6802E-01
321.72	1.3025E00
322.08	2.0736E00
322.45	1.1344E00
322.81	1.3350E00
323.18	4.0331E00
323.54	2.1402E00
323.91	1.6390E00
324.27	3.1746E00
324.64	2.3068E00
325.00	1.6717E00
325.37	2.8014E00
325.73	1.0326E00
326.10	3.5439E00
326.46	1.6449E00
326.83	1.3430E00
327.19	2.8777E00
327.56	1.1121E00
327.92	1.6104E00
328.29	1.2830E00
328.65	1.6824E00
329.01	1.9945E00
329.38	1.2924E00
329.74	1.1583E00
330.11	1.6924E00
330.47	1.1289E00
330.84	1.6307E00
331.20	1.6312E00
331.56	1.5168E00
331.93	1.6891E00
332.29	1.5662E00
332.66	1.0937E00
333.02	1.3236E00
333.38	1.9809E00
333.75	9.2456E-01
334.11	1.4443E00
334.48	1.4425E00
334.84	1.3482E00
335.20	1.6567E00
335.57	3.0730E00
335.93	2.0442E00
336.29	1.5871E00
336.66	1.5293E00
337.02	1.0695E00
337.38	1.3362E00
337.75	1.2956E00
338.11	1.0974E00
338.47	1.5299E00
338.84	1.2613E00
339.20	1.0486E00
339.56	3.0816E00
339.93	9.6186E-01
340.29	1.1439E00
340.65	1.2495E00
341.02	2.0955E00
341.38	1.4291E00
341.74	1.5382E00
342.11	1.4986E00
342.47	1.5112E00
342.83	8.3135E-01
343.20	1.9202E00
343.56	1.1627E00
343.92	1.6167E00
344.28	1.0759E00
344.65	1.7092E00
345.01	1.0063E00
345.37	1.6260E00
345.73	1.4479E00
346.10	1.2431E00
346.46	1.4769E00
346.82	1.1254E00
347.19	2.5560E00
347.55	1.0524E00
347.91	1.0623E00
348.27	1.1928E00
348.63	1.0375E00
349.00	1.0250E00
349.36	2.0642E00
349.72	1.2870E00
350.08	1.8742E00
350.45	1.0723E00
350.81	9.9929E-01
351.17	1.3166E00
351.53	1.4243E00
351.89	1.1623E00
352.26	1.3341E00
352.62	1.1034E00
352.98	1.2841E00
353.34	1.1337E00
353.70	1.4974E00
354.07	1.0983E00
354.43	1.0417E00
354.79	1.2245E00
355.15	9.7960E-01
355.51	9.3522E-01
355.87	1.0571E00
356.24	1.1035E00
356.60	1.0675E00
356.96	1.1556E00
357.32	1.0396E00
357.68	9.7626E-01
358.04	8.8073E-01
358.40	9.7222E-01
358.77	9.0547E-01
359.13	1.0703E00
359.49	1.1384E00
359.85	1.1068E00
360.21	8.3406E-01
360.57	1.0173E00
360.93	1.0100E00
361.29	1.0708E00
361.66	8.8895E-01
362.02	8.1999E-01
362.38	1.0691E00
362.74	9.3071E-01
363.10	9.8177E-01
363.46	1.1417E00
363.82	9.7603E-01
364.18	1.1688E00
364.54	1.1076E00
364.90	1.0551E00
365.26	1.0373E00
365.62	1.1857E00
365.98	1.0336E00
366.35	8.2716E-01
366.71	1.0027E00
367.07	1.2853E00
367.43	8.1293E-01
367.79	1.1618E00
368.15	1.0648E00
368.51	1.2623E00
368.87	1.1045E00
369.23	1.1805E00
369.59	9.2747E-01
369.95	1.0050E00
370.31	9.5828E-01
370.67	1.1339E00
371.03	9.5751E-01
371.39	9.3609E-01
371.75	9.4428E-01
372.11	9.7496E-01
372.47	8.9631E-01
372.83	9.0475E-01
373.19	7.5560E-01
373.55	9.8972E-01
373.91	1.0102E00
374.27	1.0899E00
374.63	1.0630E00
374.99	9.6549E-01
375.35	9.2750E-01
375.71	9.4451E-01
376.07	9.5300E-01
376.42	9.4389E-01
376.78	8.5587E-01
377.14	9.6989E-01
377.50	1.0601E00
377.86	9.0203E-01
378.22	8.5084E-01
378.58	8.5164E-01
378.94	8.2538E-01
379.30	8.6676E-01
379.66	8.5461E-01
380.02	8.3621E-01
380.38	8.1265E-01
380.74	8.5146E-01
381.09	8.9347E-01
381.45	8.2389E-01
381.81	7.9724E-01
382.17	8.4038E-01
382.53	8.7401E-01
382.89	7.8200E-01
383.25	8.2193E-01
383.61	8.1361E-01
383.97	7.9015E-01
384.32	7.8715E-01
384.68	7.5199E-01
385.04	8.3503E-01
385.40	8.5968E-01
385.76	8.5608E-01
386.12	8.0550E-01
386.48	8.1818E-01
386.83	7.6303E-01
387.19	7.6163E-01
387.55	8.5202E-01
387.91	8.2348E-01
388.27	7.6976E-01
388.62	8.6475E-01
388.98	7.8443E-01
389.34	8.6998E-01
389.70	7.8995E-01
390.06	8.1502E-01
390.42	8.2198E-01
390.77	8.0175E-01
391.13	8.1818E-01
391.49	8.0296E-01
391.85	8.4748E-01
392.20	7.4804E-01
392.56	7.5832E-01
392.92	7.6926E-01
393.28	7.7216E-01
393.64	8.0712E-01
393.99	8.2250E-01
394.35	8.0921E-01
394.71	7.9939E-01
395.07	7.8272E-01
395.42	7.8543E-01
395.78	7.9991E-01
396.14	7.2259E-01
396.50	7.2543E-01
396.85	7.9712E-01
397.21	7.6744E-01
397.57	7.8815E-01
397.92	7.3678E-01
398.28	7.1339E-01
398.64	8.4790E-01
399.00	6.8379E-01
399.35	7.1129E-01
399.71	7.6341E-01
400.07	7.4469E-01
400.42	7.2697E-01
400.78	7.4458E-01
401.14	7.4906E-01
401.49	6.9435E-01
401.85	6.9014E-01
402.21	7.0076E-01
402.57	6.9660E-01
402.92	7.3455E-01
403.28	6.9914E-01
403.63	6.9504E-01
403.99	7.1171E-01
404.35	6.9011E-01
404.70	6.7793E-01
405.06	6.8856E-01
405.42	7.0367E-01
405.77	6.5408E-01
406.13	6.5388E-01
406.49	6.4979E-01
406.84	6.5691E-01
407.20	6.4124E-01
407.55	6.9195E-01
407.91	7.0476E-01
408.27	6.5973E-01
408.62	6.6402E-01
408.98	6.7173E-01
409.34	6.8380E-01
409.69	6.5437E-01
410.05	6.9017E-01
410.40	6.5844E-01
410.76	6.0902E-01
411.11	6.1440E-01
411.47	6.6624E-01
411.83	6.3137E-01
412.18	6.4381E-01
412.54	6.3131E-01
412.89	6.2665E-01
413.25	6.4992E-01
413.60	6.7833E-01
413.96	6.3646E-01
414.31	6.4041E-01
414.67	6.7570E-01
415.03	6.6317E-01
415.38	6.7908E-01
415.74	6.7123E-01
416.09	6.6635E-01
416.45	6.7551E-01
416.80	6.6223E-01
417.16	6.5679E-01
417.51	6.5332E-01
417.87	6.2928E-01
418.22	6.2156E-01
418.58	6.3483E-01
418.93	6.0823E-01
419.29	6.5181E-01
419.64	6.3265E-01
420.00	5.9802E-01
420.35	5.8714E-01
420.71	6.1681E-01
421.06	6.1899E-01
421.42	6.3494E-01
421.77	6.2562E-01
422.12	6.2406E-01
422.48	5.9096E-01
422.83	6.3135E-01
423.19	5.9696E-01
423.54	5.9695E-01
423.90	6.0434E-01
424.25	5.7071E-01
424.61	6.2916E-01
424.96	5.8867E-01
425.31	5.8548E-01
425.67	5.6137E-01
426.02	5.8683E-01
426.38	5.8576E-01
426.73	5.5496E-01
427.09	5.8103E-01
427.44	5.5698E-01
427.79	5.6280E-01
428.15	5.8046E-01
428.50	5.7610E-01
428.85	5.9024E-01
429.21	5.4439E-01
429.56	5.3271E-01
429.92	5.4333E-01
430.27	5.6141E-01
430.62	5.6084E-01
430.98	5.6814E-01
431.33	5.5480E-01
431.68	5.3605E-01
432.04	5.3252E-01
432.39	5.4025E-01
432.74	5.6026E-01
433.10	5.2492E-01
433.45	5.5527E-01
433.80	5.5197E-01
434.16	5.6470E-01
434.51	5.3756E-01
434.86	5.5932E-01
435.22	5.3926E-01
435.57	5.7664E-01
435.92	5.6556E-01
436.28	5.6261E-01
436.63	5.2186E-01
436.98	5.5811E-01
437.34	5.5429E-01
437.69	5.2646E-01
438.04	5.1230E-01
438.39	5.4853E-01
438.75	5.6187E-01
439.10	5.0689E-01
439.45	5.5039E-01
439.81	5.4462E-01
440.16	5.1225E-01
440.51	5.3479E-01
440.86	5.3362E-01
441.22	5.2103E-01
441.57	5.2607E-01
441.92	5.1067E-01
442.27	5.3592E-01
442.63	5.2506E-01
442.98	5.6066E-01
443.33	5.4933E-01
443.68	5.1025E-01
444.03	4.8160E-01
444.39	4.8389E-01
444.74	5.2507E-01
445.09	5.3303E-01
445.44	5.3441E-01
445.79	4.7153E-01
446.15	5.0652E-01
446.50	5.2344E-01
446.85	4.9255E-01
447.20	4.7874E-01
447.55	5.1770E-01
447.91	4.9822E-01
448.26	5.1127E-01
448.61	5.0624E-01
448.96	4.9575E-01
449.31	5.0395E-01
449.66	5.0830E-01
450.02	5.0021E-01
450.37	5.0111E-01
450.72	4.9415E-01
451.07	5.3257E-01
451.42	5.2969E-01
451.77	5.0045E-01
452.12	4.9995E-01
452.47	5.2291E-01
452.83	4.8069E-01
453.18	5.0867E-01
453.53	5.0262E-01
453.88	4.7350E-01
454.23	4.6743E-01
454.58	4.6772E-01
454.93	5.0186E-01
455.28	4.9895E-01
455.63	4.8456E-01
455.98	4.7341E-01
456.34	4.9861E-01
456.69	4.8368E-01
457.04	4.8747E-01
457.39	4.5715E-01
457.74	4.6675E-01
458.09	4.5436E-01
458.44	4.5377E-01
458.79	4.4395E-01
459.14	4.5882E-01
459.49	4.7733E-01
459.84	4.5105E-01
460.19	4.7999E-01
460.54	4.7685E-01
460.89	4.3997E-01
461.24	4.8130E-01
461.59	4.6021E-01
461.94	4.6623E-01
462.29	4.3619E-01
462.64	4.6118E-01
462.99	4.6588E-01
463.34	4.9295E-01
463.69	4.6153E-01
464.04	4.3050E-01
464.39	4.4742E-01
464.74	4.5373E-01
465.09	4.6596E-01
465.44	4.3893E-01
465.79	4.5298E-01
466.14	4.5460E-01
466.49	4.4736E-01
466.84	4.4313E-01
467.19	4.5824E-01
467.54	4.5972E-01
467.89	4.3768E-01
468.24	4.1496E-01
468.59	4.2837E-01
468.94	4.2008E-01
469.29	4.2196E-01
469.64	4.3625E-01
469.99	4.2040E-01
470.34	4.0727E-01
470.68	4.3324E-01
471.03	4.1825E-01
471.38	4.1926E-01
471.73	3.9950E-01
472.08	3.9426E-01
472.43	3.8066E-01
472.78	4.0192E-01
473.13	3.9759E-01
473.48	3.9104E-01
473.83	3.8312E-01
474.17	3.8905E-01
474.52	3.8471E-01
474.87	3.6882E-01
475.22	3.7675E-01
475.57	3.5835E-01
475.92	3.4959E-01
476.27	3.5965E-01
476.61	3.5043E-01
476.96	3.4127E-01
477.31	3.3062E-01
477.66	3.3726E-01
478.01	3.3517E-01
478.36	3.3319E-01
478.70	3.2870E-01
479.05	3.3373E-01
479.40	3.1840E-01
479.75	3.1517E-01
480.10	3.1674E-01
480.45	3.0965E-01
480.79	3.0814E-01
481.14	3.1259E-01
481.49	3.0522E-01
481.84	2.9960E-01
482.19	2.9728E-01
482.53	2.9659E-01
482.88	2.9411E-01
483.23	2.8913E-01
483.58	2.8319E-01
483.92	2.9030E-01
484.27	2.8124E-01
484.62	2.7936E-01
484.97	2.7321E-01
485.31	2.7203E-01
485.66	2.7789E-01
486.01	2.7796E-01
486.36	2.6466E-01
486.70	2.7190E-01
487.05	2.7018E-01
487.40	2.7046E-01
487.75	2.6249E-01
488.09	2.6293E-01
488.44	2.6499E-01
488.79	2.6139E-01
489.13	2.5829E-01
489.48	2.6152E-01
489.83	2.6170E-01
490.17	2.5468E-01
490.52	2.5491E-01
490.87	2.5606E-01
491.22	2.5943E-01
491.56	2.5591E-01
491.91	2.5939E-01
492.26	2.5639E-01
492.60	2.5628E-01
492.95	2.5862E-01
493.30	2.5817E-01
493.64	2.5506E-01
493.99	2.5633E-01
494.34	2.5321E-01
494.68	2.5049E-01
495.03	2.5679E-01
495.37	2.5445E-01
495.72	2.5724E-01
496.07	2.5142E-01
496.41	2.5315E-01
496.76	2.5110E-01
497.11	2.5368E-01
497.45	2.5256E-01
497.80	2.5292E-01
498.14	2.5299E-01
498.49	2.5330E-01
498.84	2.5384E-01
499.18	2.5349E-01
499.53	2.5337E-01
499.87	2.5093E-01
500.22	2.5397E-01
500.56	2.5370E-01
500.91	2.5313E-01
501.26	2.5291E-01
501.60	2.5254E-01
501.95	2.5035E-01
502.29	2.5374E-01
502.64	2.4916E-01
502.98	2.5292E-01
503.33	2.5090E-01
503.67	2.5157E-01
504.02	2.5097E-01
504.36	2.5054E-01
504.71	2.5150E-01
505.06	2.4902E-01
505.40	2.4910E-01
505.75	2.5032E-01
506.09	2.5064E-01
506.44	2.5023E-01
506.78	2.4785E-01
507.13	2.4918E-01
507.47	2.4698E-01
507.82	2.4712E-01
508.16	2.4949E-01
508.51	2.4725E-01
508.85	2.4424E-01
509.19	2.4733E-01
509.54	2.4712E-01
509.88	2.4745E-01
510.23	2.4370E-01
510.57	2.4485E-01
510.92	2.4415E-01
511.26	2.4455E-01
511.61	2.4434E-01
511.95	2.4463E-01
512.30	2.4311E-01
512.64	2.4466E-01
512.98	2.4041E-01
513.33	2.4208E-01
513.67	2.4278E-01
514.02	2.4189E-01
514.36	2.3985E-01
514.70	2.4121E-01
515.05	2.3875E-01
515.39	2.4050E-01
515.74	2.3825E-01
516.08	2.3699E-01
516.42	2.3914E-01
516.77	2.3946E-01
517.11	2.3969E-01
517.46	2.4096E-01
517.80	2.3725E-01
518.14	2.3897E-01
518.49	2.3683E-01
518.83	2.3774E-01
519.17	2.3777E-01
519.52	2.3831E-01
519.86	2.3689E-01
520.20	2.3585E-01
520.55	2.3659E-01
520.89	2.3522E-01
521.23	2.3760E-01
521.58	2.3715E-01
521.92	2.3897E-01
522.26	2.4029E-01
522.61	2.3643E-01
522.95	2.3833E-01
523.29	2.3487E-01
523.64	2.3510E-01
523.98	2.3620E-01
524.32	2.3717E-01
524.66	2.3914E-01
525.01	2.3890E-01
525.35	2.3989E-01
525.69	2.4039E-01
526.04	2.3977E-01
526.38	2.3622E-01
526.72	2.4092E-01
527.06	2.3943E-01
527.41	2.4119E-01
527.75	2.4328E-01
528.09	2.4161E-01
528.43	2.4535E-01
528.78	2.4254E-01
529.12	2.4513E-01
529.46	2.4672E-01
529.80	2.4592E-01
530.15	2.4677E-01
530.49	2.4671E-01
530.83	2.4817E-01
531.17	2.4812E-01
531.51	2.4736E-01
531.86	2.4951E-01
532.20	2.5051E-01
532.54	2.5000E-01
532.88	2.5153E-01
533.22	2.5377E-01
533.57	2.5498E-01
533.91	2.5420E-01
534.25	2.5645E-01
534.59	2.5518E-01
534.93	2.5718E-01
535.27	2.5606E-01
535.62	2.6093E-01
535.96	2.5992E-01
536.30	2.6038E-01
536.64	2.6089E-01
536.98	2.6308E-01
537.32	2.6254E-01
537.66	2.6252E-01
538.01	2.6531E-01
538.35	2.6706E-01
538.69	2.6411E-01
539.03	2.7025E-01
539.37	2.6757E-01
539.71	2.6980E-01
540.05	2.7017E-01
540.39	2.7103E-01
540.73	2.6988E-01
541.07	2.7082E-01
541.42	2.7134E-01
541.76	2.7168E-01
542.10	2.7304E-01
542.44	2.7432E-01
542.78	2.7441E-01
543.12	2.7362E-01
543.46	2.7952E-01
543.80	2.7613E-01
544.14	2.7607E-01
544.48	2.7498E-01
544.82	2.7810E-01
545.16	2.7822E-01
545.50	2.7672E-01
545.84	2.7943E-01
546.18	2.7756E-01
546.52	2.8073E-01
546.86	2.7871E-01
547.20	2.8235E-01
547.54	2.8560E-01
547.88	2.8068E-01
548.22	2.8122E-01
548.56	2.8251E-01
548.90	2.8068E-01
549.24	2.8328E-01
549.58	2.8400E-01
549.92	2.8205E-01
550.26	2.8680E-01
550.60	2.8290E-01
550.94	2.8151E-01
551.28	2.8552E-01
551.62	2.8328E-01
551.96	2.8616E-01
552.30	2.8752E-01
552.64	2.8629E-01
552.98	2.8623E-01
553.32	2.8674E-01
553.66	2.8517E-01
554.00	2.8610E-01
554.34	2.8698E-01
554.68	2.8790E-01
555.02	2.8817E-01
555.36	2.8943E-01
555.69	2.8818E-01
556.03	2.8781E-01
556.37	2.8925E-01
556.71	2.8660E-01
557.05	2.8621E-01
557.39	2.8663E-01
557.73	2.8730E-01
558.07	2.8967E-01
558.41	2.8830E-01
558.75	2.8861E-01
559.08	2.8881E-01
559.42	2.8601E-01
559.76	2.9070E-01
560.10	2.9016E-01
560.44	2.9011E-01
560.78	2.8718E-01
561.12	2.8892E-01
561.45	2.8881E-01
561.79	2.9028E-01
562.13	2.9016E-01
562.47	2.9009E-01
562.81	2.9008E-01
563.15	2.9018E-01
563.48	2.9081E-01
563.82	2.8714E-01
564.16	2.8974E-01
564.50	2.9004E-01
564.84	2.9082E-01
565.17	2.9092E-01
565.51	2.9045E-01
565.85	2.9280E-01
566.19	2.8929E-01
566.52	2.9309E-01
566.86	2.8966E-01
567.20	2.9239E-01
567.54	2.9165E-01
567.88	2.9212E-01
568.21	2.9177E-01
568.55	2.9343E-01
568.89	2.9339E-01
569.23	2.9309E-01
569.56	2.9253E-01
569.90	2.9397E-01
570.24	2.9584E-01
570.57	2.9579E-01
570.91	2.9617E-01
571.25	2.9209E-01
571.59	2.9568E-01
571.92	2.9549E-01
572.26	2.9633E-01
572.60	2.9909E-01
572.93	2.9731E-01
573.27	3.0030E-01
573.61	3.0099E-01
573.95	2.9630E-01
574.28	3.0141E-01
574.62	3.0156E-01
574.96	3.0173E-01
575.29	3.0103E-01
575.63	3.0571E-01
575.97	3.0493E-01
576.30	3.1180E-01
576.64	3.0788E-01
576.98	3.0713E-01
577.31	3.0907E-01
577.65	3.1198E-01
577.98	3.1015E-01
578.32	3.1245E-01
578.66	3.1448E-01
578.99	3.1511E-01
579.33	3.1618E-01
579.67	3.1359E-01
580.00	3.1778E-01
580.34	3.1688E-01
580.67	3.1883E-01
581.01	3.2148E-01
581.35	3.2264E-01
581.68	3.2384E-01
582.02	3.2271E-01
582.35	3.2535E-01
582.69	3.2525E-01
583.02	3.3020E-01
583.36	3.2685E-01
583.70	3.2637E-01
584.03	3.2896E-01
584.37	3.2696E-01
584.70	3.3371E-01
585.04	3.3366E-01
585.37	3.3181E-01
585.71	3.3717E-01
586.04	3.3603E-01
586.38	3.3357E-01
586.72	3.3815E-01
587.05	3.4016E-01
587.39	3.4121E-01
587.72	3.3891E-01
588.06	3.4186E-01
588.39	3.4123E-01
588.73	3.4470E-01
589.06	3.4225E-01
589.40	3.4753E-01
589.73	3.4960E-01
590.07	3.5013E-01
590.40	3.5035E-01
590.73	3.5443E-01
591.07	3.5078E-01
591.40	3.5842E-01
591.74	3.5066E-01
592.07	3.5552E-01
592.41	3.5678E-01
592.74	3.5809E-01
593.08	3.5566E-01
593.41	3.5825E-01
593.75	3.5589E-01
594.08	3.6105E-01
594.41	3.5924E-01
594.75	3.6060E-01
595.08	3.6033E-01
595.42	3.5623E-01
595.75	3.6222E-01
596.09	3.6199E-01
596.42	3.5970E-01
596.75	3.6450E-01
597.09	3.6640E-01
597.42	3.6274E-01
597.75	3.6704E-01
598.09	3.6809E-01
598.42	3.6526E-01
598.76	3.6738E-01
599.09	3.7211E-01
599.42	3.7200E-01
599.76	3.7033E-01
600.09	3.6935E-01
600.42	3.7471E-01
600.76	3.6769E-01
601.09	3.7183E-01
601.42	3.7597E-01
601.76	3.7142E-01
602.09	3.7033E-01
602.42	3.7277E-01
602.76	3.7140E-01
603.09	3.7069E-01
603.42	3.7766E-01
603.76	3.7297E-01
604.09	3.7318E-01
604.42	3.7635E-01
604.76	3.7327E-01
605.09	3.7893E-01
605.42	3.7538E-01
605.75	3.7742E-01
606.09	3.7523E-01
606.42	3.7647E-01
606.75	3.7829E-01
607.09	3.7875E-01
607.42	3.7921E-01
607.75	3.7979E-01
608.08	3.7859E-01
608.42	3.8179E-01
608.75	3.7740E-01
609.08	3.8172E-01
609.41	3.8150E-01
609.75	3.7950E-01
610.08	3.8155E-01
610.41	3.8375E-01
610.74	3.8286E-01
611.07	3.8287E-01
611.41	3.8214E-01
611.74	3.8339E-01
612.07	3.8612E-01
612.40	3.8020E-01
612.73	3.8438E-01
613.07	3.8662E-01
613.40	3.8228E-01
613.73	3.8089E-01
614.06	3.8460E-01
614.39	3.8570E-01
614.72	3.8720E-01
615.06	3.8672E-01
615.39	3.9128E-01
615.72	3.8499E-01
616.05	3.8860E-01
616.38	3.8943E-01
616.71	3.9033E-01
617.05	3.8813E-01
617.38	3.9052E-01
617.71	3.8810E-01
618.04	3.8983E-01
618.37	3.8777E-01
618.70	3.8902E-01
619.03	3.9032E-01
619.36	3.8449E-01
619.69	3.9276E-01
620.03	3.8842E-01
620.36	3.8928E-01
620.69	3.8722E-01
621.02	3.9071E-01
621.35	3.8953E-01
621.68	3.8551E-01
622.01	3.8490E-01
622.34	3.8693E-01
622.67	3.8603E-01
623.00	3.8741E-01
623.33	3.8812E-01
623.66	3.8527E-01
623.99	3.8611E-01
624.32	3.8529E-01
624.65	3.8604E-01
624.99	3.8623E-01
625.32	3.8765E-01
625.65	3.8684E-01
625.98	3.8139E-01
626.31	3.8626E-01
626.64	3.8695E-01
626.97	3.8739E-01
627.30	3.8458E-01
627.63	3.8643E-01
627.96	3.8326E-01
628.29	3.8343E-01
628.62	3.8705E-01
628.95	3.8660E-01
629.28	3.8052E-01
629.61	3.9272E-01
629.94	3.8696E-01
630.26	3.8805E-01
630.59	3.9007E-01
630.92	3.8769E-01
631.25	3.8995E-01
631.58	3.9412E-01
631.91	3.8859E-01
632.24	3.9697E-01
632.57	3.9288E-01
632.90	3.9327E-01
633.23	3.9383E-01
633.56	3.9566E-01
633.89	3.9678E-01
634.22	3.9818E-01
634.55	3.9926E-01
634.88	4.0359E-01
635.20	4.0281E-01
635.53	4.0523E-01
635.86	4.0539E-01
636.19	4.1059E-01
636.52	4.1169E-01
636.85	4.0832E-01
637.18	4.1336E-01
637.51	4.1007E-01
637.83	4.1411E-01
638.16	4.1060E-01
638.49	4.2277E-01
638.82	4.2070E-01
639.15	4.2367E-01
639.48	4.2722E-01
639.81	4.2953E-01
640.13	4.2550E-01
640.46	4.3208E-01
640.79	4.3194E-01
641.12	4.3592E-01
641.45	4.3483E-01
641.77	4.3244E-01
642.10	4.4225E-01
642.43	4.4297E-01
642.76	4.4537E-01
643.09	4.4291E-01
643.41	4.4635E-01
643.74	4.4639E-01
644.07	4.4641E-01
644.40	4.5023E-01
644.73	4.5503E-01
645.05	4.5665E-01
645.38	4.6001E-01
645.71	4.6155E-01
646.04	4.6173E-01
646.36	4.6062E-01
646.69	4.6786E-01
647.02	4.6811E-01
647.35	4.6533E-01
647.67	4.7139E-01
648.00	4.6944E-01
648.33	4.7546E-01
648.66	4.7250E-01
648.98	4.7887E-01
649.31	4.7824E-01
649.64	4.8021E-01
649.96	4.8448E-01
650.29	4.8696E-01
650.62	4.8756E-01
650.94	4.8749E-01
651.27	4.8705E-01
651.60	4.8774E-01
651.92	4.9610E-01
652.25	4.9697E-01
652.58	4.9613E-01
652.90	4.9852E-01
653.23	4.9888E-01
653.56	5.0069E-01
653.88	5.0231E-01
654.21	5.0269E-01
654.54	5.0462E-01
654.86	5.1133E-01
655.19	5.0524E-01
655.52	5.1322E-01
655.84	5.1191E-01
656.17	5.1500E-01
656.49	5.2074E-01
656.82	5.1459E-01
657.15	5.2021E-01
657.47	5.2012E-01
657.80	5.2080E-01
658.13	5.2215E-01
658.45	5.2539E-01
658.78	5.2437E-01
659.10	5.3105E-01
659.43	5.3026E-01
659.75	5.2873E-01
660.08	5.2698E-01
660.41	5.3355E-01
660.73	5.3432E-01
661.06	5.3834E-01
661.38	5.3635E-01
661.71	5.3840E-01
662.03	5.3849E-01
662.36	5.4544E-01
662.68	5.4424E-01
663.01	5.3758E-01
663.33	5.4257E-01
663.66	5.4668E-01
663.98	5.4337E-01
664.31	5.4369E-01
664.63	5.5510E-01
664.96	5.5140E-01
665.28	5.5523E-01
665.61	5.5410E-01
665.93	5.5536E-01
666.26	5.5785E-01
666.58	5.5912E-01
666.91	5.5447E-01
667.23	5.6092E-01
667.56	5.5453E-01
667.88	5.6310E-01
668.21	5.6229E-01
668.53	5.5974E-01
668.86	5.7166E-01
669.18	5.6300E-01
669.50	5.7564E-01
669.83	5.7354E-01
670.15	5.7529E-01
670.48	5.7445E-01
670.80	5.7210E-01
671.13	5.6919E-01
671.45	5.7575E-01
671.77	5.7952E-01
672.10	5.7519E-01
672.42	5.8353E-01
672.75	5.8056E-01
673.07	5.8566E-01
673.39	5.7968E-01
673.72	5.8363E-01
674.04	5.8767E-01
674.37	5.9170E-01
674.69	5.8794E-01
675.01	5.9277E-01
675.34	5.9466E-01
675.66	5.9585E-01
675.98	5.8988E-01
676.31	5.9919E-01
676.63	6.0103E-01
676.95	5.9712E-01
677.28	6.0210E-01
677.60	6.0278E-01
677.92	6.0041E-01
678.25	6.0746E-01
678.57	6.0880E-01
678.89	6.0601E-01
679.22	6.1552E-01
679.54	6.1277E-01
679.86	6.1308E-01
680.18	6.1504E-01
680.51	6.1733E-01
680.83	6.2283E-01
681.15	6.1635E-01
681.48	6.2106E-01
681.80	6.2528E-01
682.12	6.2109E-01
682.44	6.3138E-01
682.77	6.3206E-01
683.09	6.3569E-01
683.41	6.3267E-01
683.73	6.3911E-01
684.06	6.3808E-01
684.38	6.4012E-01
684.70	6.3811E-01
685.02	6.4488E-01
685.34	6.5153E-01
685.67	6.4603E-01
685.99	6.5381E-01
686.31	6.4875E-01
686.63	6.5971E-01
686.96	6.5667E-01
687.28	6.6396E-01
687.60	6.5430E-01
687.92	6.6181E-01
688.24	6.6875E-01
688.56	6.6985E-01
688.89	6.7170E-01
689.21	6.6959E-01
689.53	6.7292E-01
689.85	6.8238E-01
690.17	6.7807E-01
690.49	6.8838E-01
690.82	6.8760E-01
691.14	6.8828E-01
691.46	6.9207E-01
691.78	6.9625E-01
692.10	6.8856E-01
692.42	6.9611E-01
692.74	7.0188E-01
693.06	7.0315E-01
693.39	7.1521E-01
693.71	7.1617E-01
694.03	7.1628E-01
694.35	7.1917E-01
694.67	7.2068E-01
694.99	7.2800E-01
695.31	7.3020E-01
695.63	7.2972E-01
695.95	7.3575E-01
696.27	7.3323E-01
696.59	7.3959E-01
696.91	7.5002E-01
697.23	7.4925E-01
697.56	7.4703E-01
697.88	7.5526E-01
698.20	7.5387E-01
698.52	7.6134E-01
698.84	7.6730E-01
699.16	7.7333E-01
699.48	7.6530E-01
699.80	7.7578E-01
700.12	7.8223E-01
700.44	7.8322E-01
700.76	7.8527E-01
701.08	7.8997E-01
701.40	7.9341E-01
701.72	8.0259E-01
702.04	8.0114E-01
702.36	8.0801E-01
702.68	8.1190E-01
703.00	8.1777E-01
703.32	8.2167E-01
703.64	8.2232E-01
703.96	8.1485E-01
704.28	8.2650E-01
704.60	8.3706E-01
704.91	8.3873E-01
705.23	8.4110E-01
705.55	8.5018E-01
705.87	8.4457E-01
706.19	8.4704E-01
706.51	8.5278E-01
706.83	8.5704E-01
707.15	8.7930E-01
707.47	8.6117E-01
707.79	8.7689E-01
708.11	8.7841E-01
708.43	8.8256E-01
708.74	8.9101E-01
709.06	9.0348E-01
709.38	8.9691E-01
709.70	8.9174E-01
710.02	9.0330E-01
710.34	9.0101E-01
710.66	9.2365E-01
710.98	9.1864E-01
711.29	9.1772E-01
711.61	9.3414E-01
711.93	9.3930E-01
712.25	9.3096E-01
712.57	9.4425E-01
712.89	9.4806E-01
713.20	9.4947E-01
713.52	9.5825E-01
713.84	9.6689E-01
714.16	9.6044E-01
714.48	9.6269E-01
714.80	9.7848E-01
715.11	9.7568E-01
715.43	9.8870E-01
715.75	9.9567E-01
716.07	1.0057E00
716.39	9.8728E-01
716.70	9.9923E-01
717.02	9.9410E-01
717.34	1.0239E00
717.66	1.0131E00
717.97	1.0256E00
718.29	1.0313E00
718.61	1.0452E00
718.93	1.0447E00
719.24	1.0479E00
719.56	1.0707E00
719.88	1.0613E00
720.20	1.0738E00
720.51	1.0878E00
720.83	1.0831E00
721.15	1.1056E00
721.46	1.1014E00
721.78	1.1080E00
722.10	1.1242E00
722.42	1.1345E00
722.73	1.1423E00
723.05	1.1273E00
723.37	1.1439E00
723.68	1.1545E00
724.00	1.1560E00
724.32	1.1755E00
724.63	1.1731E00
724.95	1.1671E00
725.27	1.1783E00
725.58	1.1856E00
725.90	1.1842E00
726.22	1.2050E00
726.53	1.1799E00
726.85	1.1960E00
727.16	1.2219E00
727.48	1.2008E00
727.80	1.2145E00
728.11	1.2191E00
728.43	1.2161E00
728.74	1.2107E00
729.06	1.2334E00
729.38	1.2280E00
729.69	1.2342E00
730.01	1.2437E00
730.32	1.2515E00
730.64	1.2494E00
730.96	1.2377E00
731.27	1.2714E00
731.59	1.2422E00
731.90	1.2576E00
732.22	1.2674E00
732.53	1.2652E00
732.85	1.2823E00
733.16	1.2771E00
733.48	1.2848E00
733.80	1.2773E00
734.11	1.3013E00
734.43	1.2983E00
734.74	1.2990E00
735.06	1.3155E00
735.37	1.3256E00
735.69	1.3086E00
736.00	1.3229E00
736.32	1.3248E00
736.63	1.3337E00
736.95	1.3316E00
737.26	1.3572E00
737.58	1.3545E00
737.89	1.3652E00
738.21	1.3523E00
738.52	1.3605E00
738.83	1.3646E00
739.15	1.3641E00
739.46	1.3838E00
739.78	1.3779E00
740.09	1.3950E00
740.41	1.3873E00
740.72	1.3825E00
741.04	1.3830E00
741.35	1.3864E00
741.66	1.4093E00
741.98	1.3999E00
742.29	1.4088E00
742.61	1.4019E00
742.92	1.4061E00
743.23	1.4065E00
743.55	1.4157E00
743.86	1.4048E00
744.18	1.4128E00
744.49	1.4149E00
744.80	1.4142E00
745.12	1.4155E00
745.43	1.4205E00
745.74	1.4197E00
746.06	1.4097E00
746.37	1.4075E00
746.68	1.4183E00
747.00	1.4152E00
747.31	1.4034E00
747.62	1.3953E00
747.94	1.4169E00
748.25	1.4189E00
748.56	1.4213E00
748.88	1.4017E00
749.19	1.4116E00
749.50	1.4150E00
749.82	1.4063E00
750.13	1.4155E00
750.44	1.4158E00
750.75	1.3986E00
751.07	1.4186E00
751.38	1.4256E00
751.69	1.3999E00
752.01	1.4182E00
752.32	1.4179E00
752.63	1.4200E00
752.94	1.4272E00
753.26	1.4347E00
753.57	1.4195E00
753.88	1.4291E00
754.19	1.4302E00
754.51	1.4341E00
754.82	1.4286E00
755.13	1.4459E00
755.44	1.4436E00
755.75	1.4472E00
756.07	1.4490E00
756.38	1.4628E00
756.69	1.4593E00
757.00	1.4714E00
757.31	1.4874E00
757.63	1.4956E00
757.94	1.4990E00
758.25	1.5155E00
758.56	1.4778E00
758.87	1.5281E00
759.18	1.5329E00
759.50	1.5299E00
759.81	1.5244E00
760.12	1.5344E00
760.43	1.5465E00
760.74	1.5409E00
761.05	1.5722E00
761.36	1.5766E00
761.67	1.5881E00
761.99	1.5984E00
762.30	1.5764E00
762.61	1.6135E00
762.92	1.6092E00
763.23	1.6120E00
763.54	1.6288E00
763.85	1.6555E00
764.16	1.6593E00
764.47	1.6787E00
764.78	1.6908E00
765.10	1.6927E00
765.41	1.6935E00
765.72	1.7037E00
766.03	1.7436E00
766.34	1.7562E00
766.65	1.7672E00
766.96	1.8030E00
767.27	1.7905E00
767.58	1.7914E00
767.89	1.8096E00
768.20	1.8375E00
768.51	1.8400E00
768.82	1.8423E00
769.13	1.8781E00
769.44	1.9025E00
769.75	1.8999E00
770.06	1.9040E00
770.37	1.9037E00
770.68	1.9485E00
770.99	1.9629E00
771.30	1.9734E00
771.61	2.0347E00
771.92	1.9897E00
772.23	2.0154E00
772.54	2.0597E00
772.85	2.0409E00
773.16	2.0597E00
773.47	2.1229E00
773.78	2.1068E00
774.09	2.1408E00
774.39	2.1432E00
774.70	2.1501E00
775.01	2.1918E00
775.32	2.2002E00
775.63	2.2232E00
775.94	2.2490E00
776.25	2.2366E00
776.56	2.2599E00
776.87	2.3171E00
777.18	2.3088E00
777.48	2.3337E00
777.79	2.3558E00
778.10	2.3775E00
778.41	2.3945E00
778.72	2.4252E00
779.03	2.4338E00
779.34	2.4873E00
779.65	2.4890E00
779.95	2.5357E00
780.26	2.5100E00
780.57	2.5543E00
780.88	2.5490E00
781.19	2.5956E00
781.50	2.5999E00
781.80	2.6208E00
782.11	2.6260E00
782.42	2.6913E00
782.73	2.6413E00
783.04	2.7444E00
783.34	2.7447E00
783.65	2.7652E00
783.96	2.7727E00
784.27	2.7877E00
784.57	2.8120E00
784.88	2.8425E00
785.19	2.8566E00
785.50	2.8913E00
785.81	2.9285E00
786.11	2.8891E00
786.42	2.9222E00
786.73	2.9522E00
787.04	2.9884E00
787.34	3.0406E00
787.65	3.0526E00
787.96	3.1258E00
788.26	3.1000E00
788.57	3.1635E00
788.88	3.1278E00
789.19	3.2232E00
789.49	3.1947E00
789.80	3.2562E00
790.11	3.2637E00
790.41	3.2944E00
790.72	3.3273E00
791.03	3.3403E00
791.33	3.3760E00
791.64	3.4514E00
791.95	3.3913E00
792.25	3.5028E00
792.56	3.4683E00
792.87	3.5168E00
793.17	3.5414E00
793.48	3.5575E00
793.79	3.5900E00
794.09	3.6631E00
794.40	3.6084E00
794.70	3.6227E00
795.01	3.6358E00
795.32	3.6877E00
795.62	3.7593E00
795.93	3.7676E00
796.23	3.7793E00
796.54	3.8315E00
796.85	3.8119E00
797.15	3.8626E00
797.46	3.8924E00
797.76	3.9963E00
798.07	3.9775E00
798.37	3.9837E00
798.68	4.0436E00
798.99	4.0442E00
799.29	4.0861E00
799.60	4.1600E00
799.90	4.1591E00
800.21	4.2173E00
800.51	4.2508E00
800.82	4.2417E00
801.12	4.3182E00
801.43	4.3081E00
801.73	4.4035E00
802.04	4.3884E00
802.34	4.3858E00
802.65	4.4390E00
802.95	4.5868E00
803.26	4.5521E00
803.56	4.4697E00
803.87	4.5419E00
804.17	4.5782E00
804.48	4.5739E00
804.78	4.6591E00
805.09	4.7386E00
805.39	4.7091E00
805.70	4.7336E00
806.00	4.8064E00
806.30	4.8000E00
806.61	4.8702E00
806.91	4.8943E00
807.22	4.9497E00
807.52	4.9756E00
807.83	4.9972E00
808.13	5.0555E00
808.43	4.9587E00
808.74	5.0957E00
809.04	5.1349E00
809.35	5.1090E00
809.65	5.2344E00
809.95	5.2646E00
810.26	5.3221E00
810.56	5.3429E00
810.86	5.4165E00
811.17	5.4546E00
811.47	5.4544E00
811.77	5.4497E00
812.08	5.4442E00
812.38	5.6080E00
812.69	5.4954E00
812.99	5.6751E00
813.29	5.7071E00
813.59	5.7547E00
813.90	5.7682E00
814.20	5.7764E00
814.50	5.8579E00
814.81	5.7932E00
815.11	5.9251E00
815.41	6.0742E00
815.72	6.0026E00
816.02	6.0384E00
816.32	6.0570E00
816.62	6.0151E00
816.93	6.1259E00
817.23	6.3090E00
817.53	6.1943E00
817.84	6.3309E00
818.14	6.3189E00
818.44	6.2997E00
818.74	6.4848E00
819.04	6.6103E00
819.35	6.5314E00
819.65	6.5782E00
819.95	6.7454E00
820.25	6.7540E00
820.56	6.7428E00
820.86	6.8237E00
821.16	6.8840E00
821.46	6.8815E00
821.76	6.9165E00
822.07	6.8674E00
822.37	6.9916E00
822.67	7.1057E00
822.97	7.1544E00
823.27	7.1368E00
823.57	7.2508E00
823.88	7.2127E00
824.18	7.3322E00
824.48	7.3161E00
824.78	7.4120E00
825.08	7.3867E00
825.38	7.5111E00
825.69	7.5139E00
825.99	7.6200E00
826.29	7.6640E00
826.59	7.6262E00
826.89	7.7716E00
827.19	7.5727E00
827.49	8.0723E00
827.79	7.9549E00
828.09	7.8803E00
828.39	8.0810E00
828.70	8.0499E00
829.00	8.0350E00
829.30	8.1776E00
829.60	8.3130E00
829.90	8.1963E00
830.20	8.1348E00
830.50	8.4956E00
830.80	8.5428E00
831.10	8.3791E00
831.40	8.6761E00
831.70	8.5847E00
832.00	8.6302E00
832.30	8.8801E00
832.60	8.7510E00
832.90	8.9130E00
833.20	9.0838E00
833.50	8.8814E00
833.80	9.0412E00
834.10	9.1395E00
834.40	8.9701E00
834.70	9.1854E00
835.00	9.2326E00
835.30	9.1850E00
835.60	9.3429E00
835.90	9.4220E00
836.20	9.6417E00
836.50	9.6319E00
836.80	9.6472E00
837.10	9.5884E00
837.40	9.7731E00
837.70	9.8338E00
838.00	9.8289E00
838.30	9.7938E00
838.60	1.0181E01
838.90	1.0166E01
839.19	1.0064E01
839.49	1.0451E01
839.79	1.0313E01
840.09	1.0423E01
840.39	1.0263E01
840.69	1.0463E01
840.99	1.1034E01
841.29	1.0868E01
841.59	1.0888E01
841.88	1.0958E01
842.18	1.1020E01
842.48	1.1299E01
842.78	1.1237E01
843.08	1.1355E01
843.38	1.1194E01
843.68	1.1549E01
843.97	1.1589E01
844.27	1.1644E01
844.57	1.1848E01
844.87	1.1908E01
845.17	1.1795E01
845.47	1.1645E01
845.76	1.1988E01
846.06	1.2194E01
846.36	1.2073E01
846.66	1.2332E01
846.96	1.2258E01
847.25	1.2305E01
847.55	1.2403E01
847.85	1.2720E01
848.15	1.2497E01
848.44	1.2887E01
848.74	1.2577E01
849.04	1.2930E01
849.34	1.3008E01
849.63	1.3278E01
849.93	1.3238E01
850.23	1.3759E01
850.53	1.3185E01
850.82	1.3531E01
851.12	1.3524E01
851.42	1.3367E01
851.71	1.3720E01
852.01	1.4013E01
852.31	1.4258E01
852.61	1.4329E01
852.90	1.4361E01
853.20	1.4488E01
853.50	1.4705E01
853.79	1.5089E01
854.09	1.4547E01
854.39	1.4777E01
854.68	1.5593E01
854.98	1.5349E01
855.28	1.5323E01
855.57	1.5513E01
855.87	1.5562E01
856.17	1.5637E01
856.46	1.5612E01
856.76	1.5754E01
857.05	1.6046E01
857.35	1.6161E01
857.65	1.5957E01
857.94	1.6365E01
858.24	1.6314E01
858.53	1.6737E01
858.83	1.6678E01
859.13	1.6973E01
859.42	1.6789E01
859.72	1.7366E01
860.01	1.7984E01
860.31	1.7548E01
860.60	1.7954E01
860.90	1.7907E01
861.20	1.8158E01
861.49	1.7866E01
861.79	1.8690E01
862.08	1.8740E01
862.38	1.9093E01
862.67	1.9040E01
862.97	1.9198E01
863.26	1.9013E01
863.56	2.0069E01
863.85	1.9944E01
864.15	1.9696E01
864.44	2.0391E01
864.74	2.0172E01
865.03	2.0073E01
865.33	1.9752E01
865.62	2.0120E01
865.92	1.9686E01
866.21	2.0975E01
866.51	2.0659E01
866.80	2.0556E01
867.10	2.0781E01
867.39	2.0272E01
867.69	2.1087E01
867.98	2.0042E01
868.27	2.0711E01
868.57	2.0687E01
868.86	2.1988E01
869.16	2.1582E01
869.45	2.1679E01
869.75	2.1147E01
870.04	2.2038E01
870.33	2.2319E01
870.63	2.1892E01
870.92	2.3108E01
871.22	2.3584E01
871.51	2.2774E01
871.80	2.3076E01
872.10	2.3076E01
>>>>>End Processed Spectral Data<<<<<
