SpectraSuite Data File
++++++++++++++++++++++++++++++++++++
Date: Tue May 12 09:46:42 PDT 2015
User: schluterlab
Dark Spectrum Present: Yes
Reference Spectrum Present: No
Number of Sampled Component Spectra: 1
Spectrometers: USB2E3373
Integration Time (usec): 2000000 (USB2E3373)
Spectra Averaged: 3 (USB2E3373)
Boxcar Smoothing: 0 (USB2E3373)
Correct for Electrical Dark: No (USB2E3373)
Strobe/Lamp Enabled: No (USB2E3373)
Correct for Detector Non-linearity: No (USB2E3373)
Correct for Stray Light: No (USB2E3373)
Number of Pixels in Processed Spectrum: 2048
>>>>>Begin Processed Spectral Data<<<<<
178.53	0.0000E00
178.91	0.0000E00
179.29	0.0000E00
179.67	0.0000E00
180.04	0.0000E00
180.42	0.0000E00
180.80	0.0000E00
181.18	0.0000E00
181.56	0.0000E00
181.94	0.0000E00
182.31	0.0000E00
182.69	0.0000E00
183.07	0.0000E00
183.45	0.0000E00
183.83	0.0000E00
184.20	0.0000E00
184.58	0.0000E00
184.96	0.0000E00
185.34	0.0000E00
185.72	0.0000E00
186.09	0.0000E00
186.47	0.0000E00
186.85	0.0000E00
187.23	0.0000E00
187.61	0.0000E00
187.98	0.0000E00
188.36	0.0000E00
188.74	0.0000E00
189.12	0.0000E00
189.49	0.0000E00
189.87	0.0000E00
190.25	0.0000E00
190.63	0.0000E00
191.00	0.0000E00
191.38	0.0000E00
191.76	0.0000E00
192.14	0.0000E00
192.51	0.0000E00
192.89	0.0000E00
193.27	0.0000E00
193.65	0.0000E00
194.02	0.0000E00
194.40	0.0000E00
194.78	0.0000E00
195.15	0.0000E00
195.53	-0.0000E00
195.91	0.0000E00
196.29	0.0000E00
196.66	0.0000E00
197.04	0.0000E00
197.42	0.0000E00
197.79	0.0000E00
198.17	0.0000E00
198.55	0.0000E00
198.92	0.0000E00
199.30	0.0000E00
199.68	0.0000E00
200.05	0.0000E00
200.43	0.0000E00
200.81	0.0000E00
201.18	0.0000E00
201.56	0.0000E00
201.94	0.0000E00
202.31	-0.0000E00
202.69	0.0000E00
203.07	0.0000E00
203.44	0.0000E00
203.82	0.0000E00
204.19	0.0000E00
204.57	0.0000E00
204.95	0.0000E00
205.32	0.0000E00
205.70	0.0000E00
206.08	0.0000E00
206.45	0.0000E00
206.83	0.0000E00
207.20	0.0000E00
207.58	0.0000E00
207.96	0.0000E00
208.33	0.0000E00
208.71	0.0000E00
209.08	0.0000E00
209.46	0.0000E00
209.84	0.0000E00
210.21	0.0000E00
210.59	0.0000E00
210.96	0.0000E00
211.34	0.0000E00
211.71	0.0000E00
212.09	0.0000E00
212.46	0.0000E00
212.84	0.0000E00
213.22	0.0000E00
213.59	0.0000E00
213.97	0.0000E00
214.34	0.0000E00
214.72	0.0000E00
215.09	0.0000E00
215.47	0.0000E00
215.84	0.0000E00
216.22	0.0000E00
216.59	0.0000E00
216.97	0.0000E00
217.34	0.0000E00
217.72	0.0000E00
218.09	0.0000E00
218.47	0.0000E00
218.84	0.0000E00
219.22	0.0000E00
219.59	0.0000E00
219.97	0.0000E00
220.34	0.0000E00
220.72	0.0000E00
221.09	0.0000E00
221.47	0.0000E00
221.84	0.0000E00
222.22	0.0000E00
222.59	0.0000E00
222.97	0.0000E00
223.34	0.0000E00
223.72	0.0000E00
224.09	0.0000E00
224.46	0.0000E00
224.84	0.0000E00
225.21	0.0000E00
225.59	0.0000E00
225.96	0.0000E00
226.34	0.0000E00
226.71	0.0000E00
227.08	0.0000E00
227.46	0.0000E00
227.83	0.0000E00
228.21	0.0000E00
228.58	0.0000E00
228.95	0.0000E00
229.33	0.0000E00
229.70	0.0000E00
230.08	0.0000E00
230.45	0.0000E00
230.82	0.0000E00
231.20	0.0000E00
231.57	0.0000E00
231.95	0.0000E00
232.32	0.0000E00
232.69	0.0000E00
233.07	0.0000E00
233.44	0.0000E00
233.81	0.0000E00
234.19	0.0000E00
234.56	0.0000E00
234.93	0.0000E00
235.31	0.0000E00
235.68	0.0000E00
236.05	0.0000E00
236.43	0.0000E00
236.80	0.0000E00
237.17	0.0000E00
237.55	0.0000E00
237.92	0.0000E00
238.29	0.0000E00
238.67	0.0000E00
239.04	0.0000E00
239.41	0.0000E00
239.79	0.0000E00
240.16	0.0000E00
240.53	0.0000E00
240.91	0.0000E00
241.28	0.0000E00
241.65	0.0000E00
242.02	0.0000E00
242.40	0.0000E00
242.77	0.0000E00
243.14	0.0000E00
243.51	0.0000E00
243.89	0.0000E00
244.26	0.0000E00
244.63	0.0000E00
245.00	0.0000E00
245.38	0.0000E00
245.75	0.0000E00
246.12	0.0000E00
246.49	0.0000E00
246.87	0.0000E00
247.24	0.0000E00
247.61	0.0000E00
247.98	0.0000E00
248.36	0.0000E00
248.73	0.0000E00
249.10	0.0000E00
249.47	0.0000E00
249.84	0.0000E00
250.22	0.0000E00
250.59	0.0000E00
250.96	0.0000E00
251.33	0.0000E00
251.70	0.0000E00
252.08	0.0000E00
252.45	0.0000E00
252.82	0.0000E00
253.19	0.0000E00
253.56	0.0000E00
253.94	0.0000E00
254.31	0.0000E00
254.68	0.0000E00
255.05	0.0000E00
255.42	0.0000E00
255.79	0.0000E00
256.16	0.0000E00
256.54	0.0000E00
256.91	0.0000E00
257.28	0.0000E00
257.65	0.0000E00
258.02	0.0000E00
258.39	0.0000E00
258.76	0.0000E00
259.14	0.0000E00
259.51	0.0000E00
259.88	0.0000E00
260.25	0.0000E00
260.62	0.0000E00
260.99	0.0000E00
261.36	0.0000E00
261.73	0.0000E00
262.10	0.0000E00
262.47	0.0000E00
262.85	0.0000E00
263.22	0.0000E00
263.59	0.0000E00
263.96	0.0000E00
264.33	0.0000E00
264.70	0.0000E00
265.07	0.0000E00
265.44	0.0000E00
265.81	0.0000E00
266.18	0.0000E00
266.55	0.0000E00
266.92	0.0000E00
267.29	0.0000E00
267.66	0.0000E00
268.03	0.0000E00
268.40	0.0000E00
268.77	0.0000E00
269.14	0.0000E00
269.51	0.0000E00
269.88	0.0000E00
270.25	0.0000E00
270.62	0.0000E00
270.99	0.0000E00
271.36	0.0000E00
271.73	0.0000E00
272.10	0.0000E00
272.47	0.0000E00
272.84	0.0000E00
273.21	0.0000E00
273.58	0.0000E00
273.95	0.0000E00
274.32	0.0000E00
274.69	0.0000E00
275.06	0.0000E00
275.43	0.0000E00
275.80	0.0000E00
276.17	0.0000E00
276.54	0.0000E00
276.91	0.0000E00
277.28	0.0000E00
277.65	0.0000E00
278.02	0.0000E00
278.39	0.0000E00
278.76	0.0000E00
279.13	0.0000E00
279.50	0.0000E00
279.87	0.0000E00
280.23	0.0000E00
280.60	0.0000E00
280.97	0.0000E00
281.34	0.0000E00
281.71	0.0000E00
282.08	0.0000E00
282.45	0.0000E00
282.82	0.0000E00
283.19	0.0000E00
283.56	0.0000E00
283.92	0.0000E00
284.29	0.0000E00
284.66	0.0000E00
285.03	0.0000E00
285.40	0.0000E00
285.77	0.0000E00
286.14	0.0000E00
286.51	0.0000E00
286.87	0.0000E00
287.24	0.0000E00
287.61	0.0000E00
287.98	0.0000E00
288.35	0.0000E00
288.72	0.0000E00
289.08	0.0000E00
289.45	0.0000E00
289.82	0.0000E00
290.19	0.0000E00
290.56	0.0000E00
290.93	0.0000E00
291.29	0.0000E00
291.66	0.0000E00
292.03	0.0000E00
292.40	0.0000E00
292.77	0.0000E00
293.13	0.0000E00
293.50	0.0000E00
293.87	0.0000E00
294.24	0.0000E00
294.60	0.0000E00
294.97	0.0000E00
295.34	0.0000E00
295.71	0.0000E00
296.08	0.0000E00
296.44	0.0000E00
296.81	0.0000E00
297.18	0.0000E00
297.55	0.0000E00
297.91	0.0000E00
298.28	0.0000E00
298.65	0.0000E00
299.02	0.0000E00
299.38	0.0000E00
299.75	0.0000E00
300.12	1.1191E-01
300.48	2.9225E-01
300.85	1.1266E-01
301.22	3.0618E-01
301.59	9.9047E-02
301.95	1.1438E-01
302.32	1.5970E-01
302.69	1.5970E-01
303.05	9.9841E-02
303.42	1.3149E-01
303.79	1.4950E-01
304.15	9.7908E-02
304.52	1.0429E-01
304.89	9.8851E-02
305.25	2.0532E-01
305.62	1.2365E-01
305.99	1.5256E-01
306.35	8.8168E-02
306.72	1.1717E-01
307.09	1.2312E-01
307.45	1.1274E-01
307.82	7.7231E-02
308.19	9.6274E-02
308.55	1.0205E-01
308.92	1.2677E-01
309.29	9.8786E-02
309.65	1.8985E-01
310.02	9.4820E-02
310.38	8.9051E-02
310.75	1.1830E-01
311.12	1.1345E-01
311.48	1.9122E-01
311.85	1.3421E-01
312.22	9.8089E-02
312.58	1.9719E-01
312.95	1.2312E-01
313.31	1.1426E-01
313.68	1.4946E-01
314.05	2.5141E-01
314.41	1.3583E-01
314.78	8.5033E-02
315.14	2.1236E-01
315.51	2.7946E-01
315.87	1.2340E-01
316.24	1.8543E-01
316.61	1.6822E-01
316.97	1.1705E-01
317.34	2.0913E-01
317.70	1.5229E-01
318.07	1.6160E-01
318.43	1.9255E-01
318.80	1.3677E-01
319.16	1.7436E-01
319.53	1.2106E-01
319.89	2.5196E-01
320.26	1.9781E-01
320.62	2.2922E-01
320.99	2.1287E-01
321.35	1.2478E-01
321.72	1.8318E-01
322.08	2.5508E-01
322.45	1.9332E-01
322.81	1.6750E-01
323.18	5.6078E-01
323.54	2.8536E-01
323.91	2.0884E-01
324.27	4.4008E-01
324.64	3.3734E-01
325.00	2.6281E-01
325.37	4.1483E-01
325.73	1.5694E-01
326.10	6.1240E-01
326.46	2.7560E-01
326.83	2.5181E-01
327.19	5.0355E-01
327.56	2.0493E-01
327.92	2.9389E-01
328.29	2.3403E-01
328.65	2.8828E-01
329.01	3.6438E-01
329.38	2.4302E-01
329.74	2.1222E-01
330.11	3.3763E-01
330.47	2.1607E-01
330.84	3.0345E-01
331.20	2.9989E-01
331.56	2.8233E-01
331.93	3.2105E-01
332.29	3.2009E-01
332.66	2.0806E-01
333.02	2.5728E-01
333.38	3.8064E-01
333.75	1.8816E-01
334.11	3.7752E-01
334.48	2.8134E-01
334.84	2.6060E-01
335.20	3.3036E-01
335.57	6.1790E-01
335.93	4.0944E-01
336.29	3.2154E-01
336.66	2.9212E-01
337.02	2.3387E-01
337.38	2.4985E-01
337.75	2.6165E-01
338.11	2.2502E-01
338.47	3.2526E-01
338.84	2.7442E-01
339.20	2.2974E-01
339.56	6.7566E-01
339.93	2.5788E-01
340.29	2.7830E-01
340.65	2.9006E-01
341.02	4.9719E-01
341.38	3.3435E-01
341.74	3.6794E-01
342.11	3.6630E-01
342.47	3.7815E-01
342.83	2.5071E-01
343.20	4.7428E-01
343.56	2.9369E-01
343.92	4.8367E-01
344.28	2.5612E-01
344.65	3.9675E-01
345.01	2.4585E-01
345.37	3.9941E-01
345.73	3.8234E-01
346.10	3.2113E-01
346.46	4.0140E-01
346.82	3.0134E-01
347.19	6.9348E-01
347.55	2.8530E-01
347.91	2.9116E-01
348.27	3.2571E-01
348.63	2.8254E-01
349.00	2.9675E-01
349.36	5.8425E-01
349.72	3.7292E-01
350.08	5.6215E-01
350.45	3.4757E-01
350.81	3.2112E-01
351.17	4.5130E-01
351.53	4.7554E-01
351.89	3.8962E-01
352.26	4.6456E-01
352.62	3.6497E-01
352.98	4.1670E-01
353.34	3.8021E-01
353.70	5.2681E-01
354.07	4.4651E-01
354.43	4.7048E-01
354.79	4.8039E-01
355.15	3.9366E-01
355.51	3.7049E-01
355.87	4.1401E-01
356.24	4.2561E-01
356.60	4.1231E-01
356.96	4.3622E-01
357.32	3.6000E-01
357.68	3.4633E-01
358.04	2.9964E-01
358.40	3.2623E-01
358.77	3.0232E-01
359.13	3.7590E-01
359.49	4.3615E-01
359.85	4.7678E-01
360.21	3.7196E-01
360.57	4.6275E-01
360.93	4.5445E-01
361.29	4.9998E-01
361.66	3.8888E-01
362.02	3.7820E-01
362.38	4.9661E-01
362.74	4.5729E-01
363.10	5.5283E-01
363.46	5.9627E-01
363.82	5.0398E-01
364.18	6.3795E-01
364.54	6.1107E-01
364.90	6.1377E-01
365.26	6.0757E-01
365.62	7.2735E-01
365.98	6.7568E-01
366.35	5.6551E-01
366.71	7.0658E-01
367.07	9.0388E-01
367.43	5.8310E-01
367.79	8.4487E-01
368.15	7.5203E-01
368.51	9.1459E-01
368.87	7.8957E-01
369.23	8.5948E-01
369.59	6.9960E-01
369.95	7.8818E-01
370.31	7.6756E-01
370.67	8.8774E-01
371.03	7.3023E-01
371.39	7.3896E-01
371.75	7.6656E-01
372.11	7.9481E-01
372.47	7.0194E-01
372.83	7.2344E-01
373.19	5.8484E-01
373.55	7.4270E-01
373.91	7.5927E-01
374.27	8.1042E-01
374.63	7.9054E-01
374.99	7.2868E-01
375.35	7.4189E-01
375.71	7.9663E-01
376.07	8.5086E-01
376.42	8.8083E-01
376.78	8.2567E-01
377.14	9.5356E-01
377.50	1.0715E00
377.86	9.1261E-01
378.22	8.5789E-01
378.58	8.5289E-01
378.94	8.2545E-01
379.30	8.6691E-01
379.66	8.5395E-01
380.02	8.3506E-01
380.38	8.1293E-01
380.74	8.5153E-01
381.09	8.9370E-01
381.45	8.2418E-01
381.81	7.9703E-01
382.17	8.3973E-01
382.53	8.7333E-01
382.89	7.8308E-01
383.25	8.2421E-01
383.61	8.1706E-01
383.97	7.9424E-01
384.32	7.9218E-01
384.68	7.5419E-01
385.04	8.3387E-01
385.40	8.5931E-01
385.76	8.5704E-01
386.12	8.0557E-01
386.48	8.1832E-01
386.83	7.6303E-01
387.19	7.6143E-01
387.55	8.5172E-01
387.91	8.2369E-01
388.27	7.7036E-01
388.62	8.6550E-01
388.98	7.8416E-01
389.34	8.7028E-01
389.70	7.8893E-01
390.06	8.1481E-01
390.42	8.2233E-01
390.77	8.0237E-01
391.13	8.1910E-01
391.49	8.0407E-01
391.85	8.4734E-01
392.20	7.4882E-01
392.56	7.5950E-01
392.92	7.6886E-01
393.28	7.7196E-01
393.64	8.0719E-01
393.99	8.2257E-01
394.35	8.0865E-01
394.71	7.9952E-01
395.07	7.8299E-01
395.42	7.8659E-01
395.78	8.0108E-01
396.14	7.2309E-01
396.50	7.2556E-01
396.85	7.9774E-01
397.21	7.6844E-01
397.57	7.8870E-01
397.92	7.3812E-01
398.28	7.1388E-01
398.64	8.4783E-01
399.00	6.8402E-01
399.35	7.1190E-01
399.71	7.6348E-01
400.07	7.4553E-01
400.42	7.2798E-01
400.78	7.4587E-01
401.14	7.4932E-01
401.49	6.9482E-01
401.85	6.9049E-01
402.21	7.0167E-01
402.57	6.9714E-01
402.92	7.3519E-01
403.28	6.9890E-01
403.63	6.9534E-01
403.99	7.1153E-01
404.35	6.9118E-01
404.70	6.7834E-01
405.06	6.8958E-01
405.42	7.0470E-01
405.77	6.5532E-01
406.13	6.5450E-01
406.49	6.4945E-01
406.84	6.5747E-01
407.20	6.4190E-01
407.55	6.9243E-01
407.91	7.0531E-01
408.27	6.6087E-01
408.62	6.6419E-01
408.98	6.7255E-01
409.34	6.8463E-01
409.69	6.5431E-01
410.05	6.9023E-01
410.40	6.5879E-01
410.76	6.0960E-01
411.11	6.1493E-01
411.47	6.6636E-01
411.83	6.3153E-01
412.18	6.4386E-01
412.54	6.3125E-01
412.89	6.2697E-01
413.25	6.5132E-01
413.60	6.7921E-01
413.96	6.3690E-01
414.31	6.4102E-01
414.67	6.7646E-01
415.03	6.6305E-01
415.38	6.7920E-01
415.74	6.7106E-01
416.09	6.6652E-01
416.45	6.7610E-01
416.80	6.6332E-01
417.16	6.5769E-01
417.51	6.5372E-01
417.87	6.2944E-01
418.22	6.2199E-01
418.58	6.3543E-01
418.93	6.0849E-01
419.29	6.5232E-01
419.64	6.3353E-01
420.00	5.9812E-01
420.35	5.8791E-01
420.71	6.1681E-01
421.06	6.1990E-01
421.42	6.3549E-01
421.77	6.2616E-01
422.12	6.2514E-01
422.48	5.9193E-01
422.83	6.3206E-01
423.19	5.9732E-01
423.54	5.9814E-01
423.90	6.0486E-01
424.25	5.7066E-01
424.61	6.3019E-01
424.96	5.8969E-01
425.31	5.8573E-01
425.67	5.6171E-01
426.02	5.8683E-01
426.38	5.8667E-01
426.73	5.5578E-01
427.09	5.8188E-01
427.44	5.5760E-01
427.79	5.6363E-01
428.15	5.8071E-01
428.50	5.7675E-01
428.85	5.9045E-01
429.21	5.4472E-01
429.56	5.3290E-01
429.92	5.4328E-01
430.27	5.6242E-01
430.62	5.6128E-01
430.98	5.6809E-01
431.33	5.5537E-01
431.68	5.3688E-01
432.04	5.3271E-01
432.39	5.4035E-01
432.74	5.6017E-01
433.10	5.2502E-01
433.45	5.5642E-01
433.80	5.5326E-01
434.16	5.6562E-01
434.51	5.3831E-01
434.86	5.6028E-01
435.22	5.4005E-01
435.57	5.7743E-01
435.92	5.6551E-01
436.28	5.6300E-01
436.63	5.2254E-01
436.98	5.5917E-01
437.34	5.5510E-01
437.69	5.2732E-01
438.04	5.1336E-01
438.39	5.4934E-01
438.75	5.6217E-01
439.10	5.0768E-01
439.45	5.5186E-01
439.81	5.4575E-01
440.16	5.1282E-01
440.51	5.3594E-01
440.86	5.3385E-01
441.22	5.2197E-01
441.57	5.2748E-01
441.92	5.1217E-01
442.27	5.3694E-01
442.63	5.2569E-01
442.98	5.6134E-01
443.33	5.4919E-01
443.68	5.1104E-01
444.03	4.8234E-01
444.39	4.8443E-01
444.74	5.2571E-01
445.09	5.3340E-01
445.44	5.3547E-01
445.79	4.7234E-01
446.15	5.0735E-01
446.50	5.2435E-01
446.85	4.9276E-01
447.20	4.7961E-01
447.55	5.1886E-01
447.91	4.9908E-01
448.26	5.1194E-01
448.61	5.0689E-01
448.96	4.9704E-01
449.31	5.0486E-01
449.66	5.0904E-01
450.02	5.0151E-01
450.37	5.0172E-01
450.72	4.9479E-01
451.07	5.3368E-01
451.42	5.3097E-01
451.77	5.0114E-01
452.12	5.0081E-01
452.47	5.2350E-01
452.83	4.8164E-01
453.18	5.0933E-01
453.53	5.0371E-01
453.88	4.7415E-01
454.23	4.6844E-01
454.58	4.6805E-01
454.93	5.0316E-01
455.28	4.9994E-01
455.63	4.8540E-01
455.98	4.7423E-01
456.34	4.9960E-01
456.69	4.8451E-01
457.04	4.8806E-01
457.39	4.5810E-01
457.74	4.6747E-01
458.09	4.5538E-01
458.44	4.5479E-01
458.79	4.4452E-01
459.14	4.5977E-01
459.49	4.7869E-01
459.84	4.5190E-01
460.19	4.8062E-01
460.54	4.7796E-01
460.89	4.4012E-01
461.24	4.8188E-01
461.59	4.6097E-01
461.94	4.6711E-01
462.29	4.3698E-01
462.64	4.6209E-01
462.99	4.6656E-01
463.34	4.9333E-01
463.69	4.6237E-01
464.04	4.3158E-01
464.39	4.4800E-01
464.74	4.5435E-01
465.09	4.6664E-01
465.44	4.3908E-01
465.79	4.5322E-01
466.14	4.5566E-01
466.49	4.4767E-01
466.84	4.4378E-01
467.19	4.5923E-01
467.54	4.6075E-01
467.89	4.3810E-01
468.24	4.1574E-01
468.59	4.2941E-01
468.94	4.2070E-01
469.29	4.2262E-01
469.64	4.3655E-01
469.99	4.2072E-01
470.34	4.0706E-01
470.68	4.3347E-01
471.03	4.1836E-01
471.38	4.1926E-01
471.73	3.9975E-01
472.08	3.9491E-01
472.43	3.8135E-01
472.78	4.0261E-01
473.13	3.9807E-01
473.48	3.9169E-01
473.83	3.8392E-01
474.17	3.8929E-01
474.52	3.8524E-01
474.87	3.6959E-01
475.22	3.7747E-01
475.57	3.5915E-01
475.92	3.4986E-01
476.27	3.6042E-01
476.61	3.5076E-01
476.96	3.4180E-01
477.31	3.3153E-01
477.66	3.3767E-01
478.01	3.3569E-01
478.36	3.3402E-01
478.70	3.2921E-01
479.05	3.3393E-01
479.40	3.1879E-01
479.75	3.1555E-01
480.10	3.1739E-01
480.45	3.0986E-01
480.79	3.0846E-01
481.14	3.1281E-01
481.49	3.0533E-01
481.84	2.9968E-01
482.19	2.9790E-01
482.53	2.9713E-01
482.88	2.9462E-01
483.23	2.8958E-01
483.58	2.8366E-01
483.92	2.9053E-01
484.27	2.8175E-01
484.62	2.7975E-01
484.97	2.7377E-01
485.31	2.7250E-01
485.66	2.7827E-01
486.01	2.7844E-01
486.36	2.6516E-01
486.70	2.7237E-01
487.05	2.7069E-01
487.40	2.7100E-01
487.75	2.6273E-01
488.09	2.6320E-01
488.44	2.6545E-01
488.79	2.6146E-01
489.13	2.5863E-01
489.48	2.6185E-01
489.83	2.6251E-01
490.17	2.5510E-01
490.52	2.5519E-01
490.87	2.5619E-01
491.22	2.5979E-01
491.56	2.5613E-01
491.91	2.5964E-01
492.26	2.5650E-01
492.60	2.5639E-01
492.95	2.5894E-01
493.30	2.5833E-01
493.64	2.5530E-01
493.99	2.5651E-01
494.34	2.5365E-01
494.68	2.5075E-01
495.03	2.5699E-01
495.37	2.5469E-01
495.72	2.5731E-01
496.07	2.5161E-01
496.41	2.5320E-01
496.76	2.5147E-01
497.11	2.5417E-01
497.45	2.5280E-01
497.80	2.5327E-01
498.14	2.5326E-01
498.49	2.5347E-01
498.84	2.5441E-01
499.18	2.5380E-01
499.53	2.5381E-01
499.87	2.5134E-01
500.22	2.5459E-01
500.56	2.5378E-01
500.91	2.5341E-01
501.26	2.5328E-01
501.60	2.5291E-01
501.95	2.5072E-01
502.29	2.5396E-01
502.64	2.4931E-01
502.98	2.5354E-01
503.33	2.5114E-01
503.67	2.5190E-01
504.02	2.5119E-01
504.36	2.5067E-01
504.71	2.5139E-01
505.06	2.4920E-01
505.40	2.4923E-01
505.75	2.5071E-01
506.09	2.5086E-01
506.44	2.5058E-01
506.78	2.4830E-01
507.13	2.4969E-01
507.47	2.4756E-01
507.82	2.4750E-01
508.16	2.5005E-01
508.51	2.4772E-01
508.85	2.4462E-01
509.19	2.4778E-01
509.54	2.4740E-01
509.88	2.4757E-01
510.23	2.4395E-01
510.57	2.4517E-01
510.92	2.4438E-01
511.26	2.4472E-01
511.61	2.4442E-01
511.95	2.4480E-01
512.30	2.4326E-01
512.64	2.4508E-01
512.98	2.4072E-01
513.33	2.4254E-01
513.67	2.4312E-01
514.02	2.4218E-01
514.36	2.4020E-01
514.70	2.4146E-01
515.05	2.3900E-01
515.39	2.4094E-01
515.74	2.3846E-01
516.08	2.3730E-01
516.42	2.3931E-01
516.77	2.3987E-01
517.11	2.4012E-01
517.46	2.4123E-01
517.80	2.3752E-01
518.14	2.3928E-01
518.49	2.3699E-01
518.83	2.3782E-01
519.17	2.3773E-01
519.52	2.3850E-01
519.86	2.3726E-01
520.20	2.3634E-01
520.55	2.3708E-01
520.89	2.3551E-01
521.23	2.3809E-01
521.58	2.3742E-01
521.92	2.3930E-01
522.26	2.4063E-01
522.61	2.3668E-01
522.95	2.3827E-01
523.29	2.3491E-01
523.64	2.3534E-01
523.98	2.3661E-01
524.32	2.3721E-01
524.66	2.3937E-01
525.01	2.3952E-01
525.35	2.4016E-01
525.69	2.4073E-01
526.04	2.4004E-01
526.38	2.3648E-01
526.72	2.4129E-01
527.06	2.3974E-01
527.41	2.4165E-01
527.75	2.4391E-01
528.09	2.4178E-01
528.43	2.4548E-01
528.78	2.4292E-01
529.12	2.4540E-01
529.46	2.4744E-01
529.80	2.4649E-01
530.15	2.4673E-01
530.49	2.4700E-01
530.83	2.4823E-01
531.17	2.4818E-01
531.51	2.4759E-01
531.86	2.4966E-01
532.20	2.5079E-01
532.54	2.5011E-01
532.88	2.5220E-01
533.22	2.5390E-01
533.57	2.5516E-01
533.91	2.5449E-01
534.25	2.5707E-01
534.59	2.5538E-01
534.93	2.5751E-01
535.27	2.5637E-01
535.62	2.6115E-01
535.96	2.6025E-01
536.30	2.6072E-01
536.64	2.6129E-01
536.98	2.6349E-01
537.32	2.6270E-01
537.66	2.6298E-01
538.01	2.6527E-01
538.35	2.6727E-01
538.69	2.6432E-01
539.03	2.7090E-01
539.37	2.6827E-01
539.71	2.7032E-01
540.05	2.7057E-01
540.39	2.7143E-01
540.73	2.7016E-01
541.07	2.7092E-01
541.42	2.7148E-01
541.76	2.7189E-01
542.10	2.7346E-01
542.44	2.7444E-01
542.78	2.7463E-01
543.12	2.7412E-01
543.46	2.7991E-01
543.80	2.7646E-01
544.14	2.7626E-01
544.48	2.7510E-01
544.82	2.7825E-01
545.16	2.7887E-01
545.50	2.7722E-01
545.84	2.7989E-01
546.18	2.7818E-01
546.52	2.8107E-01
546.86	2.7890E-01
547.20	2.8267E-01
547.54	2.8592E-01
547.88	2.8099E-01
548.22	2.8144E-01
548.56	2.8310E-01
548.90	2.8112E-01
549.24	2.8365E-01
549.58	2.8434E-01
549.92	2.8254E-01
550.26	2.8725E-01
550.60	2.8336E-01
550.94	2.8197E-01
551.28	2.8572E-01
551.62	2.8390E-01
551.96	2.8641E-01
552.30	2.8745E-01
552.64	2.8644E-01
552.98	2.8641E-01
553.32	2.8743E-01
553.66	2.8576E-01
554.00	2.8620E-01
554.34	2.8690E-01
554.68	2.8837E-01
555.02	2.8854E-01
555.36	2.8951E-01
555.69	2.8823E-01
556.03	2.8796E-01
556.37	2.8987E-01
556.71	2.8724E-01
557.05	2.8665E-01
557.39	2.8715E-01
557.73	2.8753E-01
558.07	2.8974E-01
558.41	2.8865E-01
558.75	2.8909E-01
559.08	2.8926E-01
559.42	2.8653E-01
559.76	2.9095E-01
560.10	2.9036E-01
560.44	2.9049E-01
560.78	2.8762E-01
561.12	2.8962E-01
561.45	2.8899E-01
561.79	2.9034E-01
562.13	2.9041E-01
562.47	2.9057E-01
562.81	2.9073E-01
563.15	2.9068E-01
563.48	2.9126E-01
563.82	2.8766E-01
564.16	2.9036E-01
564.50	2.9059E-01
564.84	2.9152E-01
565.17	2.9140E-01
565.51	2.9048E-01
565.85	2.9290E-01
566.19	2.8962E-01
566.52	2.9352E-01
566.86	2.9021E-01
567.20	2.9308E-01
567.54	2.9197E-01
567.88	2.9243E-01
568.21	2.9210E-01
568.55	2.9388E-01
568.89	2.9377E-01
569.23	2.9332E-01
569.56	2.9294E-01
569.90	2.9455E-01
570.24	2.9640E-01
570.57	2.9643E-01
570.91	2.9681E-01
571.25	2.9254E-01
571.59	2.9589E-01
571.92	2.9577E-01
572.26	2.9672E-01
572.60	2.9950E-01
572.93	2.9795E-01
573.27	3.0059E-01
573.61	3.0112E-01
573.95	2.9668E-01
574.28	3.0161E-01
574.62	3.0218E-01
574.96	3.0223E-01
575.29	3.0124E-01
575.63	3.0598E-01
575.97	3.0540E-01
576.30	3.1259E-01
576.64	3.0863E-01
576.98	3.0771E-01
577.31	3.0915E-01
577.65	3.1247E-01
577.98	3.1012E-01
578.32	3.1283E-01
578.66	3.1464E-01
578.99	3.1541E-01
579.33	3.1635E-01
579.67	3.1443E-01
580.00	3.1822E-01
580.34	3.1768E-01
580.67	3.1957E-01
581.01	3.2181E-01
581.35	3.2278E-01
581.68	3.2459E-01
582.02	3.2318E-01
582.35	3.2588E-01
582.69	3.2567E-01
583.02	3.3088E-01
583.36	3.2736E-01
583.70	3.2704E-01
584.03	3.2944E-01
584.37	3.2750E-01
584.70	3.3406E-01
585.04	3.3432E-01
585.37	3.3241E-01
585.71	3.3764E-01
586.04	3.3664E-01
586.38	3.3421E-01
586.72	3.3877E-01
587.05	3.4028E-01
587.39	3.4145E-01
587.72	3.3944E-01
588.06	3.4236E-01
588.39	3.4159E-01
588.73	3.4515E-01
589.06	3.4296E-01
589.40	3.4822E-01
589.73	3.4981E-01
590.07	3.5044E-01
590.40	3.5111E-01
590.73	3.5545E-01
591.07	3.5151E-01
591.40	3.5888E-01
591.74	3.5117E-01
592.07	3.5580E-01
592.41	3.5768E-01
592.74	3.5874E-01
593.08	3.5646E-01
593.41	3.5884E-01
593.75	3.5654E-01
594.08	3.6168E-01
594.41	3.6020E-01
594.75	3.6145E-01
595.08	3.6108E-01
595.42	3.5660E-01
595.75	3.6259E-01
596.09	3.6259E-01
596.42	3.6088E-01
596.75	3.6529E-01
597.09	3.6720E-01
597.42	3.6362E-01
597.75	3.6780E-01
598.09	3.6895E-01
598.42	3.6586E-01
598.76	3.6820E-01
599.09	3.7320E-01
599.42	3.7277E-01
599.76	3.7100E-01
600.09	3.6957E-01
600.42	3.7533E-01
600.76	3.6820E-01
601.09	3.7267E-01
601.42	3.7636E-01
601.76	3.7239E-01
602.09	3.7136E-01
602.42	3.7345E-01
602.76	3.7227E-01
603.09	3.7136E-01
603.42	3.7812E-01
603.76	3.7375E-01
604.09	3.7406E-01
604.42	3.7703E-01
604.76	3.7378E-01
605.09	3.7992E-01
605.42	3.7602E-01
605.75	3.7808E-01
606.09	3.7610E-01
606.42	3.7719E-01
606.75	3.7910E-01
607.09	3.7954E-01
607.42	3.8020E-01
607.75	3.8064E-01
608.08	3.7990E-01
608.42	3.8275E-01
608.75	3.7818E-01
609.08	3.8268E-01
609.41	3.8209E-01
609.75	3.8026E-01
610.08	3.8267E-01
610.41	3.8468E-01
610.74	3.8389E-01
611.07	3.8370E-01
611.41	3.8297E-01
611.74	3.8469E-01
612.07	3.8686E-01
612.40	3.8089E-01
612.73	3.8502E-01
613.07	3.8712E-01
613.40	3.8275E-01
613.73	3.8151E-01
614.06	3.8533E-01
614.39	3.8663E-01
614.72	3.8787E-01
615.06	3.8718E-01
615.39	3.9185E-01
615.72	3.8542E-01
616.05	3.8927E-01
616.38	3.9024E-01
616.71	3.9125E-01
617.05	3.8920E-01
617.38	3.9146E-01
617.71	3.8904E-01
618.04	3.9098E-01
618.37	3.8878E-01
618.70	3.8966E-01
619.03	3.9109E-01
619.36	3.8555E-01
619.69	3.9354E-01
620.03	3.8899E-01
620.36	3.8988E-01
620.69	3.8822E-01
621.02	3.9142E-01
621.35	3.9030E-01
621.68	3.8667E-01
622.01	3.8554E-01
622.34	3.8760E-01
622.67	3.8706E-01
623.00	3.8838E-01
623.33	3.8893E-01
623.66	3.8614E-01
623.99	3.8705E-01
624.32	3.8616E-01
624.65	3.8728E-01
624.99	3.8707E-01
625.32	3.8862E-01
625.65	3.8774E-01
625.98	3.8228E-01
626.31	3.8730E-01
626.64	3.8755E-01
626.97	3.8830E-01
627.30	3.8551E-01
627.63	3.8757E-01
627.96	3.8439E-01
628.29	3.8383E-01
628.62	3.8778E-01
628.95	3.8764E-01
629.28	3.8151E-01
629.61	3.9344E-01
629.94	3.8816E-01
630.26	3.8862E-01
630.59	3.9101E-01
630.92	3.8886E-01
631.25	3.9035E-01
631.58	3.9459E-01
631.91	3.8947E-01
632.24	3.9758E-01
632.57	3.9329E-01
632.90	3.9395E-01
633.23	3.9461E-01
633.56	3.9669E-01
633.89	3.9747E-01
634.22	3.9880E-01
634.55	3.9999E-01
634.88	4.0499E-01
635.20	4.0372E-01
635.53	4.0646E-01
635.86	4.0676E-01
636.19	4.1130E-01
636.52	4.1265E-01
636.85	4.0899E-01
637.18	4.1404E-01
637.51	4.1081E-01
637.83	4.1497E-01
638.16	4.1071E-01
638.49	4.2318E-01
638.82	4.2169E-01
639.15	4.2470E-01
639.48	4.2789E-01
639.81	4.3013E-01
640.13	4.2650E-01
640.46	4.3298E-01
640.79	4.3242E-01
641.12	4.3641E-01
641.45	4.3581E-01
641.77	4.3297E-01
642.10	4.4271E-01
642.43	4.4397E-01
642.76	4.4618E-01
643.09	4.4368E-01
643.41	4.4712E-01
643.74	4.4770E-01
644.07	4.4746E-01
644.40	4.5089E-01
644.73	4.5613E-01
645.05	4.5791E-01
645.38	4.6076E-01
645.71	4.6171E-01
646.04	4.6189E-01
646.36	4.6134E-01
646.69	4.6838E-01
647.02	4.6868E-01
647.35	4.6594E-01
647.67	4.7209E-01
648.00	4.7046E-01
648.33	4.7633E-01
648.66	4.7360E-01
648.98	4.8007E-01
649.31	4.7869E-01
649.64	4.8066E-01
649.96	4.8498E-01
650.29	4.8763E-01
650.62	4.8840E-01
650.94	4.8807E-01
651.27	4.8751E-01
651.60	4.8833E-01
651.92	4.9713E-01
652.25	4.9778E-01
652.58	4.9699E-01
652.90	4.9900E-01
653.23	4.9931E-01
653.56	5.0139E-01
653.88	5.0327E-01
654.21	5.0356E-01
654.54	5.0593E-01
654.86	5.1226E-01
655.19	5.0554E-01
655.52	5.1362E-01
655.84	5.1288E-01
656.17	5.1589E-01
656.49	5.2128E-01
656.82	5.1525E-01
657.15	5.2115E-01
657.47	5.2111E-01
657.80	5.2134E-01
658.13	5.2323E-01
658.45	5.2629E-01
658.78	5.2514E-01
659.10	5.3165E-01
659.43	5.3141E-01
659.75	5.2991E-01
660.08	5.2790E-01
660.41	5.3488E-01
660.73	5.3524E-01
661.06	5.3927E-01
661.38	5.3737E-01
661.71	5.3901E-01
662.03	5.3980E-01
662.36	5.4652E-01
662.68	5.4447E-01
663.01	5.3818E-01
663.33	5.4336E-01
663.66	5.4706E-01
663.98	5.4445E-01
664.31	5.4487E-01
664.63	5.5573E-01
664.96	5.5197E-01
665.28	5.5624E-01
665.61	5.5506E-01
665.93	5.5636E-01
666.26	5.5847E-01
666.58	5.5931E-01
666.91	5.5543E-01
667.23	5.6189E-01
667.56	5.5510E-01
667.88	5.6452E-01
668.21	5.6317E-01
668.53	5.6115E-01
668.86	5.7206E-01
669.18	5.6348E-01
669.50	5.7629E-01
669.83	5.7443E-01
670.15	5.7594E-01
670.48	5.7485E-01
670.80	5.7294E-01
671.13	5.7012E-01
671.45	5.7715E-01
671.77	5.8017E-01
672.10	5.7609E-01
672.42	5.8419E-01
672.75	5.8116E-01
673.07	5.8632E-01
673.39	5.8068E-01
673.72	5.8479E-01
674.04	5.8864E-01
674.37	5.9262E-01
674.69	5.8890E-01
675.01	5.9364E-01
675.34	5.9523E-01
675.66	5.9688E-01
675.98	5.9095E-01
676.31	6.0012E-01
676.63	6.0186E-01
676.95	5.9893E-01
677.28	6.0299E-01
677.60	6.0387E-01
677.92	6.0171E-01
678.25	6.0814E-01
678.57	6.0880E-01
678.89	6.0695E-01
679.22	6.1664E-01
679.54	6.1404E-01
679.86	6.1356E-01
680.18	6.1600E-01
680.51	6.1803E-01
680.83	6.2401E-01
681.15	6.1779E-01
681.48	6.2170E-01
681.80	6.2609E-01
682.12	6.2206E-01
682.44	6.3204E-01
682.77	6.3271E-01
683.09	6.3591E-01
683.41	6.3343E-01
683.73	6.4038E-01
684.06	6.3896E-01
684.38	6.4101E-01
684.70	6.3899E-01
685.02	6.4588E-01
685.34	6.5210E-01
685.67	6.4648E-01
685.99	6.5432E-01
686.31	6.4970E-01
686.63	6.6062E-01
686.96	6.5707E-01
687.28	6.6505E-01
687.60	6.5566E-01
687.92	6.6290E-01
688.24	6.6944E-01
688.56	6.7182E-01
688.89	6.7292E-01
689.21	6.6965E-01
689.53	6.7344E-01
689.85	6.8273E-01
690.17	6.7900E-01
690.49	6.8957E-01
690.82	6.8849E-01
691.14	6.8875E-01
691.46	6.9255E-01
691.78	6.9716E-01
692.10	6.8957E-01
692.42	6.9738E-01
692.74	7.0333E-01
693.06	7.0358E-01
693.39	7.1620E-01
693.71	7.1685E-01
694.03	7.1727E-01
694.35	7.1991E-01
694.67	7.2173E-01
694.99	7.2806E-01
695.31	7.3077E-01
695.63	7.3041E-01
695.95	7.3600E-01
696.27	7.3386E-01
696.59	7.4049E-01
696.91	7.5054E-01
697.23	7.5003E-01
697.56	7.4781E-01
697.88	7.5637E-01
698.20	7.5484E-01
698.52	7.6220E-01
698.84	7.6816E-01
699.16	7.7426E-01
699.48	7.6669E-01
699.80	7.7692E-01
700.12	7.8318E-01
700.44	7.8444E-01
700.76	7.8581E-01
701.08	7.9120E-01
701.40	7.9499E-01
701.72	8.0294E-01
702.04	8.0211E-01
702.36	8.0961E-01
702.68	8.1302E-01
703.00	8.1855E-01
703.32	8.2288E-01
703.64	8.2388E-01
703.96	8.1633E-01
704.28	8.2851E-01
704.60	8.3829E-01
704.91	8.4047E-01
705.23	8.4197E-01
705.55	8.5107E-01
705.87	8.4552E-01
706.19	8.4741E-01
706.51	8.5418E-01
706.83	8.5771E-01
707.15	8.8044E-01
707.47	8.6132E-01
707.79	8.7802E-01
708.11	8.8016E-01
708.43	8.8401E-01
708.74	8.9085E-01
709.06	9.0340E-01
709.38	8.9815E-01
709.70	8.9298E-01
710.02	9.0564E-01
710.34	9.0171E-01
710.66	9.2509E-01
710.98	9.1999E-01
711.29	9.1946E-01
711.61	9.3559E-01
711.93	9.4068E-01
712.25	9.3305E-01
712.57	9.4548E-01
712.89	9.4920E-01
713.20	9.5062E-01
713.52	9.5933E-01
713.84	9.6815E-01
714.16	9.6094E-01
714.48	9.6402E-01
714.80	9.8017E-01
715.11	9.7737E-01
715.43	9.9092E-01
715.75	9.9618E-01
716.07	1.0074E00
716.39	9.8864E-01
716.70	1.0015E00
717.02	9.9548E-01
717.34	1.0258E00
717.66	1.0159E00
717.97	1.0273E00
718.29	1.0329E00
718.61	1.0471E00
718.93	1.0455E00
719.24	1.0482E00
719.56	1.0725E00
719.88	1.0623E00
720.20	1.0751E00
720.51	1.0898E00
720.83	1.0848E00
721.15	1.1073E00
721.46	1.1031E00
721.78	1.1096E00
722.10	1.1262E00
722.42	1.1378E00
722.73	1.1440E00
723.05	1.1298E00
723.37	1.1462E00
723.68	1.1564E00
724.00	1.1564E00
724.32	1.1774E00
724.63	1.1744E00
724.95	1.1680E00
725.27	1.1801E00
725.58	1.1879E00
725.90	1.1886E00
726.22	1.2075E00
726.53	1.1809E00
726.85	1.1989E00
727.16	1.2243E00
727.48	1.2025E00
727.80	1.2159E00
728.11	1.2223E00
728.43	1.2178E00
728.74	1.2129E00
729.06	1.2348E00
729.38	1.2306E00
729.69	1.2352E00
730.01	1.2446E00
730.32	1.2536E00
730.64	1.2519E00
730.96	1.2400E00
731.27	1.2743E00
731.59	1.2438E00
731.90	1.2596E00
732.22	1.2696E00
732.53	1.2678E00
732.85	1.2842E00
733.16	1.2798E00
733.48	1.2877E00
733.80	1.2801E00
734.11	1.3038E00
734.43	1.3021E00
734.74	1.2989E00
735.06	1.3156E00
735.37	1.3276E00
735.69	1.3115E00
736.00	1.3269E00
736.32	1.3303E00
736.63	1.3377E00
736.95	1.3346E00
737.26	1.3590E00
737.58	1.3574E00
737.89	1.3685E00
738.21	1.3555E00
738.52	1.3635E00
738.83	1.3676E00
739.15	1.3687E00
739.46	1.3857E00
739.78	1.3813E00
740.09	1.3987E00
740.41	1.3903E00
740.72	1.3854E00
741.04	1.3883E00
741.35	1.3897E00
741.66	1.4126E00
741.98	1.4040E00
742.29	1.4121E00
742.61	1.4033E00
742.92	1.4097E00
743.23	1.4098E00
743.55	1.4195E00
743.86	1.4080E00
744.18	1.4171E00
744.49	1.4195E00
744.80	1.4172E00
745.12	1.4193E00
745.43	1.4247E00
745.74	1.4230E00
746.06	1.4122E00
746.37	1.4087E00
746.68	1.4209E00
747.00	1.4186E00
747.31	1.4078E00
747.62	1.3991E00
747.94	1.4211E00
748.25	1.4229E00
748.56	1.4251E00
748.88	1.4044E00
749.19	1.4151E00
749.50	1.4181E00
749.82	1.4075E00
750.13	1.4166E00
750.44	1.4179E00
750.75	1.4017E00
751.07	1.4213E00
751.38	1.4290E00
751.69	1.4016E00
752.01	1.4233E00
752.32	1.4207E00
752.63	1.4219E00
752.94	1.4318E00
753.26	1.4377E00
753.57	1.4227E00
753.88	1.4331E00
754.19	1.4325E00
754.51	1.4359E00
754.82	1.4330E00
755.13	1.4490E00
755.44	1.4468E00
755.75	1.4500E00
756.07	1.4515E00
756.38	1.4674E00
756.69	1.4626E00
757.00	1.4734E00
757.31	1.4925E00
757.63	1.4999E00
757.94	1.5023E00
758.25	1.5187E00
758.56	1.4815E00
758.87	1.5324E00
759.18	1.5364E00
759.50	1.5332E00
759.81	1.5260E00
760.12	1.5373E00
760.43	1.5503E00
760.74	1.5531E00
761.05	1.5934E00
761.36	1.5857E00
761.67	1.5568E00
761.99	1.6202E00
762.30	1.5972E00
762.61	1.6319E00
762.92	1.6259E00
763.23	1.6254E00
763.54	1.6398E00
763.85	1.6629E00
764.16	1.6633E00
764.47	1.6823E00
764.78	1.6941E00
765.10	1.6958E00
765.41	1.6967E00
765.72	1.7066E00
766.03	1.7459E00
766.34	1.7603E00
766.65	1.7701E00
766.96	1.8066E00
767.27	1.7913E00
767.58	1.7946E00
767.89	1.8137E00
768.20	1.8403E00
768.51	1.8413E00
768.82	1.8451E00
769.13	1.8815E00
769.44	1.9063E00
769.75	1.9040E00
770.06	1.9081E00
770.37	1.9066E00
770.68	1.9525E00
770.99	1.9663E00
771.30	1.9779E00
771.61	2.0379E00
771.92	1.9930E00
772.23	2.0192E00
772.54	2.0638E00
772.85	2.0444E00
773.16	2.0640E00
773.47	2.1262E00
773.78	2.1099E00
774.09	2.1442E00
774.39	2.1477E00
774.70	2.1531E00
775.01	2.1960E00
775.32	2.2075E00
775.63	2.2320E00
775.94	2.2562E00
776.25	2.2422E00
776.56	2.2647E00
776.87	2.3241E00
777.18	2.3156E00
777.48	2.3385E00
777.79	2.3593E00
778.10	2.3816E00
778.41	2.3999E00
778.72	2.4262E00
779.03	2.4408E00
779.34	2.4914E00
779.65	2.4924E00
779.95	2.5387E00
780.26	2.5161E00
780.57	2.5609E00
780.88	2.5547E00
781.19	2.5988E00
781.50	2.6050E00
781.80	2.6253E00
782.11	2.6301E00
782.42	2.6964E00
782.73	2.6442E00
783.04	2.7487E00
783.34	2.7457E00
783.65	2.7693E00
783.96	2.7775E00
784.27	2.7927E00
784.57	2.8167E00
784.88	2.8484E00
785.19	2.8618E00
785.50	2.8960E00
785.81	2.9331E00
786.11	2.8941E00
786.42	2.9260E00
786.73	2.9547E00
787.04	2.9918E00
787.34	3.0475E00
787.65	3.0598E00
787.96	3.1323E00
788.26	3.1086E00
788.57	3.1712E00
788.88	3.1335E00
789.19	3.2310E00
789.49	3.2022E00
789.80	3.2602E00
790.11	3.2666E00
790.41	3.2992E00
790.72	3.3302E00
791.03	3.3479E00
791.33	3.3824E00
791.64	3.4585E00
791.95	3.3977E00
792.25	3.5095E00
792.56	3.4737E00
792.87	3.5269E00
793.17	3.5494E00
793.48	3.5631E00
793.79	3.5978E00
794.09	3.6663E00
794.40	3.6184E00
794.70	3.6299E00
795.01	3.6437E00
795.32	3.6944E00
795.62	3.7665E00
795.93	3.7728E00
796.23	3.7848E00
796.54	3.8361E00
796.85	3.8168E00
797.15	3.8707E00
797.46	3.9018E00
797.76	4.0029E00
798.07	3.9857E00
798.37	3.9910E00
798.68	4.0551E00
798.99	4.0505E00
799.29	4.0946E00
799.60	4.1733E00
799.90	4.1753E00
800.21	4.2378E00
800.51	4.2747E00
800.82	4.2729E00
801.12	4.3545E00
801.43	4.3502E00
801.73	4.4499E00
802.04	4.4408E00
802.34	4.4423E00
802.65	4.4658E00
802.95	4.4309E00
803.26	4.2062E00
803.56	4.0653E00
803.87	4.0562E00
804.17	4.0720E00
804.48	4.0566E00
804.78	4.1211E00
805.09	4.1295E00
805.39	4.2312E00
805.70	4.2396E00
806.00	4.2479E00
806.30	4.3053E00
806.61	4.2910E00
806.91	4.3378E00
807.22	4.3333E00
807.52	4.3490E00
807.83	4.3404E00
808.13	4.3630E00
808.43	4.2632E00
808.74	4.3255E00
809.04	4.2621E00
809.35	4.1874E00
809.65	4.2259E00
809.95	4.1800E00
810.26	4.1016E00
810.56	4.1626E00
810.86	4.1358E00
811.17	4.0712E00
811.47	4.0199E00
811.77	3.9339E00
812.08	3.8513E00
812.38	3.9252E00
812.69	3.7960E00
812.99	3.8186E00
813.29	3.7075E00
813.59	3.5611E00
813.90	3.4950E00
814.20	3.3859E00
814.50	3.3077E00
814.81	3.2345E00
815.11	3.1646E00
815.41	3.0923E00
815.72	3.0334E00
816.02	2.9657E00
816.32	2.8505E00
816.62	2.8466E00
816.93	2.8770E00
817.23	2.9190E00
817.53	2.8530E00
817.84	2.8734E00
818.14	2.8250E00
818.44	2.8979E00
818.74	3.0252E00
819.04	2.9658E00
819.35	2.9437E00
819.65	3.0162E00
819.95	3.0282E00
820.25	3.0915E00
820.56	3.2481E00
820.86	3.3446E00
821.16	3.4637E00
821.46	3.4616E00
821.76	3.4765E00
822.07	3.4693E00
822.37	3.2734E00
822.67	3.3058E00
822.97	3.0420E00
823.27	2.8289E00
823.57	2.7805E00
823.88	2.8369E00
824.18	2.9200E00
824.48	2.9934E00
824.78	3.0474E00
825.08	3.1948E00
825.38	3.2979E00
825.69	3.2504E00
825.99	3.2951E00
826.29	3.3685E00
826.59	3.2650E00
826.89	3.3427E00
827.19	3.4177E00
827.49	3.3739E00
827.79	3.1685E00
828.09	3.0784E00
828.39	3.0491E00
828.70	3.0689E00
829.00	3.0367E00
829.30	2.9881E00
829.60	2.9738E00
829.90	2.9596E00
830.20	2.8456E00
830.50	2.9107E00
830.80	2.9754E00
831.10	2.8667E00
831.40	2.9798E00
831.70	2.9253E00
832.00	2.9339E00
832.30	2.8774E00
832.60	2.8827E00
832.90	2.8593E00
833.20	2.9329E00
833.50	2.8327E00
833.80	2.8350E00
834.10	2.8312E00
834.40	2.8905E00
834.70	2.9473E00
835.00	2.8682E00
835.30	2.8861E00
835.60	2.9388E00
835.90	2.9260E00
836.20	2.9937E00
836.50	3.0035E00
836.80	3.1590E00
837.10	3.4584E00
837.40	3.1569E00
837.70	3.1329E00
838.00	2.9997E00
838.30	3.0471E00
838.60	3.1457E00
838.90	3.1556E00
839.19	3.3859E00
839.49	3.1390E00
839.79	3.2068E00
840.09	3.1150E00
840.39	3.2028E00
840.69	3.2486E00
840.99	3.4155E00
841.29	3.3200E00
841.59	3.1769E00
841.88	3.1363E00
842.18	3.2692E00
842.48	3.2446E00
842.78	3.2088E00
843.08	3.2361E00
843.38	3.1833E00
843.68	3.3543E00
843.97	3.3837E00
844.27	3.2802E00
844.57	3.2354E00
844.87	3.2952E00
845.17	3.2485E00
845.47	3.1546E00
845.76	3.2816E00
846.06	3.3743E00
846.36	3.7827E00
846.66	3.3141E00
846.96	3.3689E00
847.25	3.2571E00
847.55	3.2687E00
847.85	3.3450E00
848.15	3.2390E00
848.44	3.2769E00
848.74	3.2147E00
849.04	3.2681E00
849.34	3.3357E00
849.63	3.2973E00
849.93	3.1748E00
850.23	3.2234E00
850.53	3.0785E00
850.82	3.1822E00
851.12	3.1179E00
851.42	3.1289E00
851.71	3.1579E00
852.01	3.1995E00
852.31	3.2600E00
852.61	3.1866E00
852.90	3.1814E00
853.20	3.2658E00
853.50	3.5628E00
853.79	3.4823E00
854.09	3.1633E00
854.39	3.0407E00
854.68	3.0963E00
854.98	2.9986E00
855.28	3.0508E00
855.57	3.1958E00
855.87	3.1097E00
856.17	3.1179E00
856.46	3.0216E00
856.76	3.0408E00
857.05	3.2189E00
857.35	3.1271E00
857.65	3.4104E00
857.94	3.3367E00
858.24	3.4011E00
858.53	3.3358E00
858.83	3.6932E00
859.13	3.3148E00
859.42	3.2841E00
859.72	3.4274E00
860.01	3.4266E00
860.31	3.3245E00
860.60	3.2920E00
860.90	3.5274E00
861.20	3.3454E00
861.49	3.3069E00
861.79	3.4560E00
862.08	4.3826E00
862.38	3.6660E00
862.67	3.3566E00
862.97	3.3697E00
863.26	3.3954E00
863.56	3.6141E00
863.85	3.7439E00
864.15	3.3502E00
864.44	3.4732E00
864.74	3.4150E00
865.03	3.6862E00
865.33	3.5786E00
865.62	3.4181E00
865.92	3.2857E00
866.21	3.5244E00
866.51	3.4429E00
866.80	3.5990E00
867.10	3.6914E00
867.39	3.3775E00
867.69	3.6442E00
867.98	3.1396E00
868.27	3.1811E00
868.57	3.1961E00
868.86	3.5352E00
869.16	3.3141E00
869.45	3.3425E00
869.75	3.2702E00
870.04	3.3562E00
870.33	3.5250E00
870.63	3.3258E00
870.92	3.5863E00
871.22	4.4603E00
871.51	3.4699E00
871.80	3.6197E00
872.10	3.6197E00
>>>>>End Processed Spectral Data<<<<<
