SpectraSuite Data File
++++++++++++++++++++++++++++++++++++
Date: Tue May 12 10:06:59 PDT 2015
User: schluterlab
Dark Spectrum Present: Yes
Reference Spectrum Present: No
Number of Sampled Component Spectra: 1
Spectrometers: USB2E3373
Integration Time (usec): 2000000 (USB2E3373)
Spectra Averaged: 3 (USB2E3373)
Boxcar Smoothing: 0 (USB2E3373)
Correct for Electrical Dark: No (USB2E3373)
Strobe/Lamp Enabled: No (USB2E3373)
Correct for Detector Non-linearity: No (USB2E3373)
Correct for Stray Light: No (USB2E3373)
Number of Pixels in Processed Spectrum: 2048
>>>>>Begin Processed Spectral Data<<<<<
178.53	0.0000E00
178.91	0.0000E00
179.29	0.0000E00
179.67	0.0000E00
180.04	0.0000E00
180.42	0.0000E00
180.80	0.0000E00
181.18	0.0000E00
181.56	0.0000E00
181.94	0.0000E00
182.31	0.0000E00
182.69	0.0000E00
183.07	0.0000E00
183.45	0.0000E00
183.83	0.0000E00
184.20	0.0000E00
184.58	0.0000E00
184.96	0.0000E00
185.34	0.0000E00
185.72	0.0000E00
186.09	0.0000E00
186.47	0.0000E00
186.85	0.0000E00
187.23	0.0000E00
187.61	0.0000E00
187.98	0.0000E00
188.36	0.0000E00
188.74	0.0000E00
189.12	0.0000E00
189.49	0.0000E00
189.87	0.0000E00
190.25	0.0000E00
190.63	0.0000E00
191.00	0.0000E00
191.38	0.0000E00
191.76	0.0000E00
192.14	0.0000E00
192.51	0.0000E00
192.89	0.0000E00
193.27	0.0000E00
193.65	0.0000E00
194.02	0.0000E00
194.40	0.0000E00
194.78	0.0000E00
195.15	0.0000E00
195.53	-0.0000E00
195.91	0.0000E00
196.29	0.0000E00
196.66	0.0000E00
197.04	0.0000E00
197.42	0.0000E00
197.79	0.0000E00
198.17	0.0000E00
198.55	0.0000E00
198.92	0.0000E00
199.30	0.0000E00
199.68	0.0000E00
200.05	0.0000E00
200.43	0.0000E00
200.81	0.0000E00
201.18	0.0000E00
201.56	0.0000E00
201.94	0.0000E00
202.31	-0.0000E00
202.69	0.0000E00
203.07	0.0000E00
203.44	0.0000E00
203.82	0.0000E00
204.19	0.0000E00
204.57	0.0000E00
204.95	0.0000E00
205.32	0.0000E00
205.70	0.0000E00
206.08	0.0000E00
206.45	0.0000E00
206.83	0.0000E00
207.20	0.0000E00
207.58	0.0000E00
207.96	0.0000E00
208.33	0.0000E00
208.71	0.0000E00
209.08	0.0000E00
209.46	0.0000E00
209.84	0.0000E00
210.21	0.0000E00
210.59	0.0000E00
210.96	0.0000E00
211.34	0.0000E00
211.71	0.0000E00
212.09	0.0000E00
212.46	0.0000E00
212.84	0.0000E00
213.22	0.0000E00
213.59	0.0000E00
213.97	0.0000E00
214.34	0.0000E00
214.72	0.0000E00
215.09	0.0000E00
215.47	0.0000E00
215.84	0.0000E00
216.22	0.0000E00
216.59	0.0000E00
216.97	0.0000E00
217.34	0.0000E00
217.72	0.0000E00
218.09	0.0000E00
218.47	0.0000E00
218.84	0.0000E00
219.22	0.0000E00
219.59	0.0000E00
219.97	0.0000E00
220.34	0.0000E00
220.72	0.0000E00
221.09	0.0000E00
221.47	0.0000E00
221.84	0.0000E00
222.22	0.0000E00
222.59	0.0000E00
222.97	0.0000E00
223.34	0.0000E00
223.72	0.0000E00
224.09	0.0000E00
224.46	0.0000E00
224.84	0.0000E00
225.21	0.0000E00
225.59	0.0000E00
225.96	0.0000E00
226.34	0.0000E00
226.71	0.0000E00
227.08	0.0000E00
227.46	0.0000E00
227.83	0.0000E00
228.21	0.0000E00
228.58	0.0000E00
228.95	0.0000E00
229.33	0.0000E00
229.70	0.0000E00
230.08	0.0000E00
230.45	0.0000E00
230.82	0.0000E00
231.20	0.0000E00
231.57	0.0000E00
231.95	0.0000E00
232.32	0.0000E00
232.69	0.0000E00
233.07	0.0000E00
233.44	0.0000E00
233.81	0.0000E00
234.19	0.0000E00
234.56	0.0000E00
234.93	0.0000E00
235.31	0.0000E00
235.68	0.0000E00
236.05	0.0000E00
236.43	0.0000E00
236.80	0.0000E00
237.17	0.0000E00
237.55	0.0000E00
237.92	0.0000E00
238.29	0.0000E00
238.67	0.0000E00
239.04	0.0000E00
239.41	0.0000E00
239.79	0.0000E00
240.16	0.0000E00
240.53	0.0000E00
240.91	0.0000E00
241.28	0.0000E00
241.65	0.0000E00
242.02	0.0000E00
242.40	0.0000E00
242.77	0.0000E00
243.14	0.0000E00
243.51	0.0000E00
243.89	0.0000E00
244.26	0.0000E00
244.63	0.0000E00
245.00	0.0000E00
245.38	0.0000E00
245.75	0.0000E00
246.12	0.0000E00
246.49	0.0000E00
246.87	0.0000E00
247.24	0.0000E00
247.61	0.0000E00
247.98	0.0000E00
248.36	0.0000E00
248.73	0.0000E00
249.10	0.0000E00
249.47	0.0000E00
249.84	0.0000E00
250.22	0.0000E00
250.59	0.0000E00
250.96	0.0000E00
251.33	0.0000E00
251.70	0.0000E00
252.08	0.0000E00
252.45	0.0000E00
252.82	0.0000E00
253.19	0.0000E00
253.56	0.0000E00
253.94	0.0000E00
254.31	0.0000E00
254.68	0.0000E00
255.05	0.0000E00
255.42	0.0000E00
255.79	0.0000E00
256.16	0.0000E00
256.54	0.0000E00
256.91	0.0000E00
257.28	0.0000E00
257.65	0.0000E00
258.02	0.0000E00
258.39	0.0000E00
258.76	0.0000E00
259.14	0.0000E00
259.51	0.0000E00
259.88	0.0000E00
260.25	0.0000E00
260.62	0.0000E00
260.99	0.0000E00
261.36	0.0000E00
261.73	0.0000E00
262.10	0.0000E00
262.47	0.0000E00
262.85	0.0000E00
263.22	0.0000E00
263.59	0.0000E00
263.96	0.0000E00
264.33	0.0000E00
264.70	0.0000E00
265.07	0.0000E00
265.44	0.0000E00
265.81	0.0000E00
266.18	0.0000E00
266.55	0.0000E00
266.92	0.0000E00
267.29	0.0000E00
267.66	0.0000E00
268.03	0.0000E00
268.40	0.0000E00
268.77	0.0000E00
269.14	0.0000E00
269.51	0.0000E00
269.88	0.0000E00
270.25	0.0000E00
270.62	0.0000E00
270.99	0.0000E00
271.36	0.0000E00
271.73	0.0000E00
272.10	0.0000E00
272.47	0.0000E00
272.84	0.0000E00
273.21	0.0000E00
273.58	0.0000E00
273.95	0.0000E00
274.32	0.0000E00
274.69	0.0000E00
275.06	0.0000E00
275.43	0.0000E00
275.80	0.0000E00
276.17	0.0000E00
276.54	0.0000E00
276.91	0.0000E00
277.28	0.0000E00
277.65	0.0000E00
278.02	0.0000E00
278.39	0.0000E00
278.76	0.0000E00
279.13	0.0000E00
279.50	0.0000E00
279.87	0.0000E00
280.23	0.0000E00
280.60	0.0000E00
280.97	0.0000E00
281.34	0.0000E00
281.71	0.0000E00
282.08	0.0000E00
282.45	0.0000E00
282.82	0.0000E00
283.19	0.0000E00
283.56	0.0000E00
283.92	0.0000E00
284.29	0.0000E00
284.66	0.0000E00
285.03	0.0000E00
285.40	0.0000E00
285.77	0.0000E00
286.14	0.0000E00
286.51	0.0000E00
286.87	0.0000E00
287.24	0.0000E00
287.61	0.0000E00
287.98	0.0000E00
288.35	0.0000E00
288.72	0.0000E00
289.08	0.0000E00
289.45	0.0000E00
289.82	0.0000E00
290.19	0.0000E00
290.56	0.0000E00
290.93	0.0000E00
291.29	0.0000E00
291.66	0.0000E00
292.03	0.0000E00
292.40	0.0000E00
292.77	0.0000E00
293.13	0.0000E00
293.50	0.0000E00
293.87	0.0000E00
294.24	0.0000E00
294.60	0.0000E00
294.97	0.0000E00
295.34	0.0000E00
295.71	0.0000E00
296.08	0.0000E00
296.44	0.0000E00
296.81	0.0000E00
297.18	0.0000E00
297.55	0.0000E00
297.91	0.0000E00
298.28	0.0000E00
298.65	0.0000E00
299.02	0.0000E00
299.38	0.0000E00
299.75	0.0000E00
300.12	1.0145E-01
300.48	2.7576E-01
300.85	1.0637E-01
301.22	2.7983E-01
301.59	9.0278E-02
301.95	1.0716E-01
302.32	1.4650E-01
302.69	1.4619E-01
303.05	8.7405E-02
303.42	1.2034E-01
303.79	1.3798E-01
304.15	8.9187E-02
304.52	9.2357E-02
304.89	8.8391E-02
305.25	1.8421E-01
305.62	1.0575E-01
305.99	1.4009E-01
306.35	7.5099E-02
306.72	1.0036E-01
307.09	1.1020E-01
307.45	1.0022E-01
307.82	6.6297E-02
308.19	8.3310E-02
308.55	8.5057E-02
308.92	1.0437E-01
309.29	8.1335E-02
309.65	1.7402E-01
310.02	7.9795E-02
310.38	7.4826E-02
310.75	9.9617E-02
311.12	9.0057E-02
311.48	1.5360E-01
311.85	1.0855E-01
312.22	7.9314E-02
312.58	1.5712E-01
312.95	9.5937E-02
313.31	9.0635E-02
313.68	1.1406E-01
314.05	1.8488E-01
314.41	1.0375E-01
314.78	6.7265E-02
315.14	1.8337E-01
315.51	2.0862E-01
315.87	8.9858E-02
316.24	1.3453E-01
316.61	1.2424E-01
316.97	8.6060E-02
317.34	1.5950E-01
317.70	1.1006E-01
318.07	1.1730E-01
318.43	1.4241E-01
318.80	9.7515E-02
319.16	1.2209E-01
319.53	8.4362E-02
319.89	1.7576E-01
320.26	1.4166E-01
320.62	1.6159E-01
320.99	1.5658E-01
321.35	9.0299E-02
321.72	1.3626E-01
322.08	1.7734E-01
322.45	1.4881E-01
322.81	1.1378E-01
323.18	4.1300E-01
323.54	1.9831E-01
323.91	1.4064E-01
324.27	3.0472E-01
324.64	2.2894E-01
325.00	1.8368E-01
325.37	2.6977E-01
325.73	9.9549E-02
326.10	3.9040E-01
326.46	1.7204E-01
326.83	1.6284E-01
327.19	3.1491E-01
327.56	1.2785E-01
327.92	1.8605E-01
328.29	1.4700E-01
328.65	1.7750E-01
329.01	2.3041E-01
329.38	1.5215E-01
329.74	1.2811E-01
330.11	2.0641E-01
330.47	1.2906E-01
330.84	1.8371E-01
331.20	1.8570E-01
331.56	1.7011E-01
331.93	1.9502E-01
332.29	2.0055E-01
332.66	1.2690E-01
333.02	1.6082E-01
333.38	2.3711E-01
333.75	1.1889E-01
334.11	2.6563E-01
334.48	1.7157E-01
334.84	1.5897E-01
335.20	2.0011E-01
335.57	3.7328E-01
335.93	2.4683E-01
336.29	2.0129E-01
336.66	1.8053E-01
337.02	1.5785E-01
337.38	1.5799E-01
337.75	1.6440E-01
338.11	1.3662E-01
338.47	2.0015E-01
338.84	1.7034E-01
339.20	1.3625E-01
339.56	3.9997E-01
339.93	1.7386E-01
340.29	1.7291E-01
340.65	1.7589E-01
341.02	2.9726E-01
341.38	1.9851E-01
341.74	2.2953E-01
342.11	2.2604E-01
342.47	2.2892E-01
342.83	1.7078E-01
343.20	2.8483E-01
343.56	1.7778E-01
343.92	3.2678E-01
344.28	1.5583E-01
344.65	2.4133E-01
345.01	1.4848E-01
345.37	2.4085E-01
345.73	2.3334E-01
346.10	1.9390E-01
346.46	2.4915E-01
346.82	1.7736E-01
347.19	4.1441E-01
347.55	1.6892E-01
347.91	1.7634E-01
348.27	1.9740E-01
348.63	1.7203E-01
349.00	1.8072E-01
349.36	3.5497E-01
349.72	2.3035E-01
350.08	3.4043E-01
350.45	2.1130E-01
350.81	1.8993E-01
351.17	2.7385E-01
351.53	2.8882E-01
351.89	2.4204E-01
352.26	2.9023E-01
352.62	2.2445E-01
352.98	2.5053E-01
353.34	2.2736E-01
353.70	3.2289E-01
354.07	2.8509E-01
354.43	3.1605E-01
354.79	2.9711E-01
355.15	2.3224E-01
355.51	2.2081E-01
355.87	2.5529E-01
356.24	2.5708E-01
356.60	2.5343E-01
356.96	2.7557E-01
357.32	2.2022E-01
357.68	2.1858E-01
358.04	1.8561E-01
358.40	2.0420E-01
358.77	1.8797E-01
359.13	2.3355E-01
359.49	2.6523E-01
359.85	2.9234E-01
360.21	2.3022E-01
360.57	2.8155E-01
360.93	2.7945E-01
361.29	3.1825E-01
361.66	2.4463E-01
362.02	2.3331E-01
362.38	3.0693E-01
362.74	2.8357E-01
363.10	3.6259E-01
363.46	3.7008E-01
363.82	3.1813E-01
364.18	3.9588E-01
364.54	3.8184E-01
364.90	3.8042E-01
365.26	3.7621E-01
365.62	4.5195E-01
365.98	4.2150E-01
366.35	3.4984E-01
366.71	4.3783E-01
367.07	5.6174E-01
367.43	3.6526E-01
367.79	5.2772E-01
368.15	4.7207E-01
368.51	5.8853E-01
368.87	4.9876E-01
369.23	5.4373E-01
369.59	4.4524E-01
369.95	5.0256E-01
370.31	4.8497E-01
370.67	5.6668E-01
371.03	4.6910E-01
371.39	4.7039E-01
371.75	4.9028E-01
372.11	5.1036E-01
372.47	4.4932E-01
372.83	4.6834E-01
373.19	3.7643E-01
373.55	4.8080E-01
373.91	4.9717E-01
374.27	5.2946E-01
374.63	5.1657E-01
374.99	4.7921E-01
375.35	4.8957E-01
375.71	5.2320E-01
376.07	5.6625E-01
376.42	5.8361E-01
376.78	5.4535E-01
377.14	6.4065E-01
377.50	7.5944E-01
377.86	6.7351E-01
378.22	6.9634E-01
378.58	7.1603E-01
378.94	6.8778E-01
379.30	6.8802E-01
379.66	6.5451E-01
380.02	6.4085E-01
380.38	6.5969E-01
380.74	7.3793E-01
381.09	7.7965E-01
381.45	7.2097E-01
381.81	6.6656E-01
382.17	6.4544E-01
382.53	6.3046E-01
382.89	5.4583E-01
383.25	5.3768E-01
383.61	5.2773E-01
383.97	5.1466E-01
384.32	5.4334E-01
384.68	5.9265E-01
385.04	7.2685E-01
385.40	7.7391E-01
385.76	7.8712E-01
386.12	7.1954E-01
386.48	7.4773E-01
386.83	7.0611E-01
387.19	7.2402E-01
387.55	8.1061E-01
387.91	7.9363E-01
388.27	7.4018E-01
388.62	8.2860E-01
388.98	7.6541E-01
389.34	8.6276E-01
389.70	7.9629E-01
390.06	8.2079E-01
390.42	8.2631E-01
390.77	8.0341E-01
391.13	8.1811E-01
391.49	8.0234E-01
391.85	8.4653E-01
392.20	7.4804E-01
392.56	7.5806E-01
392.92	7.6926E-01
393.28	7.7256E-01
393.64	8.1025E-01
393.99	8.2853E-01
394.35	8.1529E-01
394.71	8.0436E-01
395.07	7.8461E-01
395.42	7.8509E-01
395.78	7.9942E-01
396.14	7.2178E-01
396.50	7.2437E-01
396.85	7.9664E-01
397.21	7.6744E-01
397.57	7.8836E-01
397.92	7.3710E-01
398.28	7.1271E-01
398.64	8.4717E-01
399.00	6.8326E-01
399.35	7.1104E-01
399.71	7.6328E-01
400.07	7.4437E-01
400.42	7.2628E-01
400.78	7.4451E-01
401.14	7.4822E-01
401.49	6.9405E-01
401.85	6.8990E-01
402.21	7.0028E-01
402.57	6.9636E-01
402.92	7.3462E-01
403.28	6.9865E-01
403.63	6.9480E-01
403.99	7.1140E-01
404.35	6.8993E-01
404.70	6.7723E-01
405.06	6.8827E-01
405.42	7.0343E-01
405.77	6.5419E-01
406.13	6.5342E-01
406.49	6.4906E-01
406.84	6.5691E-01
407.20	6.4113E-01
407.55	6.9219E-01
407.91	7.0421E-01
408.27	6.5967E-01
408.62	6.6350E-01
408.98	6.7121E-01
409.34	6.8333E-01
409.69	6.5437E-01
410.05	6.8958E-01
410.40	6.5827E-01
410.76	6.0860E-01
411.11	6.1365E-01
411.47	6.6596E-01
411.83	6.3077E-01
412.18	6.4319E-01
412.54	6.3081E-01
412.89	6.2649E-01
413.25	6.5020E-01
413.60	6.7868E-01
413.96	6.3630E-01
414.31	6.4019E-01
414.67	6.7593E-01
415.03	6.6254E-01
415.38	6.7896E-01
415.74	6.7048E-01
416.09	6.6664E-01
416.45	6.7522E-01
416.80	6.6212E-01
417.16	6.5656E-01
417.51	6.5310E-01
417.87	6.2912E-01
418.22	6.2145E-01
418.58	6.3477E-01
418.93	6.0796E-01
419.29	6.5170E-01
419.64	6.3254E-01
420.00	5.9781E-01
420.35	5.8704E-01
420.71	6.1606E-01
421.06	6.1888E-01
421.42	6.3461E-01
421.77	6.2519E-01
422.12	6.2401E-01
422.48	5.9112E-01
422.83	6.3152E-01
423.19	5.9701E-01
423.54	5.9680E-01
423.90	6.0408E-01
424.25	5.7046E-01
424.61	6.2932E-01
424.96	5.8842E-01
425.31	5.8533E-01
425.67	5.6142E-01
426.02	5.8642E-01
426.38	5.8565E-01
426.73	5.5448E-01
427.09	5.8093E-01
427.44	5.5664E-01
427.79	5.6300E-01
428.15	5.8011E-01
428.50	5.7655E-01
428.85	5.9090E-01
429.21	5.4434E-01
429.56	5.3267E-01
429.92	5.4300E-01
430.27	5.6121E-01
430.62	5.6055E-01
430.98	5.6780E-01
431.33	5.5470E-01
431.68	5.3633E-01
432.04	5.3243E-01
432.39	5.4035E-01
432.74	5.6002E-01
433.10	5.2497E-01
433.45	5.5546E-01
433.80	5.5207E-01
434.16	5.6445E-01
434.51	5.3770E-01
434.86	5.5961E-01
435.22	5.3931E-01
435.57	5.7659E-01
435.92	5.6532E-01
436.28	5.6266E-01
436.63	5.2204E-01
436.98	5.5816E-01
437.34	5.5381E-01
437.69	5.2696E-01
438.04	5.1274E-01
438.39	5.4806E-01
438.75	5.6158E-01
439.10	5.0702E-01
439.45	5.5034E-01
439.81	5.4448E-01
440.16	5.1233E-01
440.51	5.3502E-01
440.86	5.3353E-01
441.22	5.2130E-01
441.57	5.2621E-01
441.92	5.1102E-01
442.27	5.3606E-01
442.63	5.2497E-01
442.98	5.6047E-01
443.33	5.4942E-01
443.68	5.1064E-01
444.03	4.8180E-01
444.39	4.8410E-01
444.74	5.2525E-01
445.09	5.3349E-01
445.44	5.3408E-01
445.79	4.7186E-01
446.15	5.0682E-01
446.50	5.2363E-01
446.85	4.9264E-01
447.20	4.7907E-01
447.55	5.1783E-01
447.91	4.9800E-01
448.26	5.1145E-01
448.61	5.0654E-01
448.96	4.9597E-01
449.31	5.0403E-01
449.66	5.0852E-01
450.02	5.0069E-01
450.37	5.0155E-01
450.72	4.9445E-01
451.07	5.3262E-01
451.42	5.2982E-01
451.77	5.0066E-01
452.12	5.0008E-01
452.47	5.2278E-01
452.83	4.8056E-01
453.18	5.0911E-01
453.53	5.0280E-01
453.88	4.7391E-01
454.23	4.6771E-01
454.58	4.6797E-01
454.93	5.0238E-01
455.28	4.9930E-01
455.63	4.8473E-01
455.98	4.7374E-01
456.34	4.9930E-01
456.69	4.8372E-01
457.04	4.8743E-01
457.39	4.5774E-01
457.74	4.6727E-01
458.09	4.5455E-01
458.44	4.5388E-01
458.79	4.4429E-01
459.14	4.5945E-01
459.49	4.7786E-01
459.84	4.5151E-01
460.19	4.8020E-01
460.54	4.7743E-01
460.89	4.4020E-01
461.24	4.8151E-01
461.59	4.6041E-01
461.94	4.6695E-01
462.29	4.3646E-01
462.64	4.6170E-01
462.99	4.6620E-01
463.34	4.9304E-01
463.69	4.6173E-01
464.04	4.3072E-01
464.39	4.4776E-01
464.74	4.5400E-01
465.09	4.6612E-01
465.44	4.3908E-01
465.79	4.5282E-01
466.14	4.5511E-01
466.49	4.4783E-01
466.84	4.4329E-01
467.19	4.5859E-01
467.54	4.6011E-01
467.89	4.3806E-01
468.24	4.1528E-01
468.59	4.2874E-01
468.94	4.1994E-01
469.29	4.2221E-01
469.64	4.3663E-01
469.99	4.2032E-01
470.34	4.0744E-01
470.68	4.3358E-01
471.03	4.1843E-01
471.38	4.1966E-01
471.73	3.9978E-01
472.08	3.9474E-01
472.43	3.8112E-01
472.78	4.0233E-01
473.13	3.9797E-01
473.48	3.9128E-01
473.83	3.8365E-01
474.17	3.8929E-01
474.52	3.8491E-01
474.87	3.6914E-01
475.22	3.7701E-01
475.57	3.5847E-01
475.92	3.4974E-01
476.27	3.5986E-01
476.61	3.5067E-01
476.96	3.4168E-01
477.31	3.3079E-01
477.66	3.3735E-01
478.01	3.3522E-01
478.36	3.3342E-01
478.70	3.2885E-01
479.05	3.3355E-01
479.40	3.1865E-01
479.75	3.1522E-01
480.10	3.1709E-01
480.45	3.0968E-01
480.79	3.0817E-01
481.14	3.1232E-01
481.49	3.0496E-01
481.84	2.9949E-01
482.19	2.9731E-01
482.53	2.9680E-01
482.88	2.9411E-01
483.23	2.8923E-01
483.58	2.8326E-01
483.92	2.9020E-01
484.27	2.8127E-01
484.62	2.7936E-01
484.97	2.7359E-01
485.31	2.7203E-01
485.66	2.7794E-01
486.01	2.7786E-01
486.36	2.6475E-01
486.70	2.7213E-01
487.05	2.7034E-01
487.40	2.7048E-01
487.75	2.6244E-01
488.09	2.6282E-01
488.44	2.6517E-01
488.79	2.6134E-01
489.13	2.5816E-01
489.48	2.6147E-01
489.83	2.6181E-01
490.17	2.5468E-01
490.52	2.5482E-01
490.87	2.5593E-01
491.22	2.5954E-01
491.56	2.5580E-01
491.91	2.5951E-01
492.26	2.5632E-01
492.60	2.5634E-01
492.95	2.5874E-01
493.30	2.5808E-01
493.64	2.5502E-01
493.99	2.5622E-01
494.34	2.5310E-01
494.68	2.5036E-01
495.03	2.5686E-01
495.37	2.5445E-01
495.72	2.5716E-01
496.07	2.5139E-01
496.41	2.5311E-01
496.76	2.5110E-01
497.11	2.5379E-01
497.45	2.5252E-01
497.80	2.5294E-01
498.14	2.5313E-01
498.49	2.5336E-01
498.84	2.5401E-01
499.18	2.5334E-01
499.53	2.5346E-01
499.87	2.5114E-01
500.22	2.5413E-01
500.56	2.5368E-01
500.91	2.5322E-01
501.26	2.5280E-01
501.60	2.5254E-01
501.95	2.5048E-01
502.29	2.5376E-01
502.64	2.4914E-01
502.98	2.5299E-01
503.33	2.5092E-01
503.67	2.5162E-01
504.02	2.5102E-01
504.36	2.5044E-01
504.71	2.5143E-01
505.06	2.4896E-01
505.40	2.4902E-01
505.75	2.5052E-01
506.09	2.5064E-01
506.44	2.5036E-01
506.78	2.4800E-01
507.13	2.4911E-01
507.47	2.4722E-01
507.82	2.4725E-01
508.16	2.4960E-01
508.51	2.4731E-01
508.85	2.4426E-01
509.19	2.4744E-01
509.54	2.4719E-01
509.88	2.4757E-01
510.23	2.4372E-01
510.57	2.4502E-01
510.92	2.4404E-01
511.26	2.4444E-01
511.61	2.4440E-01
511.95	2.4465E-01
512.30	2.4324E-01
512.64	2.4487E-01
512.98	2.4045E-01
513.33	2.4221E-01
513.67	2.4274E-01
514.02	2.4197E-01
514.36	2.3996E-01
514.70	2.4140E-01
515.05	2.3865E-01
515.39	2.4071E-01
515.74	2.3842E-01
516.08	2.3711E-01
516.42	2.3902E-01
516.77	2.3964E-01
517.11	2.3963E-01
517.46	2.4102E-01
517.80	2.3744E-01
518.14	2.3907E-01
518.49	2.3697E-01
518.83	2.3785E-01
519.17	2.3767E-01
519.52	2.3806E-01
519.86	2.3706E-01
520.20	2.3589E-01
520.55	2.3667E-01
520.89	2.3524E-01
521.23	2.3766E-01
521.58	2.3707E-01
521.92	2.3914E-01
522.26	2.4029E-01
522.61	2.3643E-01
522.95	2.3842E-01
523.29	2.3487E-01
523.64	2.3516E-01
523.98	2.3622E-01
524.32	2.3713E-01
524.66	2.3896E-01
525.01	2.3904E-01
525.35	2.3987E-01
525.69	2.4054E-01
526.04	2.3970E-01
526.38	2.3622E-01
526.72	2.4100E-01
527.06	2.3949E-01
527.41	2.4136E-01
527.75	2.4336E-01
528.09	2.4171E-01
528.43	2.4546E-01
528.78	2.4252E-01
529.12	2.4513E-01
529.46	2.4678E-01
529.80	2.4596E-01
530.15	2.4684E-01
530.49	2.4692E-01
530.83	2.4823E-01
531.17	2.4829E-01
531.51	2.4727E-01
531.86	2.4936E-01
532.20	2.5051E-01
532.54	2.4998E-01
532.88	2.5168E-01
533.22	2.5370E-01
533.57	2.5496E-01
533.91	2.5425E-01
534.25	2.5647E-01
534.59	2.5527E-01
534.93	2.5727E-01
535.27	2.5597E-01
535.62	2.6079E-01
535.96	2.5992E-01
536.30	2.6027E-01
536.64	2.6080E-01
536.98	2.6324E-01
537.32	2.6252E-01
537.66	2.6252E-01
538.01	2.6541E-01
538.35	2.6722E-01
538.69	2.6416E-01
539.03	2.7037E-01
539.37	2.6757E-01
539.71	2.6978E-01
540.05	2.7017E-01
540.39	2.7117E-01
540.73	2.6984E-01
541.07	2.7075E-01
541.42	2.7131E-01
541.76	2.7128E-01
542.10	2.7299E-01
542.44	2.7425E-01
542.78	2.7448E-01
543.12	2.7379E-01
543.46	2.7974E-01
543.80	2.7615E-01
544.14	2.7629E-01
544.48	2.7515E-01
544.82	2.7818E-01
545.16	2.7831E-01
545.50	2.7688E-01
545.84	2.7957E-01
546.18	2.7770E-01
546.52	2.8076E-01
546.86	2.7866E-01
547.20	2.8248E-01
547.54	2.8555E-01
547.88	2.8058E-01
548.22	2.8137E-01
548.56	2.8264E-01
548.90	2.8080E-01
549.24	2.8318E-01
549.58	2.8410E-01
549.92	2.8222E-01
550.26	2.8692E-01
550.60	2.8282E-01
550.94	2.8175E-01
551.28	2.8538E-01
551.62	2.8331E-01
551.96	2.8626E-01
552.30	2.8747E-01
552.64	2.8629E-01
552.98	2.8623E-01
553.32	2.8679E-01
553.66	2.8534E-01
554.00	2.8607E-01
554.34	2.8690E-01
554.68	2.8787E-01
555.02	2.8832E-01
555.36	2.8951E-01
555.69	2.8808E-01
556.03	2.8791E-01
556.37	2.8940E-01
556.71	2.8665E-01
557.05	2.8611E-01
557.39	2.8688E-01
557.73	2.8748E-01
558.07	2.8974E-01
558.41	2.8850E-01
558.75	2.8874E-01
559.08	2.8884E-01
559.42	2.8611E-01
559.76	2.9068E-01
560.10	2.9019E-01
560.44	2.9026E-01
560.78	2.8735E-01
561.12	2.8919E-01
561.45	2.8894E-01
561.79	2.9023E-01
562.13	2.9028E-01
562.47	2.8999E-01
562.81	2.8993E-01
563.15	2.9028E-01
563.48	2.9086E-01
563.82	2.8722E-01
564.16	2.8984E-01
564.50	2.9001E-01
564.84	2.9087E-01
565.17	2.9117E-01
565.51	2.9045E-01
565.85	2.9298E-01
566.19	2.8932E-01
566.52	2.9317E-01
566.86	2.8961E-01
567.20	2.9257E-01
567.54	2.9162E-01
567.88	2.9207E-01
568.21	2.9204E-01
568.55	2.9335E-01
568.89	2.9351E-01
569.23	2.9312E-01
569.56	2.9266E-01
569.90	2.9419E-01
570.24	2.9592E-01
570.57	2.9592E-01
570.91	2.9622E-01
571.25	2.9211E-01
571.59	2.9589E-01
571.92	2.9561E-01
572.26	2.9644E-01
572.60	2.9893E-01
572.93	2.9754E-01
573.27	3.0038E-01
573.61	3.0104E-01
573.95	2.9627E-01
574.28	3.0120E-01
574.62	3.0156E-01
574.96	3.0186E-01
575.29	3.0129E-01
575.63	3.0556E-01
575.97	3.0487E-01
576.30	3.1175E-01
576.64	3.0788E-01
576.98	3.0713E-01
577.31	3.0888E-01
577.65	3.1217E-01
577.98	3.1012E-01
578.32	3.1248E-01
578.66	3.1440E-01
578.99	3.1503E-01
579.33	3.1632E-01
579.67	3.1378E-01
580.00	3.1759E-01
580.34	3.1702E-01
580.67	3.1894E-01
581.01	3.2131E-01
581.35	3.2281E-01
581.68	3.2398E-01
582.02	3.2259E-01
582.35	3.2532E-01
582.69	3.2542E-01
583.02	3.3023E-01
583.36	3.2691E-01
583.70	3.2634E-01
584.03	3.2896E-01
584.37	3.2710E-01
584.70	3.3377E-01
585.04	3.3380E-01
585.37	3.3201E-01
585.71	3.3700E-01
586.04	3.3614E-01
586.38	3.3357E-01
586.72	3.3810E-01
587.05	3.3993E-01
587.39	3.4121E-01
587.72	3.3894E-01
588.06	3.4186E-01
588.39	3.4141E-01
588.73	3.4485E-01
589.06	3.4237E-01
589.40	3.4759E-01
589.73	3.4927E-01
590.07	3.5032E-01
590.40	3.5050E-01
590.73	3.5450E-01
591.07	3.5120E-01
591.40	3.5866E-01
591.74	3.5057E-01
592.07	3.5506E-01
592.41	3.5681E-01
592.74	3.5815E-01
593.08	3.5575E-01
593.41	3.5800E-01
593.75	3.5565E-01
594.08	3.6105E-01
594.41	3.5952E-01
594.75	3.6070E-01
595.08	3.6052E-01
595.42	3.5650E-01
595.75	3.6234E-01
596.09	3.6212E-01
596.42	3.5995E-01
596.75	3.6447E-01
597.09	3.6637E-01
597.42	3.6306E-01
597.75	3.6726E-01
598.09	3.6832E-01
598.42	3.6536E-01
598.76	3.6747E-01
599.09	3.7237E-01
599.42	3.7219E-01
599.76	3.7027E-01
600.09	3.6906E-01
600.42	3.7491E-01
600.76	3.6769E-01
601.09	3.7196E-01
601.42	3.7568E-01
601.76	3.7149E-01
602.09	3.7036E-01
602.42	3.7303E-01
602.76	3.7147E-01
603.09	3.7079E-01
603.42	3.7744E-01
603.76	3.7333E-01
604.09	3.7351E-01
604.42	3.7629E-01
604.76	3.7330E-01
605.09	3.7906E-01
605.42	3.7541E-01
605.75	3.7716E-01
606.09	3.7526E-01
606.42	3.7653E-01
606.75	3.7861E-01
607.09	3.7892E-01
607.42	3.7921E-01
607.75	3.7986E-01
608.08	3.7869E-01
608.42	3.8175E-01
608.75	3.7750E-01
609.08	3.8218E-01
609.41	3.8157E-01
609.75	3.7970E-01
610.08	3.8158E-01
610.41	3.8388E-01
610.74	3.8279E-01
611.07	3.8301E-01
611.41	3.8214E-01
611.74	3.8353E-01
612.07	3.8589E-01
612.40	3.8040E-01
612.73	3.8428E-01
613.07	3.8655E-01
613.40	3.8225E-01
613.73	3.8109E-01
614.06	3.8460E-01
614.39	3.8600E-01
614.72	3.8703E-01
615.06	3.8658E-01
615.39	3.9145E-01
615.72	3.8535E-01
616.05	3.8867E-01
616.38	3.8973E-01
616.71	3.9067E-01
617.05	3.8816E-01
617.38	3.9072E-01
617.71	3.8810E-01
618.04	3.8977E-01
618.37	3.8781E-01
618.70	3.8909E-01
619.03	3.9025E-01
619.36	3.8469E-01
619.69	3.9270E-01
620.03	3.8852E-01
620.36	3.8931E-01
620.69	3.8728E-01
621.02	3.9064E-01
621.35	3.8977E-01
621.68	3.8577E-01
622.01	3.8487E-01
622.34	3.8703E-01
622.67	3.8599E-01
623.00	3.8721E-01
623.33	3.8826E-01
623.66	3.8547E-01
623.99	3.8631E-01
624.32	3.8552E-01
624.65	3.8621E-01
624.99	3.8617E-01
625.32	3.8789E-01
625.65	3.8714E-01
625.98	3.8126E-01
626.31	3.8640E-01
626.64	3.8688E-01
626.97	3.8749E-01
627.30	3.8458E-01
627.63	3.8687E-01
627.96	3.8329E-01
628.29	3.8326E-01
628.62	3.8701E-01
628.95	3.8660E-01
629.28	3.8058E-01
629.61	3.9259E-01
629.94	3.8699E-01
630.26	3.8802E-01
630.59	3.9017E-01
630.92	3.8779E-01
631.25	3.8985E-01
631.58	3.9419E-01
631.91	3.8849E-01
632.24	3.9707E-01
632.57	3.9264E-01
632.90	3.9347E-01
633.23	3.9390E-01
633.56	3.9604E-01
633.89	3.9664E-01
634.22	3.9815E-01
634.55	3.9933E-01
634.88	4.0363E-01
635.20	4.0267E-01
635.53	4.0544E-01
635.86	4.0560E-01
636.19	4.1044E-01
636.52	4.1162E-01
636.85	4.0839E-01
637.18	4.1343E-01
637.51	4.1021E-01
637.83	4.1418E-01
638.16	4.1042E-01
638.49	4.2266E-01
638.82	4.2100E-01
639.15	4.2382E-01
639.48	4.2733E-01
639.81	4.2961E-01
640.13	4.2543E-01
640.46	4.3178E-01
640.79	4.3164E-01
641.12	4.3555E-01
641.45	4.3483E-01
641.77	4.3222E-01
642.10	4.4225E-01
642.43	4.4309E-01
642.76	4.4522E-01
643.09	4.4242E-01
643.41	4.4639E-01
643.74	4.4643E-01
644.07	4.4649E-01
644.40	4.5019E-01
644.73	4.5463E-01
645.05	4.5665E-01
645.38	4.6025E-01
645.71	4.6127E-01
646.04	4.6169E-01
646.36	4.6026E-01
646.69	4.6774E-01
647.02	4.6795E-01
647.35	4.6509E-01
647.67	4.7111E-01
648.00	4.6957E-01
648.33	4.7534E-01
648.66	4.7283E-01
648.98	4.7867E-01
649.31	4.7778E-01
649.64	4.8033E-01
649.96	4.8473E-01
650.29	4.8687E-01
650.62	4.8709E-01
650.94	4.8727E-01
651.27	4.8717E-01
651.60	4.8748E-01
651.92	4.9610E-01
652.25	4.9692E-01
652.58	4.9613E-01
652.90	4.9840E-01
653.23	4.9844E-01
653.56	5.0030E-01
653.88	5.0270E-01
654.21	5.0252E-01
654.54	5.0471E-01
654.86	5.1097E-01
655.19	5.0546E-01
655.52	5.1291E-01
655.84	5.1200E-01
656.17	5.1504E-01
656.49	5.2052E-01
656.82	5.1463E-01
657.15	5.1980E-01
657.47	5.1985E-01
657.80	5.2080E-01
658.13	5.2219E-01
658.45	5.2529E-01
658.78	5.2419E-01
659.10	5.3091E-01
659.43	5.2998E-01
659.75	5.2859E-01
660.08	5.2648E-01
660.41	5.3373E-01
660.73	5.3399E-01
661.06	5.3871E-01
661.38	5.3630E-01
661.71	5.3831E-01
662.03	5.3817E-01
662.36	5.4516E-01
662.68	5.4428E-01
663.01	5.3753E-01
663.33	5.4215E-01
663.66	5.4687E-01
663.98	5.4333E-01
664.31	5.4374E-01
664.63	5.5486E-01
664.96	5.5121E-01
665.28	5.5499E-01
665.61	5.5415E-01
665.93	5.5488E-01
666.26	5.5775E-01
666.58	5.5849E-01
666.91	5.5427E-01
667.23	5.6082E-01
667.56	5.5419E-01
667.88	5.6276E-01
668.21	5.6176E-01
668.53	5.5974E-01
668.86	5.7141E-01
669.18	5.6304E-01
669.50	5.7525E-01
669.83	5.7349E-01
670.15	5.7539E-01
670.48	5.7381E-01
670.80	5.7146E-01
671.13	5.6889E-01
671.45	5.7565E-01
671.77	5.7912E-01
672.10	5.7494E-01
672.42	5.8328E-01
672.75	5.8041E-01
673.07	5.8541E-01
673.39	5.7913E-01
673.72	5.8338E-01
674.04	5.8742E-01
674.37	5.9144E-01
674.69	5.8743E-01
675.01	5.9236E-01
675.34	5.9430E-01
675.66	5.9513E-01
675.98	5.8998E-01
676.31	5.9882E-01
676.63	6.0087E-01
676.95	5.9671E-01
677.28	6.0190E-01
677.60	6.0294E-01
677.92	6.0026E-01
678.25	6.0725E-01
678.57	6.0817E-01
678.89	6.0569E-01
679.22	6.1505E-01
679.54	6.1308E-01
679.86	6.1303E-01
680.18	6.1509E-01
680.51	6.1675E-01
680.83	6.2256E-01
681.15	6.1603E-01
681.48	6.2058E-01
681.80	6.2474E-01
682.12	6.2104E-01
682.44	6.3127E-01
682.77	6.3173E-01
683.09	6.3542E-01
683.41	6.3289E-01
683.73	6.3883E-01
684.06	6.3780E-01
684.38	6.3957E-01
684.70	6.3783E-01
685.02	6.4454E-01
685.34	6.5103E-01
685.67	6.4564E-01
685.99	6.5331E-01
686.31	6.4824E-01
686.63	6.5914E-01
686.96	6.5611E-01
687.28	6.6362E-01
687.60	6.5368E-01
687.92	6.6101E-01
688.24	6.6880E-01
688.56	6.6997E-01
688.89	6.7124E-01
689.21	6.6902E-01
689.53	6.7246E-01
689.85	6.8197E-01
690.17	6.7760E-01
690.49	6.8827E-01
690.82	6.8808E-01
691.14	6.8780E-01
691.46	6.9135E-01
691.78	6.9589E-01
692.10	6.8802E-01
692.42	6.9539E-01
692.74	7.0157E-01
693.06	7.0315E-01
693.39	7.1446E-01
693.71	7.1574E-01
694.03	7.1572E-01
694.35	7.1873E-01
694.67	7.2024E-01
694.99	7.2756E-01
695.31	7.2963E-01
695.63	7.2909E-01
695.95	7.3492E-01
696.27	7.3266E-01
696.59	7.3902E-01
696.91	7.4950E-01
697.23	7.4854E-01
697.56	7.4671E-01
697.88	7.5520E-01
698.20	7.5413E-01
698.52	7.6095E-01
698.84	7.6710E-01
699.16	7.7312E-01
699.48	7.6484E-01
699.80	7.7524E-01
700.12	7.8176E-01
700.44	7.8356E-01
700.76	7.8513E-01
701.08	7.8977E-01
701.40	7.9286E-01
701.72	8.0183E-01
702.04	7.9996E-01
702.36	8.0738E-01
702.68	8.1091E-01
703.00	8.1713E-01
703.32	8.2103E-01
703.64	8.2210E-01
703.96	8.1414E-01
704.28	8.2636E-01
704.60	8.3648E-01
704.91	8.3829E-01
705.23	8.4009E-01
705.55	8.4974E-01
705.87	8.4398E-01
706.19	8.4653E-01
706.51	8.5249E-01
706.83	8.5600E-01
707.15	8.7854E-01
707.47	8.5961E-01
707.79	8.7643E-01
708.11	8.7735E-01
708.43	8.8157E-01
708.74	8.9024E-01
709.06	9.0301E-01
709.38	8.9621E-01
709.70	8.9105E-01
710.02	9.0275E-01
710.34	9.0054E-01
710.66	9.2333E-01
710.98	9.1753E-01
711.29	9.1724E-01
711.61	9.3333E-01
711.93	9.3890E-01
712.25	9.3032E-01
712.57	9.4327E-01
712.89	9.4757E-01
713.20	9.4841E-01
713.52	9.5684E-01
713.84	9.6606E-01
714.16	9.5944E-01
714.48	9.6161E-01
714.80	9.7729E-01
715.11	9.7493E-01
715.43	9.8827E-01
715.75	9.9446E-01
716.07	1.0049E00
716.39	9.8634E-01
716.70	9.9819E-01
717.02	9.9307E-01
717.34	1.0227E00
717.66	1.0124E00
717.97	1.0248E00
718.29	1.0301E00
718.61	1.0443E00
718.93	1.0434E00
719.24	1.0472E00
719.56	1.0699E00
719.88	1.0600E00
720.20	1.0728E00
720.51	1.0871E00
720.83	1.0825E00
721.15	1.1043E00
721.46	1.1006E00
721.78	1.1072E00
722.10	1.1230E00
722.42	1.1337E00
722.73	1.1415E00
723.05	1.1257E00
723.37	1.1429E00
723.68	1.1539E00
724.00	1.1553E00
724.32	1.1756E00
724.63	1.1724E00
724.95	1.1680E00
725.27	1.1793E00
725.58	1.1875E00
725.90	1.1886E00
726.22	1.2091E00
726.53	1.1848E00
726.85	1.2030E00
727.16	1.2307E00
727.48	1.2106E00
727.80	1.1944E00
728.11	1.0877E00
728.43	1.0847E00
728.74	1.0952E00
729.06	1.0590E00
729.38	1.0430E00
729.69	1.0372E00
730.01	1.0362E00
730.32	1.0222E00
730.64	1.0128E00
730.96	9.8084E-01
731.27	9.2283E-01
731.59	8.8133E-01
731.90	8.8892E-01
732.22	9.0476E-01
732.53	9.0488E-01
732.85	9.0348E-01
733.16	9.0839E-01
733.48	8.9340E-01
733.80	8.9297E-01
734.11	8.9349E-01
734.43	8.7928E-01
734.74	8.6985E-01
735.06	8.6148E-01
735.37	8.4863E-01
735.69	8.3252E-01
736.00	8.0724E-01
736.32	7.8588E-01
736.63	8.9620E-01
736.95	7.7374E-01
737.26	7.8326E-01
737.58	7.7072E-01
737.89	7.6481E-01
738.21	7.7204E-01
738.52	7.5146E-01
738.83	7.4135E-01
739.15	7.4355E-01
739.46	8.1328E-01
739.78	7.3738E-01
740.09	7.4965E-01
740.41	7.5920E-01
740.72	7.6490E-01
741.04	7.3581E-01
741.35	7.5518E-01
741.66	7.4223E-01
741.98	7.4380E-01
742.29	7.6331E-01
742.61	7.5541E-01
742.92	7.5623E-01
743.23	7.6164E-01
743.55	7.7431E-01
743.86	7.6601E-01
744.18	7.6667E-01
744.49	7.7765E-01
744.80	7.8718E-01
745.12	7.7720E-01
745.43	7.8627E-01
745.74	7.7224E-01
746.06	7.7756E-01
746.37	7.9990E-01
746.68	7.9424E-01
747.00	7.8315E-01
747.31	8.0225E-01
747.62	7.7635E-01
747.94	7.8160E-01
748.25	7.9675E-01
748.56	7.8951E-01
748.88	7.8473E-01
749.19	7.7254E-01
749.50	7.7598E-01
749.82	7.8381E-01
750.13	7.7986E-01
750.44	7.9039E-01
750.75	7.7391E-01
751.07	7.8107E-01
751.38	7.8246E-01
751.69	7.7206E-01
752.01	7.7918E-01
752.32	7.8154E-01
752.63	8.0178E-01
752.94	7.9114E-01
753.26	7.8757E-01
753.57	7.9312E-01
753.88	8.0152E-01
754.19	8.4925E-01
754.51	7.9306E-01
754.82	8.7896E-01
755.13	8.1277E-01
755.44	7.8743E-01
755.75	8.0079E-01
756.07	8.0213E-01
756.38	7.9208E-01
756.69	8.2533E-01
757.00	7.9298E-01
757.31	7.9567E-01
757.63	8.1359E-01
757.94	8.0947E-01
758.25	7.9330E-01
758.56	7.9873E-01
758.87	8.0639E-01
759.18	7.5080E-01
759.50	6.7411E-01
759.81	5.9152E-01
760.12	4.2860E-01
760.43	3.4678E-01
760.74	3.0472E-01
761.05	2.8680E-01
761.36	3.2017E-01
761.67	3.7944E-01
761.99	4.0642E-01
762.30	4.3098E-01
762.61	4.2215E-01
762.92	4.1056E-01
763.23	4.1265E-01
763.54	4.0878E-01
763.85	4.2152E-01
764.16	4.2896E-01
764.47	5.5675E-01
764.78	4.7794E-01
765.10	5.6287E-01
765.41	5.3317E-01
765.72	6.3509E-01
766.03	5.8433E-01
766.34	6.1033E-01
766.65	6.5322E-01
766.96	7.4718E-01
767.27	7.0610E-01
767.58	7.3779E-01
767.89	7.6703E-01
768.20	7.8832E-01
768.51	7.7824E-01
768.82	7.8858E-01
769.13	8.3508E-01
769.44	8.1636E-01
769.75	8.5234E-01
770.06	8.2411E-01
770.37	8.3711E-01
770.68	8.5017E-01
770.99	8.5301E-01
771.30	8.5399E-01
771.61	8.5973E-01
771.92	8.7792E-01
772.23	8.9080E-01
772.54	8.7441E-01
772.85	8.7606E-01
773.16	8.7931E-01
773.47	9.1166E-01
773.78	9.0954E-01
774.09	9.1594E-01
774.39	9.2310E-01
774.70	8.9086E-01
775.01	9.0555E-01
775.32	8.9889E-01
775.63	9.3257E-01
775.94	9.1108E-01
776.25	9.1991E-01
776.56	9.2256E-01
776.87	9.2988E-01
777.18	9.2546E-01
777.48	9.6294E-01
777.79	9.2915E-01
778.10	9.7364E-01
778.41	9.7930E-01
778.72	9.5028E-01
779.03	9.5728E-01
779.34	9.8876E-01
779.65	9.7824E-01
779.95	9.8584E-01
780.26	9.6098E-01
780.57	1.0153E00
780.88	9.9374E-01
781.19	1.0105E00
781.50	1.0050E00
781.80	9.9373E-01
782.11	9.9232E-01
782.42	1.0104E00
782.73	1.0227E00
783.04	1.0186E00
783.34	1.0162E00
783.65	1.0105E00
783.96	1.0423E00
784.27	1.0248E00
784.57	1.0497E00
784.88	1.0375E00
785.19	1.0916E00
785.50	1.0794E00
785.81	1.0537E00
786.11	1.0473E00
786.42	1.0437E00
786.73	1.0568E00
787.04	1.1041E00
787.34	1.0557E00
787.65	1.0520E00
787.96	1.0499E00
788.26	1.0482E00
788.57	1.0886E00
788.88	1.0560E00
789.19	1.0460E00
789.49	1.0676E00
789.80	1.1181E00
790.11	1.0769E00
790.41	1.0659E00
790.72	1.1124E00
791.03	1.0664E00
791.33	1.0794E00
791.64	1.0977E00
791.95	1.1025E00
792.25	1.1427E00
792.56	1.1022E00
792.87	1.1560E00
793.17	1.1203E00
793.48	1.1477E00
793.79	1.1665E00
794.09	1.1844E00
794.40	1.2068E00
794.70	1.1919E00
795.01	1.2407E00
795.32	1.1725E00
795.62	1.2337E00
795.93	1.1664E00
796.23	1.1806E00
796.54	1.1661E00
796.85	1.2053E00
797.15	1.1849E00
797.46	1.1883E00
797.76	1.2234E00
798.07	1.2817E00
798.37	1.2604E00
798.68	1.2558E00
798.99	1.2424E00
799.29	1.2535E00
799.60	1.2692E00
799.90	1.2448E00
800.21	1.2322E00
800.51	1.2331E00
800.82	1.3039E00
801.12	1.2888E00
801.43	1.2831E00
801.73	1.2589E00
802.04	1.2553E00
802.34	1.2522E00
802.65	1.2722E00
802.95	1.2884E00
803.26	1.2985E00
803.56	1.2724E00
803.87	1.2626E00
804.17	1.2702E00
804.48	1.2673E00
804.78	1.3281E00
805.09	1.3089E00
805.39	1.3191E00
805.70	1.3477E00
806.00	1.3338E00
806.30	1.3713E00
806.61	1.3443E00
806.91	1.3616E00
807.22	1.4023E00
807.52	1.3884E00
807.83	1.3668E00
808.13	1.3921E00
808.43	1.3655E00
808.74	1.4157E00
809.04	1.3311E00
809.35	1.3235E00
809.65	1.3471E00
809.95	1.3284E00
810.26	1.2977E00
810.56	1.3147E00
810.86	1.3304E00
811.17	1.2824E00
811.47	1.2870E00
811.77	1.2408E00
812.08	1.2080E00
812.38	1.2483E00
812.69	1.2013E00
812.99	1.2378E00
813.29	1.1702E00
813.59	1.1336E00
813.90	1.1444E00
814.20	1.1158E00
814.50	1.1065E00
814.81	1.0717E00
815.11	1.0549E00
815.41	9.9364E-01
815.72	9.8176E-01
816.02	9.6140E-01
816.32	9.2327E-01
816.62	9.1960E-01
816.93	9.6343E-01
817.23	9.2242E-01
817.53	9.2295E-01
817.84	9.2262E-01
818.14	9.2619E-01
818.44	9.6813E-01
818.74	1.0347E00
819.04	9.4808E-01
819.35	9.3798E-01
819.65	9.5500E-01
819.95	9.5221E-01
820.25	9.6335E-01
820.56	1.0061E00
820.86	1.0099E00
821.16	1.1024E00
821.46	1.0382E00
821.76	1.0484E00
822.07	1.1329E00
822.37	1.0140E00
822.67	1.1441E00
822.97	1.0377E00
823.27	9.0574E-01
823.57	8.6623E-01
823.88	8.6916E-01
824.18	8.7586E-01
824.48	8.8580E-01
824.78	8.9229E-01
825.08	9.4600E-01
825.38	9.9178E-01
825.69	9.1764E-01
825.99	9.2244E-01
826.29	9.3747E-01
826.59	9.0364E-01
826.89	9.1830E-01
827.19	1.0325E00
827.49	9.1832E-01
827.79	8.4919E-01
828.09	8.2600E-01
828.39	8.3329E-01
828.70	8.0339E-01
829.00	8.5643E-01
829.30	7.7743E-01
829.60	7.5781E-01
829.90	8.1284E-01
830.20	7.2899E-01
830.50	7.3667E-01
830.80	7.8447E-01
831.10	7.0164E-01
831.40	7.8696E-01
831.70	7.6748E-01
832.00	7.7934E-01
832.30	6.9153E-01
832.60	6.8002E-01
832.90	6.7743E-01
833.20	7.0770E-01
833.50	6.6593E-01
833.80	6.7064E-01
834.10	6.5215E-01
834.40	7.4317E-01
834.70	7.2909E-01
835.00	6.5999E-01
835.30	6.4506E-01
835.60	6.6948E-01
835.90	6.5213E-01
836.20	6.7713E-01
836.50	6.8966E-01
836.80	7.9205E-01
837.10	1.1102E00
837.40	7.4996E-01
837.70	8.1233E-01
838.00	6.7519E-01
838.30	7.2537E-01
838.60	7.5057E-01
838.90	7.5662E-01
839.19	9.9663E-01
839.49	6.8310E-01
839.79	7.4751E-01
840.09	6.7221E-01
840.39	7.5036E-01
840.69	7.4864E-01
840.99	9.4833E-01
841.29	7.9875E-01
841.59	7.0880E-01
841.88	6.8633E-01
842.18	7.8228E-01
842.48	7.1082E-01
842.78	7.0098E-01
843.08	7.1401E-01
843.38	7.0267E-01
843.68	8.7878E-01
843.97	8.6971E-01
844.27	7.8483E-01
844.57	7.2410E-01
844.87	7.3089E-01
845.17	7.2042E-01
845.47	6.9634E-01
845.76	7.9840E-01
846.06	8.1119E-01
846.36	1.2543E00
846.66	7.3148E-01
846.96	7.9799E-01
847.25	6.9970E-01
847.55	7.3090E-01
847.85	7.4699E-01
848.15	7.2579E-01
848.44	7.3648E-01
848.74	7.1558E-01
849.04	7.1037E-01
849.34	8.3168E-01
849.63	7.5748E-01
849.93	7.3969E-01
850.23	7.4314E-01
850.53	7.1804E-01
850.82	7.3562E-01
851.12	7.2310E-01
851.42	7.9465E-01
851.71	7.8118E-01
852.01	7.5716E-01
852.31	7.9621E-01
852.61	7.5110E-01
852.90	7.6526E-01
853.20	8.7029E-01
853.50	1.1130E00
853.79	9.7426E-01
854.09	7.6693E-01
854.39	7.5602E-01
854.68	7.7037E-01
854.98	7.6625E-01
855.28	8.5443E-01
855.57	1.0327E00
855.87	8.7927E-01
856.17	8.8486E-01
856.46	7.7968E-01
856.76	7.6089E-01
857.05	9.2919E-01
857.35	8.1984E-01
857.65	1.0113E00
857.94	8.9857E-01
858.24	9.5966E-01
858.53	8.3323E-01
858.83	1.2911E00
859.13	8.3565E-01
859.42	8.6600E-01
859.72	9.8632E-01
860.01	8.6947E-01
860.31	8.4326E-01
860.60	8.6102E-01
860.90	1.0112E00
861.20	8.7209E-01
861.49	8.4023E-01
861.79	8.9791E-01
862.08	1.9208E00
862.38	1.2066E00
862.67	9.1678E-01
862.97	8.9253E-01
863.26	9.0381E-01
863.56	1.0986E00
863.85	1.2726E00
864.15	8.9566E-01
864.44	9.3110E-01
864.74	9.4667E-01
865.03	1.2206E00
865.33	1.1070E00
865.62	9.4405E-01
865.92	9.6354E-01
866.21	1.0255E00
866.51	9.6046E-01
866.80	1.1677E00
867.10	1.3119E00
867.39	1.0823E00
867.69	1.2758E00
867.98	9.3263E-01
868.27	9.3148E-01
868.57	9.5648E-01
868.86	1.1742E00
869.16	9.8769E-01
869.45	9.8960E-01
869.75	9.5605E-01
870.04	9.9435E-01
870.33	1.1862E00
870.63	1.0009E00
870.92	1.0037E00
871.22	2.0973E00
871.51	1.0340E00
871.80	1.2389E00
872.10	1.2389E00
>>>>>End Processed Spectral Data<<<<<
