SpectraSuite Data File
++++++++++++++++++++++++++++++++++++
Date: Thu May 14 08:21:50 PDT 2015
User: schluterlab
Dark Spectrum Present: Yes
Reference Spectrum Present: No
Number of Sampled Component Spectra: 1
Spectrometers: USB2E3373
Integration Time (usec): 2300000 (USB2E3373)
Spectra Averaged: 3 (USB2E3373)
Boxcar Smoothing: 0 (USB2E3373)
Correct for Electrical Dark: No (USB2E3373)
Strobe/Lamp Enabled: No (USB2E3373)
Correct for Detector Non-linearity: No (USB2E3373)
Correct for Stray Light: No (USB2E3373)
Number of Pixels in Processed Spectrum: 2048
>>>>>Begin Processed Spectral Data<<<<<
178.53	0.0000E00
178.91	0.0000E00
179.29	0.0000E00
179.67	0.0000E00
180.04	0.0000E00
180.42	0.0000E00
180.80	0.0000E00
181.18	0.0000E00
181.56	0.0000E00
181.94	0.0000E00
182.31	0.0000E00
182.69	0.0000E00
183.07	0.0000E00
183.45	0.0000E00
183.83	0.0000E00
184.20	0.0000E00
184.58	0.0000E00
184.96	0.0000E00
185.34	0.0000E00
185.72	0.0000E00
186.09	0.0000E00
186.47	0.0000E00
186.85	0.0000E00
187.23	0.0000E00
187.61	0.0000E00
187.98	0.0000E00
188.36	0.0000E00
188.74	0.0000E00
189.12	0.0000E00
189.49	0.0000E00
189.87	0.0000E00
190.25	0.0000E00
190.63	0.0000E00
191.00	0.0000E00
191.38	0.0000E00
191.76	0.0000E00
192.14	0.0000E00
192.51	0.0000E00
192.89	0.0000E00
193.27	0.0000E00
193.65	0.0000E00
194.02	0.0000E00
194.40	0.0000E00
194.78	0.0000E00
195.15	0.0000E00
195.53	0.0000E00
195.91	0.0000E00
196.29	0.0000E00
196.66	0.0000E00
197.04	0.0000E00
197.42	0.0000E00
197.79	0.0000E00
198.17	0.0000E00
198.55	0.0000E00
198.92	0.0000E00
199.30	0.0000E00
199.68	0.0000E00
200.05	0.0000E00
200.43	0.0000E00
200.81	0.0000E00
201.18	0.0000E00
201.56	0.0000E00
201.94	0.0000E00
202.31	0.0000E00
202.69	0.0000E00
203.07	0.0000E00
203.44	0.0000E00
203.82	0.0000E00
204.19	0.0000E00
204.57	0.0000E00
204.95	0.0000E00
205.32	0.0000E00
205.70	0.0000E00
206.08	-0.0000E00
206.45	0.0000E00
206.83	0.0000E00
207.20	0.0000E00
207.58	0.0000E00
207.96	0.0000E00
208.33	0.0000E00
208.71	0.0000E00
209.08	0.0000E00
209.46	0.0000E00
209.84	-0.0000E00
210.21	0.0000E00
210.59	0.0000E00
210.96	0.0000E00
211.34	0.0000E00
211.71	0.0000E00
212.09	0.0000E00
212.46	0.0000E00
212.84	0.0000E00
213.22	0.0000E00
213.59	0.0000E00
213.97	0.0000E00
214.34	0.0000E00
214.72	0.0000E00
215.09	0.0000E00
215.47	0.0000E00
215.84	0.0000E00
216.22	0.0000E00
216.59	0.0000E00
216.97	0.0000E00
217.34	0.0000E00
217.72	0.0000E00
218.09	0.0000E00
218.47	0.0000E00
218.84	0.0000E00
219.22	0.0000E00
219.59	0.0000E00
219.97	0.0000E00
220.34	0.0000E00
220.72	0.0000E00
221.09	0.0000E00
221.47	0.0000E00
221.84	0.0000E00
222.22	0.0000E00
222.59	0.0000E00
222.97	0.0000E00
223.34	0.0000E00
223.72	0.0000E00
224.09	0.0000E00
224.46	0.0000E00
224.84	0.0000E00
225.21	0.0000E00
225.59	0.0000E00
225.96	0.0000E00
226.34	0.0000E00
226.71	0.0000E00
227.08	0.0000E00
227.46	0.0000E00
227.83	0.0000E00
228.21	0.0000E00
228.58	0.0000E00
228.95	0.0000E00
229.33	0.0000E00
229.70	0.0000E00
230.08	0.0000E00
230.45	0.0000E00
230.82	0.0000E00
231.20	0.0000E00
231.57	0.0000E00
231.95	0.0000E00
232.32	0.0000E00
232.69	0.0000E00
233.07	0.0000E00
233.44	0.0000E00
233.81	0.0000E00
234.19	0.0000E00
234.56	0.0000E00
234.93	0.0000E00
235.31	0.0000E00
235.68	0.0000E00
236.05	0.0000E00
236.43	0.0000E00
236.80	0.0000E00
237.17	0.0000E00
237.55	0.0000E00
237.92	0.0000E00
238.29	0.0000E00
238.67	0.0000E00
239.04	0.0000E00
239.41	0.0000E00
239.79	0.0000E00
240.16	0.0000E00
240.53	0.0000E00
240.91	0.0000E00
241.28	0.0000E00
241.65	0.0000E00
242.02	0.0000E00
242.40	0.0000E00
242.77	0.0000E00
243.14	0.0000E00
243.51	0.0000E00
243.89	0.0000E00
244.26	0.0000E00
244.63	0.0000E00
245.00	0.0000E00
245.38	0.0000E00
245.75	0.0000E00
246.12	0.0000E00
246.49	0.0000E00
246.87	0.0000E00
247.24	0.0000E00
247.61	0.0000E00
247.98	0.0000E00
248.36	0.0000E00
248.73	0.0000E00
249.10	0.0000E00
249.47	0.0000E00
249.84	0.0000E00
250.22	0.0000E00
250.59	0.0000E00
250.96	0.0000E00
251.33	0.0000E00
251.70	0.0000E00
252.08	0.0000E00
252.45	0.0000E00
252.82	0.0000E00
253.19	0.0000E00
253.56	0.0000E00
253.94	0.0000E00
254.31	0.0000E00
254.68	0.0000E00
255.05	0.0000E00
255.42	0.0000E00
255.79	0.0000E00
256.16	0.0000E00
256.54	0.0000E00
256.91	0.0000E00
257.28	0.0000E00
257.65	0.0000E00
258.02	0.0000E00
258.39	0.0000E00
258.76	0.0000E00
259.14	0.0000E00
259.51	0.0000E00
259.88	0.0000E00
260.25	0.0000E00
260.62	0.0000E00
260.99	0.0000E00
261.36	0.0000E00
261.73	0.0000E00
262.10	0.0000E00
262.47	0.0000E00
262.85	0.0000E00
263.22	0.0000E00
263.59	0.0000E00
263.96	0.0000E00
264.33	0.0000E00
264.70	0.0000E00
265.07	0.0000E00
265.44	0.0000E00
265.81	0.0000E00
266.18	0.0000E00
266.55	0.0000E00
266.92	0.0000E00
267.29	0.0000E00
267.66	-0.0000E00
268.03	0.0000E00
268.40	0.0000E00
268.77	0.0000E00
269.14	0.0000E00
269.51	0.0000E00
269.88	0.0000E00
270.25	0.0000E00
270.62	0.0000E00
270.99	0.0000E00
271.36	0.0000E00
271.73	0.0000E00
272.10	0.0000E00
272.47	0.0000E00
272.84	0.0000E00
273.21	0.0000E00
273.58	0.0000E00
273.95	0.0000E00
274.32	0.0000E00
274.69	0.0000E00
275.06	0.0000E00
275.43	0.0000E00
275.80	0.0000E00
276.17	0.0000E00
276.54	0.0000E00
276.91	0.0000E00
277.28	0.0000E00
277.65	0.0000E00
278.02	0.0000E00
278.39	0.0000E00
278.76	0.0000E00
279.13	0.0000E00
279.50	0.0000E00
279.87	0.0000E00
280.23	0.0000E00
280.60	0.0000E00
280.97	0.0000E00
281.34	0.0000E00
281.71	0.0000E00
282.08	0.0000E00
282.45	0.0000E00
282.82	0.0000E00
283.19	0.0000E00
283.56	0.0000E00
283.92	0.0000E00
284.29	0.0000E00
284.66	0.0000E00
285.03	0.0000E00
285.40	0.0000E00
285.77	0.0000E00
286.14	0.0000E00
286.51	0.0000E00
286.87	0.0000E00
287.24	0.0000E00
287.61	0.0000E00
287.98	0.0000E00
288.35	0.0000E00
288.72	0.0000E00
289.08	0.0000E00
289.45	0.0000E00
289.82	0.0000E00
290.19	0.0000E00
290.56	0.0000E00
290.93	0.0000E00
291.29	0.0000E00
291.66	0.0000E00
292.03	0.0000E00
292.40	0.0000E00
292.77	0.0000E00
293.13	0.0000E00
293.50	0.0000E00
293.87	0.0000E00
294.24	0.0000E00
294.60	0.0000E00
294.97	0.0000E00
295.34	0.0000E00
295.71	0.0000E00
296.08	0.0000E00
296.44	0.0000E00
296.81	0.0000E00
297.18	0.0000E00
297.55	0.0000E00
297.91	0.0000E00
298.28	0.0000E00
298.65	0.0000E00
299.02	0.0000E00
299.38	0.0000E00
299.75	0.0000E00
300.12	1.7047E-01
300.48	2.1602E-01
300.85	1.6850E-01
301.22	3.2432E-01
301.59	1.8820E-01
301.95	2.0347E-01
302.32	1.6163E-01
302.69	1.9290E-01
303.05	1.8005E-01
303.42	2.9284E-01
303.79	2.8120E-01
304.15	1.8642E-01
304.52	2.3350E-01
304.89	2.6986E-01
305.25	1.5671E-01
305.62	2.0492E-01
305.99	2.3504E-01
306.35	1.9525E-01
306.72	2.4415E-01
307.09	3.1859E-01
307.45	2.9618E-01
307.82	3.2209E-01
308.19	1.1955E00
308.55	2.8877E-01
308.92	2.5447E-01
309.29	2.4045E-01
309.65	3.0509E-01
310.02	3.7790E-01
310.38	2.9361E-01
310.75	2.4528E-01
311.12	3.8471E-01
311.48	3.1634E-01
311.85	4.5064E-01
312.22	3.2813E-01
312.58	5.8632E-01
312.95	2.6630E-01
313.31	3.3303E-01
313.68	4.5450E-01
314.05	4.0739E-01
314.41	4.8085E-01
314.78	4.1060E-01
315.14	1.2718E00
315.51	4.6652E-01
315.87	3.3980E-01
316.24	8.0822E-01
316.61	5.0418E-01
316.97	5.1013E-01
317.34	5.6085E-01
317.70	4.3732E-01
318.07	5.1176E-01
318.43	5.1469E-01
318.80	8.3391E-01
319.16	5.6105E-01
319.53	1.4985E01
319.89	8.1073E-01
320.26	6.3625E-01
320.62	8.7172E-01
320.99	6.2984E-01
321.35	6.8185E-01
321.72	9.3339E-01
322.08	6.3517E-01
322.45	1.2281E00
322.81	8.4476E-01
323.18	5.1584E-01
323.54	5.3433E-01
323.91	1.1964E00
324.27	8.6461E-01
324.64	2.8125E00
325.00	6.9292E-01
325.37	2.7425E00
325.73	7.8471E-01
326.10	3.1808E00
326.46	8.8775E-01
326.83	8.8828E-01
327.19	9.6678E-01
327.56	9.5886E-01
327.92	1.4139E00
328.29	1.7792E00
328.65	1.5682E00
329.01	2.1920E00
329.38	9.7901E-01
329.74	1.0715E00
330.11	1.4113E00
330.47	1.6527E00
330.84	1.2070E00
331.20	1.1772E00
331.56	1.3857E00
331.93	1.1515E00
332.29	1.4067E00
332.66	1.4546E00
333.02	9.0588E-01
333.38	1.0729E00
333.75	1.1080E00
334.11	1.2527E00
334.48	1.6814E00
334.84	1.4285E00
335.20	1.1969E00
335.57	1.3619E00
335.93	1.8897E00
336.29	1.5331E00
336.66	1.3301E00
337.02	1.4149E00
337.38	1.2530E00
337.75	1.0672E00
338.11	8.5464E-01
338.47	1.5305E00
338.84	2.0452E00
339.20	3.7941E00
339.56	1.4721E00
339.93	1.5898E00
340.29	1.2462E00
340.65	1.4612E00
341.02	1.5369E00
341.38	1.4235E00
341.74	1.2993E00
342.11	1.3416E00
342.47	1.8933E00
342.83	2.1156E00
343.20	1.3240E00
343.56	2.2457E00
343.92	1.6226E00
344.28	1.6491E00
344.65	1.5749E00
345.01	1.6872E00
345.37	1.4879E00
345.73	1.5804E00
346.10	2.1031E00
346.46	1.7320E00
346.82	1.3147E00
347.19	2.9973E00
347.55	1.5944E00
347.91	3.0844E00
348.27	1.9797E00
348.63	1.6432E00
349.00	1.6261E00
349.36	1.4969E00
349.72	1.7378E00
350.08	2.1971E00
350.45	2.2063E00
350.81	2.1411E00
351.17	1.4920E00
351.53	2.0886E00
351.89	1.9253E00
352.26	1.7392E00
352.62	1.8877E00
352.98	1.2746E00
353.34	2.1997E00
353.70	1.6820E00
354.07	1.2883E00
354.43	1.5459E00
354.79	1.3471E00
355.15	1.3783E00
355.51	1.5981E00
355.87	1.0470E00
356.24	1.5761E00
356.60	1.6940E00
356.96	1.4931E00
357.32	1.7938E00
357.68	1.2546E00
358.04	1.4866E00
358.40	1.5263E00
358.77	1.2756E00
359.13	1.6846E00
359.49	1.6600E00
359.85	1.5386E00
360.21	1.4345E00
360.57	1.3265E00
360.93	1.2529E00
361.29	1.5033E00
361.66	2.3006E00
362.02	1.4533E00
362.38	1.9589E00
362.74	1.2992E00
363.10	1.5284E00
363.46	1.3297E00
363.82	1.3869E00
364.18	1.5261E00
364.54	1.4196E00
364.90	1.1135E00
365.26	1.5014E00
365.62	1.3818E00
365.98	1.9239E00
366.35	1.6983E00
366.71	1.4314E00
367.07	1.4483E00
367.43	1.4221E00
367.79	1.3601E00
368.15	1.1389E00
368.51	1.4111E00
368.87	1.2344E00
369.23	1.3478E00
369.59	1.5703E00
369.95	1.5615E00
370.31	1.2155E00
370.67	1.3204E00
371.03	1.5216E00
371.39	1.4174E00
371.75	1.2238E00
372.11	1.4643E00
372.47	1.2079E00
372.83	1.4720E00
373.19	1.3155E00
373.55	1.4626E00
373.91	1.4566E00
374.27	1.6114E00
374.63	1.3649E00
374.99	1.3461E00
375.35	1.4218E00
375.71	1.2444E00
376.07	1.3820E00
376.42	1.2663E00
376.78	1.3913E00
377.14	1.2899E00
377.50	1.1596E00
377.86	1.3561E00
378.22	1.2024E00
378.58	1.3110E00
378.94	1.0574E00
379.30	1.1311E00
379.66	1.2587E00
380.02	1.1620E00
380.38	1.1820E00
380.74	1.3065E00
381.09	1.0919E00
381.45	1.1563E00
381.81	9.9659E-01
382.17	1.3072E00
382.53	1.1625E00
382.89	1.1282E00
383.25	1.1942E00
383.61	1.1410E00
383.97	1.1427E00
384.32	1.0876E00
384.68	1.2709E00
385.04	1.0783E00
385.40	1.0740E00
385.76	1.2168E00
386.12	1.0658E00
386.48	1.1278E00
386.83	1.2067E00
387.19	1.0612E00
387.55	1.1297E00
387.91	1.0279E00
388.27	1.1213E00
388.62	1.2115E00
388.98	1.0192E00
389.34	1.1995E00
389.70	1.0261E00
390.06	9.9434E-01
390.42	1.2061E00
390.77	1.0855E00
391.13	1.0512E00
391.49	1.1765E00
391.85	1.2685E00
392.20	1.2130E00
392.56	1.1426E00
392.92	1.0808E00
393.28	1.0717E00
393.64	1.0801E00
393.99	1.1272E00
394.35	1.0807E00
394.71	1.0912E00
395.07	1.0065E00
395.42	1.1041E00
395.78	1.1505E00
396.14	1.0923E00
396.50	1.0513E00
396.85	1.1665E00
397.21	1.0186E00
397.57	1.1131E00
397.92	1.0892E00
398.28	1.0596E00
398.64	1.1186E00
399.00	1.0181E00
399.35	9.9085E-01
399.71	1.0223E00
400.07	1.0754E00
400.42	1.0165E00
400.78	1.0307E00
401.14	9.6522E-01
401.49	1.0254E00
401.85	9.5787E-01
402.21	1.0392E00
402.57	1.0386E00
402.92	1.0077E00
403.28	9.7651E-01
403.63	9.7294E-01
403.99	9.6633E-01
404.35	9.7519E-01
404.70	1.0232E00
405.06	9.2657E-01
405.42	1.0288E00
405.77	9.4975E-01
406.13	9.3728E-01
406.49	8.9202E-01
406.84	9.6452E-01
407.20	9.2303E-01
407.55	1.0116E00
407.91	1.0083E00
408.27	9.1866E-01
408.62	9.0260E-01
408.98	9.1061E-01
409.34	9.0122E-01
409.69	9.5556E-01
410.05	9.2242E-01
410.40	9.1318E-01
410.76	8.7397E-01
411.11	8.3288E-01
411.47	9.1362E-01
411.83	8.4906E-01
412.18	8.5426E-01
412.54	9.1563E-01
412.89	9.1543E-01
413.25	8.4745E-01
413.60	8.7673E-01
413.96	9.3941E-01
414.31	9.0185E-01
414.67	9.5559E-01
415.03	9.5737E-01
415.38	9.1753E-01
415.74	9.4940E-01
416.09	8.7583E-01
416.45	9.4110E-01
416.80	8.7940E-01
417.16	9.4879E-01
417.51	8.8664E-01
417.87	8.7403E-01
418.22	8.5606E-01
418.58	9.2220E-01
418.93	8.2795E-01
419.29	9.0187E-01
419.64	8.7067E-01
420.00	8.3355E-01
420.35	8.0690E-01
420.71	8.5676E-01
421.06	8.4627E-01
421.42	8.5432E-01
421.77	8.5786E-01
422.12	8.5711E-01
422.48	8.3020E-01
422.83	8.7742E-01
423.19	8.4095E-01
423.54	8.4047E-01
423.90	8.4165E-01
424.25	8.0297E-01
424.61	8.4599E-01
424.96	8.3057E-01
425.31	7.9904E-01
425.67	7.9995E-01
426.02	8.1276E-01
426.38	8.0638E-01
426.73	7.9009E-01
427.09	8.0832E-01
427.44	7.4688E-01
427.79	8.0208E-01
428.15	7.8487E-01
428.50	7.9874E-01
428.85	8.2354E-01
429.21	7.6316E-01
429.56	7.3795E-01
429.92	7.5836E-01
430.27	7.4711E-01
430.62	7.8223E-01
430.98	8.0039E-01
431.33	7.6808E-01
431.68	7.6752E-01
432.04	7.3705E-01
432.39	7.5407E-01
432.74	8.0281E-01
433.10	7.2690E-01
433.45	7.6836E-01
433.80	7.7291E-01
434.16	7.7633E-01
434.51	7.4432E-01
434.86	7.7931E-01
435.22	7.3563E-01
435.57	8.0958E-01
435.92	7.5602E-01
436.28	7.8159E-01
436.63	7.3000E-01
436.98	7.3637E-01
437.34	7.5465E-01
437.69	7.2771E-01
438.04	7.0497E-01
438.39	7.5966E-01
438.75	7.3145E-01
439.10	7.0174E-01
439.45	7.4341E-01
439.81	7.2039E-01
440.16	7.0301E-01
440.51	7.2310E-01
440.86	7.2066E-01
441.22	7.1421E-01
441.57	7.2777E-01
441.92	7.0726E-01
442.27	7.4309E-01
442.63	7.1371E-01
442.98	7.5894E-01
443.33	7.4025E-01
443.68	7.1441E-01
444.03	6.6479E-01
444.39	6.6599E-01
444.74	7.1815E-01
445.09	7.3129E-01
445.44	7.2268E-01
445.79	6.5463E-01
446.15	7.1980E-01
446.50	7.0466E-01
446.85	6.7201E-01
447.20	6.6248E-01
447.55	6.8217E-01
447.91	6.9352E-01
448.26	6.9020E-01
448.61	7.0287E-01
448.96	6.8165E-01
449.31	6.7815E-01
449.66	7.1399E-01
450.02	6.7477E-01
450.37	7.0586E-01
450.72	6.7421E-01
451.07	7.1225E-01
451.42	7.1335E-01
451.77	6.9071E-01
452.12	6.8918E-01
452.47	7.2897E-01
452.83	6.4775E-01
453.18	6.9611E-01
453.53	6.7977E-01
453.88	6.4283E-01
454.23	6.4975E-01
454.58	6.4642E-01
454.93	6.7727E-01
455.28	6.7022E-01
455.63	6.6716E-01
455.98	6.5208E-01
456.34	6.7996E-01
456.69	6.7085E-01
457.04	6.5428E-01
457.39	6.2874E-01
457.74	6.1931E-01
458.09	6.4306E-01
458.44	6.2511E-01
458.79	5.9800E-01
459.14	6.2537E-01
459.49	6.4291E-01
459.84	6.1931E-01
460.19	6.5484E-01
460.54	6.4486E-01
460.89	5.9677E-01
461.24	6.5697E-01
461.59	6.2947E-01
461.94	6.4910E-01
462.29	5.9727E-01
462.64	6.4576E-01
462.99	6.5233E-01
463.34	6.5668E-01
463.69	6.2371E-01
464.04	5.8691E-01
464.39	5.9717E-01
464.74	6.1401E-01
465.09	6.3519E-01
465.44	5.9759E-01
465.79	6.2312E-01
466.14	6.2537E-01
466.49	6.0505E-01
466.84	6.1172E-01
467.19	6.1596E-01
467.54	6.3676E-01
467.89	5.9995E-01
468.24	5.7444E-01
468.59	5.8105E-01
468.94	5.7400E-01
469.29	5.7768E-01
469.64	5.8930E-01
469.99	5.7691E-01
470.34	5.5353E-01
470.68	5.9162E-01
471.03	5.7256E-01
471.38	5.5668E-01
471.73	5.5763E-01
472.08	5.3657E-01
472.43	5.2058E-01
472.78	5.4060E-01
473.13	5.4363E-01
473.48	5.4158E-01
473.83	5.2117E-01
474.17	5.2988E-01
474.52	5.2719E-01
474.87	5.0343E-01
475.22	5.1171E-01
475.57	4.8649E-01
475.92	4.6916E-01
476.27	5.0406E-01
476.61	4.7772E-01
476.96	4.6861E-01
477.31	4.5075E-01
477.66	4.5801E-01
478.01	4.5471E-01
478.36	4.5489E-01
478.70	4.4000E-01
479.05	4.5039E-01
479.40	4.2781E-01
479.75	4.3065E-01
480.10	4.3136E-01
480.45	4.1714E-01
480.79	4.2217E-01
481.14	4.3065E-01
481.49	4.1378E-01
481.84	4.0426E-01
482.19	4.0118E-01
482.53	4.0481E-01
482.88	3.9820E-01
483.23	3.9012E-01
483.58	3.8964E-01
483.92	3.9722E-01
484.27	3.8023E-01
484.62	3.8200E-01
484.97	3.7134E-01
485.31	3.7134E-01
485.66	3.7658E-01
486.01	3.7902E-01
486.36	3.6285E-01
486.70	3.6600E-01
487.05	3.6487E-01
487.40	3.6281E-01
487.75	3.5423E-01
488.09	3.5807E-01
488.44	3.6051E-01
488.79	3.6023E-01
489.13	3.5469E-01
489.48	3.5724E-01
489.83	3.5574E-01
490.17	3.4547E-01
490.52	3.4552E-01
490.87	3.4646E-01
491.22	3.4724E-01
491.56	3.4751E-01
491.91	3.5271E-01
492.26	3.4666E-01
492.60	3.4712E-01
492.95	3.4974E-01
493.30	3.4895E-01
493.64	3.4329E-01
493.99	3.4651E-01
494.34	3.4658E-01
494.68	3.3965E-01
495.03	3.5055E-01
495.37	3.4314E-01
495.72	3.5150E-01
496.07	3.4266E-01
496.41	3.4194E-01
496.76	3.4145E-01
497.11	3.4646E-01
497.45	3.4397E-01
497.80	3.4520E-01
498.14	3.4279E-01
498.49	3.4185E-01
498.84	3.4402E-01
499.18	3.3847E-01
499.53	3.4179E-01
499.87	3.4300E-01
500.22	3.4572E-01
500.56	3.4503E-01
500.91	3.4272E-01
501.26	3.4332E-01
501.60	3.4083E-01
501.95	3.4150E-01
502.29	3.4138E-01
502.64	3.3833E-01
502.98	3.4416E-01
503.33	3.3766E-01
503.67	3.4063E-01
504.02	3.4021E-01
504.36	3.3724E-01
504.71	3.4274E-01
505.06	3.4162E-01
505.40	3.3704E-01
505.75	3.3767E-01
506.09	3.3987E-01
506.44	3.3696E-01
506.78	3.3622E-01
507.13	3.3688E-01
507.47	3.3482E-01
507.82	3.3381E-01
508.16	3.3590E-01
508.51	3.3295E-01
508.85	3.3023E-01
509.19	3.3024E-01
509.54	3.3420E-01
509.88	3.3621E-01
510.23	3.3083E-01
510.57	3.3139E-01
510.92	3.3168E-01
511.26	3.2871E-01
511.61	3.2990E-01
511.95	3.2868E-01
512.30	3.2680E-01
512.64	3.2723E-01
512.98	3.2680E-01
513.33	3.2617E-01
513.67	3.3002E-01
514.02	3.2764E-01
514.36	3.2465E-01
514.70	3.2812E-01
515.05	3.2150E-01
515.39	3.2446E-01
515.74	3.2229E-01
516.08	3.2493E-01
516.42	3.2121E-01
516.77	3.2225E-01
517.11	3.2222E-01
517.46	3.2122E-01
517.80	3.2260E-01
518.14	3.2201E-01
518.49	3.1903E-01
518.83	3.2293E-01
519.17	3.2555E-01
519.52	3.2079E-01
519.86	3.1993E-01
520.20	3.1831E-01
520.55	3.1772E-01
520.89	3.1768E-01
521.23	3.1880E-01
521.58	3.2142E-01
521.92	3.2082E-01
522.26	3.2425E-01
522.61	3.1735E-01
522.95	3.2046E-01
523.29	3.1804E-01
523.64	3.2069E-01
523.98	3.2059E-01
524.32	3.2030E-01
524.66	3.1942E-01
525.01	3.2066E-01
525.35	3.2155E-01
525.69	3.2406E-01
526.04	3.2451E-01
526.38	3.1981E-01
526.72	3.2575E-01
527.06	3.2435E-01
527.41	3.2666E-01
527.75	3.2632E-01
528.09	3.2393E-01
528.43	3.2768E-01
528.78	3.2558E-01
529.12	3.3079E-01
529.46	3.3009E-01
529.80	3.3201E-01
530.15	3.3205E-01
530.49	3.3420E-01
530.83	3.3353E-01
531.17	3.3399E-01
531.51	3.3660E-01
531.86	3.3572E-01
532.20	3.4154E-01
532.54	3.3677E-01
532.88	3.4003E-01
533.22	3.4308E-01
533.57	3.4448E-01
533.91	3.4262E-01
534.25	3.4445E-01
534.59	3.4525E-01
534.93	3.4179E-01
535.27	3.4584E-01
535.62	3.4974E-01
535.96	3.4992E-01
536.30	3.4873E-01
536.64	3.5308E-01
536.98	3.5492E-01
537.32	3.5290E-01
537.66	3.5252E-01
538.01	3.5948E-01
538.35	3.5919E-01
538.69	3.5516E-01
539.03	3.6208E-01
539.37	3.5760E-01
539.71	3.6293E-01
540.05	3.5915E-01
540.39	3.6308E-01
540.73	3.6505E-01
541.07	3.6436E-01
541.42	3.6548E-01
541.76	3.6614E-01
542.10	3.6671E-01
542.44	3.6973E-01
542.78	3.6984E-01
543.12	3.6673E-01
543.46	3.7471E-01
543.80	3.6980E-01
544.14	3.6883E-01
544.48	3.6787E-01
544.82	3.7277E-01
545.16	3.7029E-01
545.50	3.7223E-01
545.84	3.7835E-01
546.18	3.7156E-01
546.52	3.7662E-01
546.86	3.7631E-01
547.20	3.7759E-01
547.54	3.8344E-01
547.88	3.7764E-01
548.22	3.7698E-01
548.56	3.8045E-01
548.90	3.7752E-01
549.24	3.7946E-01
549.58	3.8266E-01
549.92	3.8009E-01
550.26	3.8455E-01
550.60	3.8266E-01
550.94	3.7724E-01
551.28	3.8510E-01
551.62	3.8049E-01
551.96	3.8459E-01
552.30	3.8836E-01
552.64	3.8712E-01
552.98	3.8466E-01
553.32	3.8394E-01
553.66	3.8381E-01
554.00	3.8275E-01
554.34	3.8622E-01
554.68	3.8762E-01
555.02	3.8554E-01
555.36	3.8938E-01
555.69	3.8869E-01
556.03	3.8635E-01
556.37	3.8663E-01
556.71	3.8567E-01
557.05	3.8676E-01
557.39	3.8780E-01
557.73	3.8835E-01
558.07	3.8837E-01
558.41	3.8493E-01
558.75	3.8899E-01
559.08	3.8719E-01
559.42	3.8227E-01
559.76	3.8977E-01
560.10	3.8947E-01
560.44	3.9094E-01
560.78	3.8612E-01
561.12	3.8621E-01
561.45	3.8777E-01
561.79	3.8993E-01
562.13	3.8939E-01
562.47	3.8957E-01
562.81	3.9159E-01
563.15	3.9153E-01
563.48	3.8926E-01
563.82	3.8341E-01
564.16	3.9078E-01
564.50	3.8851E-01
564.84	3.9184E-01
565.17	3.9030E-01
565.51	3.8656E-01
565.85	3.9099E-01
566.19	3.8837E-01
566.52	3.9317E-01
566.86	3.8792E-01
567.20	3.9127E-01
567.54	3.9360E-01
567.88	3.9181E-01
568.21	3.9526E-01
568.55	3.9302E-01
568.89	3.9133E-01
569.23	3.9158E-01
569.56	3.9205E-01
569.90	3.9445E-01
570.24	3.9657E-01
570.57	3.9718E-01
570.91	3.9534E-01
571.25	3.9460E-01
571.59	3.9385E-01
571.92	3.9463E-01
572.26	3.9648E-01
572.60	3.9866E-01
572.93	3.9957E-01
573.27	4.0129E-01
573.61	4.0302E-01
573.95	3.9719E-01
574.28	4.0257E-01
574.62	4.0222E-01
574.96	4.0804E-01
575.29	4.0580E-01
575.63	4.1045E-01
575.97	4.0771E-01
576.30	4.1456E-01
576.64	4.1026E-01
576.98	4.1376E-01
577.31	4.1180E-01
577.65	4.1616E-01
577.98	4.1467E-01
578.32	4.1948E-01
578.66	4.2169E-01
578.99	4.1896E-01
579.33	4.2494E-01
579.67	4.2193E-01
580.00	4.2651E-01
580.34	4.2285E-01
580.67	4.2801E-01
581.01	4.2852E-01
581.35	4.3016E-01
581.68	4.3254E-01
582.02	4.3378E-01
582.35	4.3504E-01
582.69	4.3262E-01
583.02	4.4109E-01
583.36	4.3970E-01
583.70	4.3715E-01
584.03	4.4145E-01
584.37	4.3948E-01
584.70	4.4779E-01
585.04	4.4521E-01
585.37	4.4273E-01
585.71	4.5171E-01
586.04	4.4693E-01
586.38	4.5006E-01
586.72	4.5427E-01
587.05	4.5318E-01
587.39	4.5733E-01
587.72	4.5303E-01
588.06	4.6061E-01
588.39	4.5703E-01
588.73	4.6001E-01
589.06	4.6040E-01
589.40	4.6471E-01
589.73	4.6542E-01
590.07	4.6895E-01
590.40	4.6947E-01
590.73	4.7527E-01
591.07	4.6825E-01
591.40	4.7597E-01
591.74	4.7378E-01
592.07	4.7820E-01
592.41	4.7765E-01
592.74	4.7833E-01
593.08	4.7427E-01
593.41	4.7643E-01
593.75	4.7949E-01
594.08	4.8087E-01
594.41	4.8116E-01
594.75	4.8462E-01
595.08	4.8224E-01
595.42	4.7818E-01
595.75	4.8156E-01
596.09	4.8545E-01
596.42	4.8481E-01
596.75	4.8631E-01
597.09	4.9105E-01
597.42	4.8482E-01
597.75	4.9011E-01
598.09	4.8912E-01
598.42	4.9325E-01
598.76	4.9312E-01
599.09	4.9388E-01
599.42	4.9893E-01
599.76	4.9533E-01
600.09	4.9736E-01
600.42	4.9840E-01
600.76	4.8857E-01
601.09	4.9486E-01
601.42	5.0333E-01
601.76	4.9595E-01
602.09	4.9732E-01
602.42	4.9970E-01
602.76	4.9987E-01
603.09	4.9874E-01
603.42	5.0050E-01
603.76	4.9654E-01
604.09	4.9795E-01
604.42	5.0142E-01
604.76	4.9786E-01
605.09	5.0476E-01
605.42	5.0215E-01
605.75	5.0380E-01
606.09	5.0621E-01
606.42	5.0290E-01
606.75	5.0464E-01
607.09	5.0875E-01
607.42	5.0302E-01
607.75	5.0804E-01
608.08	5.1008E-01
608.42	5.0940E-01
608.75	5.0682E-01
609.08	5.1123E-01
609.41	5.1193E-01
609.75	5.1273E-01
610.08	5.0665E-01
610.41	5.1177E-01
610.74	5.1236E-01
611.07	5.1460E-01
611.41	5.0705E-01
611.74	5.1328E-01
612.07	5.1195E-01
612.40	5.0958E-01
612.73	5.1078E-01
613.07	5.1628E-01
613.40	5.1196E-01
613.73	5.0921E-01
614.06	5.1362E-01
614.39	5.1484E-01
614.72	5.1730E-01
615.06	5.1555E-01
615.39	5.2406E-01
615.72	5.1514E-01
616.05	5.2576E-01
616.38	5.2214E-01
616.71	5.2470E-01
617.05	5.1515E-01
617.38	5.2063E-01
617.71	5.1637E-01
618.04	5.2492E-01
618.37	5.1537E-01
618.70	5.1905E-01
619.03	5.2049E-01
619.36	5.1369E-01
619.69	5.2133E-01
620.03	5.1739E-01
620.36	5.1705E-01
620.69	5.1721E-01
621.02	5.2146E-01
621.35	5.1543E-01
621.68	5.0958E-01
622.01	5.1509E-01
622.34	5.1682E-01
622.67	5.1613E-01
623.00	5.2000E-01
623.33	5.1623E-01
623.66	5.1781E-01
623.99	5.2144E-01
624.32	5.1466E-01
624.65	5.1621E-01
624.99	5.1642E-01
625.32	5.1905E-01
625.65	5.1858E-01
625.98	5.1010E-01
626.31	5.1671E-01
626.64	5.1894E-01
626.97	5.1444E-01
627.30	5.1312E-01
627.63	5.1713E-01
627.96	5.1267E-01
628.29	5.0984E-01
628.62	5.1672E-01
628.95	5.1827E-01
629.28	5.1001E-01
629.61	5.2174E-01
629.94	5.1809E-01
630.26	5.2068E-01
630.59	5.2076E-01
630.92	5.1599E-01
631.25	5.1759E-01
631.58	5.2363E-01
631.91	5.2392E-01
632.24	5.2702E-01
632.57	5.2547E-01
632.90	5.2311E-01
633.23	5.2452E-01
633.56	5.2853E-01
633.89	5.2818E-01
634.22	5.2957E-01
634.55	5.3169E-01
634.88	5.3674E-01
635.20	5.3656E-01
635.53	5.4011E-01
635.86	5.4026E-01
636.19	5.4622E-01
636.52	5.4565E-01
636.85	5.4616E-01
637.18	5.5273E-01
637.51	5.4997E-01
637.83	5.5718E-01
638.16	5.5285E-01
638.49	5.6172E-01
638.82	5.6083E-01
639.15	5.6265E-01
639.48	5.6498E-01
639.81	5.7288E-01
640.13	5.6792E-01
640.46	5.7393E-01
640.79	5.7325E-01
641.12	5.8207E-01
641.45	5.7910E-01
641.77	5.8100E-01
642.10	5.8938E-01
642.43	5.8885E-01
642.76	5.9377E-01
643.09	5.8867E-01
643.41	5.9503E-01
643.74	5.9736E-01
644.07	5.9384E-01
644.40	6.0012E-01
644.73	6.0835E-01
645.05	6.0884E-01
645.38	6.1129E-01
645.71	6.1403E-01
646.04	6.1621E-01
646.36	6.1248E-01
646.69	6.2622E-01
647.02	6.1742E-01
647.35	6.2210E-01
647.67	6.3088E-01
648.00	6.2569E-01
648.33	6.3712E-01
648.66	6.2917E-01
648.98	6.3930E-01
649.31	6.3381E-01
649.64	6.3704E-01
649.96	6.4559E-01
650.29	6.4839E-01
650.62	6.4912E-01
650.94	6.5269E-01
651.27	6.5018E-01
651.60	6.5199E-01
651.92	6.6178E-01
652.25	6.6065E-01
652.58	6.6139E-01
652.90	6.6619E-01
653.23	6.6423E-01
653.56	6.6690E-01
653.88	6.7244E-01
654.21	6.7188E-01
654.54	6.7614E-01
654.86	6.8410E-01
655.19	6.7663E-01
655.52	6.8798E-01
655.84	6.8149E-01
656.17	6.8447E-01
656.49	6.9420E-01
656.82	6.8059E-01
657.15	6.9424E-01
657.47	6.9389E-01
657.80	6.9622E-01
658.13	6.9658E-01
658.45	6.9990E-01
658.78	7.0493E-01
659.10	7.0674E-01
659.43	7.0880E-01
659.75	7.0570E-01
660.08	7.0200E-01
660.41	7.1244E-01
660.73	7.1538E-01
661.06	7.1846E-01
661.38	7.1708E-01
661.71	7.1822E-01
662.03	7.1125E-01
662.36	7.2485E-01
662.68	7.2501E-01
663.01	7.1671E-01
663.33	7.2796E-01
663.66	7.2864E-01
663.98	7.3367E-01
664.31	7.2691E-01
664.63	7.4221E-01
664.96	7.3181E-01
665.28	7.3988E-01
665.61	7.3793E-01
665.93	7.3823E-01
666.26	7.4217E-01
666.58	7.4540E-01
666.91	7.4016E-01
667.23	7.4814E-01
667.56	7.4512E-01
667.88	7.4698E-01
668.21	7.5584E-01
668.53	7.4858E-01
668.86	7.5417E-01
669.18	7.5312E-01
669.50	7.6461E-01
669.83	7.6280E-01
670.15	7.6335E-01
670.48	7.6709E-01
670.80	7.6312E-01
671.13	7.6114E-01
671.45	7.6895E-01
671.77	7.7194E-01
672.10	7.6595E-01
672.42	7.8014E-01
672.75	7.7349E-01
673.07	7.8180E-01
673.39	7.7720E-01
673.72	7.8242E-01
674.04	7.8844E-01
674.37	7.8324E-01
674.69	7.7940E-01
675.01	7.9568E-01
675.34	7.9241E-01
675.66	7.9474E-01
675.98	7.8317E-01
676.31	7.9815E-01
676.63	7.9546E-01
676.95	7.9401E-01
677.28	8.0161E-01
677.60	8.0301E-01
677.92	8.0827E-01
678.25	8.1083E-01
678.57	8.1148E-01
678.89	8.0665E-01
679.22	8.1790E-01
679.54	8.1076E-01
679.86	8.2347E-01
680.18	8.1364E-01
680.51	8.1485E-01
680.83	8.3371E-01
681.15	8.2129E-01
681.48	8.3115E-01
681.80	8.2519E-01
682.12	8.2635E-01
682.44	8.3569E-01
682.77	8.4064E-01
683.09	8.4516E-01
683.41	8.4379E-01
683.73	8.5093E-01
684.06	8.4728E-01
684.38	8.4740E-01
684.70	8.5344E-01
685.02	8.5909E-01
685.34	8.6141E-01
685.67	8.5771E-01
685.99	8.7274E-01
686.31	8.6354E-01
686.63	8.7851E-01
686.96	8.8044E-01
687.28	8.8506E-01
687.60	8.7238E-01
687.92	8.8185E-01
688.24	8.8789E-01
688.56	8.9771E-01
688.89	8.8908E-01
689.21	9.0008E-01
689.53	8.9823E-01
689.85	9.0861E-01
690.17	9.0099E-01
690.49	9.2142E-01
690.82	9.1260E-01
691.14	9.1499E-01
691.46	9.1378E-01
691.78	9.2569E-01
692.10	9.1928E-01
692.42	9.3062E-01
692.74	9.3122E-01
693.06	9.3704E-01
693.39	9.4849E-01
693.71	9.6180E-01
694.03	9.5748E-01
694.35	9.5608E-01
694.67	9.5912E-01
694.99	9.7323E-01
695.31	9.7096E-01
695.63	9.7597E-01
695.95	9.7688E-01
696.27	9.7949E-01
696.59	9.8232E-01
696.91	9.9234E-01
697.23	9.9484E-01
697.56	9.9900E-01
697.88	9.9716E-01
698.20	1.0057E00
698.52	1.0090E00
698.84	1.0234E00
699.16	1.0304E00
699.48	1.0179E00
699.80	1.0422E00
700.12	1.0325E00
700.44	1.0368E00
700.76	1.0446E00
701.08	1.0600E00
701.40	1.0590E00
701.72	1.0616E00
702.04	1.0697E00
702.36	1.0678E00
702.68	1.0784E00
703.00	1.0892E00
703.32	1.0849E00
703.64	1.1004E00
703.96	1.0963E00
704.28	1.1056E00
704.60	1.1123E00
704.91	1.1187E00
705.23	1.1200E00
705.55	1.1327E00
705.87	1.1325E00
706.19	1.1324E00
706.51	1.1444E00
706.83	1.1386E00
707.15	1.1681E00
707.47	1.1585E00
707.79	1.1737E00
708.11	1.1672E00
708.43	1.1764E00
708.74	1.1759E00
709.06	1.1880E00
709.38	1.2008E00
709.70	1.1975E00
710.02	1.2045E00
710.34	1.1996E00
710.66	1.2255E00
710.98	1.2223E00
711.29	1.2270E00
711.61	1.2459E00
711.93	1.2565E00
712.25	1.2440E00
712.57	1.2628E00
712.89	1.2686E00
713.20	1.2617E00
713.52	1.2808E00
713.84	1.2835E00
714.16	1.2753E00
714.48	1.2889E00
714.80	1.3079E00
715.11	1.3032E00
715.43	1.3199E00
715.75	1.3241E00
716.07	1.3287E00
716.39	1.3172E00
716.70	1.3292E00
717.02	1.3253E00
717.34	1.3533E00
717.66	1.3577E00
717.97	1.3700E00
718.29	1.3764E00
718.61	1.3829E00
718.93	1.3999E00
719.24	1.3935E00
719.56	1.4205E00
719.88	1.4186E00
720.20	1.4420E00
720.51	1.4570E00
720.83	1.4350E00
721.15	1.4684E00
721.46	1.4668E00
721.78	1.4786E00
722.10	1.5045E00
722.42	1.4962E00
722.73	1.5172E00
723.05	1.5060E00
723.37	1.5247E00
723.68	1.5436E00
724.00	1.5324E00
724.32	1.5556E00
724.63	1.5440E00
724.95	1.5587E00
725.27	1.5713E00
725.58	1.5702E00
725.90	1.5625E00
726.22	1.5880E00
726.53	1.5717E00
726.85	1.5929E00
727.16	1.5991E00
727.48	1.6116E00
727.80	1.6077E00
728.11	1.6080E00
728.43	1.6172E00
728.74	1.6198E00
729.06	1.6422E00
729.38	1.6413E00
729.69	1.6310E00
730.01	1.6495E00
730.32	1.6500E00
730.64	1.6468E00
730.96	1.6550E00
731.27	1.6856E00
731.59	1.6585E00
731.90	1.6823E00
732.22	1.6806E00
732.53	1.6849E00
732.85	1.7053E00
733.16	1.7091E00
733.48	1.7147E00
733.80	1.6886E00
734.11	1.7247E00
734.43	1.7174E00
734.74	1.7211E00
735.06	1.7532E00
735.37	1.7340E00
735.69	1.7558E00
736.00	1.7629E00
736.32	1.7665E00
736.63	1.7732E00
736.95	1.7762E00
737.26	1.7920E00
737.58	1.7820E00
737.89	1.8020E00
738.21	1.8058E00
738.52	1.8029E00
738.83	1.8226E00
739.15	1.8118E00
739.46	1.8309E00
739.78	1.8428E00
740.09	1.8431E00
740.41	1.8426E00
740.72	1.8430E00
741.04	1.8454E00
741.35	1.8446E00
741.66	1.8345E00
741.98	1.8610E00
742.29	1.8542E00
742.61	1.8640E00
742.92	1.8571E00
743.23	1.8667E00
743.55	1.8874E00
743.86	1.8828E00
744.18	1.8660E00
744.49	1.8799E00
744.80	1.8742E00
745.12	1.8765E00
745.43	1.8755E00
745.74	1.8684E00
746.06	1.8791E00
746.37	1.8605E00
746.68	1.8681E00
747.00	1.8761E00
747.31	1.8863E00
747.62	1.8575E00
747.94	1.8893E00
748.25	1.8795E00
748.56	1.8729E00
748.88	1.8730E00
749.19	1.8842E00
749.50	1.8812E00
749.82	1.8735E00
750.13	1.8798E00
750.44	1.8753E00
750.75	1.8603E00
751.07	1.8791E00
751.38	1.8850E00
751.69	1.8811E00
752.01	1.8811E00
752.32	1.8906E00
752.63	1.8723E00
752.94	1.8881E00
753.26	1.9097E00
753.57	1.8923E00
753.88	1.9191E00
754.19	1.9067E00
754.51	1.9041E00
754.82	1.9026E00
755.13	1.9368E00
755.44	1.9201E00
755.75	1.9182E00
756.07	1.9267E00
756.38	1.9449E00
756.69	1.9391E00
757.00	1.9460E00
757.31	1.9726E00
757.63	1.9954E00
757.94	1.9899E00
758.25	1.9884E00
758.56	1.9667E00
758.87	2.0021E00
759.18	2.0230E00
759.50	2.0202E00
759.81	2.0391E00
760.12	2.0320E00
760.43	2.0509E00
760.74	2.0822E00
761.05	2.0640E00
761.36	1.6858E00
761.67	1.9637E00
761.99	2.1401E00
762.30	2.1260E00
762.61	2.1534E00
762.92	2.1699E00
763.23	2.1790E00
763.54	2.1828E00
763.85	2.2190E00
764.16	2.2193E00
764.47	2.2191E00
764.78	2.2390E00
765.10	2.2454E00
765.41	2.2602E00
765.72	2.2662E00
766.03	2.3223E00
766.34	2.3257E00
766.65	2.3426E00
766.96	2.3694E00
767.27	2.3809E00
767.58	2.3579E00
767.89	2.3997E00
768.20	2.4318E00
768.51	2.4482E00
768.82	2.4503E00
769.13	2.4732E00
769.44	2.5251E00
769.75	2.5221E00
770.06	2.5581E00
770.37	2.5232E00
770.68	2.5775E00
770.99	2.5952E00
771.30	2.6368E00
771.61	2.6777E00
771.92	2.6481E00
772.23	2.6726E00
772.54	2.7132E00
772.85	2.7161E00
773.16	2.7771E00
773.47	2.8027E00
773.78	2.7789E00
774.09	2.8559E00
774.39	2.8496E00
774.70	2.8823E00
775.01	2.9007E00
775.32	2.9011E00
775.63	2.9510E00
775.94	2.9840E00
776.25	2.9921E00
776.56	3.0320E00
776.87	3.0998E00
777.18	3.0803E00
777.48	3.1025E00
777.79	3.1427E00
778.10	3.1632E00
778.41	3.1870E00
778.72	3.2212E00
779.03	3.2285E00
779.34	3.3144E00
779.65	3.2881E00
779.95	3.3284E00
780.26	3.3682E00
780.57	3.3950E00
780.88	3.3823E00
781.19	3.4542E00
781.50	3.4599E00
781.80	3.4836E00
782.11	3.5261E00
782.42	3.6024E00
782.73	3.5242E00
783.04	3.5741E00
783.34	3.6604E00
783.65	3.6932E00
783.96	3.7141E00
784.27	3.7086E00
784.57	3.7197E00
784.88	3.8154E00
785.19	3.8238E00
785.50	3.8247E00
785.81	3.8661E00
786.11	3.8428E00
786.42	3.9841E00
786.73	3.9891E00
787.04	3.9562E00
787.34	4.0224E00
787.65	4.0116E00
787.96	4.1125E00
788.26	4.1509E00
788.57	4.1998E00
788.88	4.1137E00
789.19	4.2845E00
789.49	4.2815E00
789.80	4.3096E00
790.11	4.3497E00
790.41	4.3330E00
790.72	4.4553E00
791.03	4.4420E00
791.33	4.4789E00
791.64	4.4904E00
791.95	4.5489E00
792.25	4.6392E00
792.56	4.6663E00
792.87	4.6340E00
793.17	4.6973E00
793.48	4.6775E00
793.79	4.7587E00
794.09	4.9379E00
794.40	4.7348E00
794.70	4.7747E00
795.01	4.8753E00
795.32	4.8644E00
795.62	4.9783E00
795.93	4.9967E00
796.23	5.0450E00
796.54	5.0641E00
796.85	5.0221E00
797.15	5.1737E00
797.46	5.1954E00
797.76	5.3068E00
798.07	5.2674E00
798.37	5.3870E00
798.68	5.4075E00
798.99	5.3804E00
799.29	5.2176E00
799.60	5.1809E00
799.90	5.1222E00
800.21	5.1692E00
800.51	5.1690E00
800.82	5.2142E00
801.12	5.2204E00
801.43	4.9911E00
801.73	4.9776E00
802.04	4.9762E00
802.34	4.9268E00
802.65	4.9787E00
802.95	4.9302E00
803.26	5.0322E00
803.56	4.9630E00
803.87	5.0088E00
804.17	4.9652E00
804.48	4.9549E00
804.78	4.9891E00
805.09	5.0190E00
805.39	5.1388E00
805.70	5.1723E00
806.00	5.2326E00
806.30	5.1794E00
806.61	5.1593E00
806.91	5.2625E00
807.22	5.2403E00
807.52	5.2495E00
807.83	5.1876E00
808.13	5.3096E00
808.43	5.2246E00
808.74	5.3617E00
809.04	5.1187E00
809.35	5.1087E00
809.65	5.1278E00
809.95	4.9924E00
810.26	4.9520E00
810.56	4.9073E00
810.86	5.0012E00
811.17	4.8651E00
811.47	4.8809E00
811.77	4.7635E00
812.08	4.7061E00
812.38	4.6750E00
812.69	4.5754E00
812.99	4.4986E00
813.29	4.2550E00
813.59	4.1573E00
813.90	4.0986E00
814.20	4.0516E00
814.50	3.9261E00
814.81	3.8283E00
815.11	3.7042E00
815.41	3.5636E00
815.72	3.5083E00
816.02	3.4929E00
816.32	3.3445E00
816.62	3.2814E00
816.93	3.3339E00
817.23	3.3939E00
817.53	3.3781E00
817.84	3.3988E00
818.14	3.3699E00
818.44	3.3430E00
818.74	3.6003E00
819.04	3.4863E00
819.35	3.5161E00
819.65	3.5172E00
819.95	3.5116E00
820.25	3.6818E00
820.56	3.9100E00
820.86	4.0385E00
821.16	4.1826E00
821.46	4.1462E00
821.76	4.1231E00
822.07	4.2288E00
822.37	3.9778E00
822.67	3.9661E00
822.97	3.6767E00
823.27	3.3197E00
823.57	3.2642E00
823.88	3.3480E00
824.18	3.5038E00
824.48	3.5762E00
824.78	3.7054E00
825.08	3.9421E00
825.38	4.1210E00
825.69	3.9696E00
825.99	3.9750E00
826.29	4.1059E00
826.59	4.1951E00
826.89	4.1693E00
827.19	4.3858E00
827.49	4.0854E00
827.79	3.8861E00
828.09	3.8296E00
828.39	3.7995E00
828.70	3.7827E00
829.00	3.8794E00
829.30	3.7672E00
829.60	3.6355E00
829.90	3.8180E00
830.20	3.7476E00
830.50	3.7386E00
830.80	3.9463E00
831.10	3.8108E00
831.40	3.8838E00
831.70	3.8257E00
832.00	3.8461E00
832.30	3.7828E00
832.60	3.7717E00
832.90	3.7380E00
833.20	3.7164E00
833.50	3.7616E00
833.80	3.7807E00
834.10	3.7605E00
834.40	4.0030E00
834.70	3.9568E00
835.00	4.0019E00
835.30	4.0804E00
835.60	3.9785E00
835.90	4.0113E00
836.20	4.1275E00
836.50	4.0054E00
836.80	4.2414E00
837.10	4.7897E00
837.40	4.2202E00
837.70	4.2888E00
838.00	4.2230E00
838.30	4.3032E00
838.60	4.3983E00
838.90	4.2981E00
839.19	4.5684E00
839.49	4.3589E00
839.79	4.3883E00
840.09	4.2659E00
840.39	4.4425E00
840.69	4.4540E00
840.99	4.6156E00
841.29	4.5933E00
841.59	4.3562E00
841.88	4.3246E00
842.18	4.5882E00
842.48	4.4387E00
842.78	4.4299E00
843.08	4.4666E00
843.38	4.5527E00
843.68	4.7063E00
843.97	4.7612E00
844.27	4.5272E00
844.57	4.3845E00
844.87	4.5208E00
845.17	4.5084E00
845.47	4.5924E00
845.76	4.6891E00
846.06	4.7260E00
846.36	5.2274E00
846.66	4.5689E00
846.96	4.7017E00
847.25	4.6297E00
847.55	4.6219E00
847.85	4.6146E00
848.15	4.6155E00
848.44	4.6093E00
848.74	4.7521E00
849.04	4.6252E00
849.34	4.8155E00
849.63	4.5861E00
849.93	4.5217E00
850.23	4.4422E00
850.53	4.5659E00
850.82	4.5331E00
851.12	4.5492E00
851.42	4.5960E00
851.71	4.7275E00
852.01	4.5084E00
852.31	4.5678E00
852.61	4.5571E00
852.90	4.5697E00
853.20	4.7661E00
853.50	5.1285E00
853.79	4.8087E00
854.09	4.5760E00
854.39	4.5085E00
854.68	4.3633E00
854.98	4.2025E00
855.28	4.4725E00
855.57	4.5810E00
855.87	4.4929E00
856.17	4.6450E00
856.46	4.4558E00
856.76	4.4346E00
857.05	4.6612E00
857.35	4.6392E00
857.65	5.0666E00
857.94	4.9254E00
858.24	5.0087E00
858.53	4.7573E00
858.83	5.3548E00
859.13	4.7816E00
859.42	4.8522E00
859.72	5.0336E00
860.01	4.7645E00
860.31	4.7501E00
860.60	4.9554E00
860.90	4.9435E00
861.20	4.8745E00
861.49	4.9783E00
861.79	4.9212E00
862.08	6.3674E00
862.38	5.3459E00
862.67	4.9561E00
862.97	4.9838E00
863.26	4.8731E00
863.56	5.1541E00
863.85	5.5307E00
864.15	4.9051E00
864.44	5.0727E00
864.74	5.0224E00
865.03	5.3711E00
865.33	5.3099E00
865.62	5.1311E00
865.92	4.9914E00
866.21	4.9694E00
866.51	4.8594E00
866.80	5.2551E00
867.10	5.4085E00
867.39	5.0448E00
867.69	5.1106E00
867.98	4.7004E00
868.27	4.7671E00
868.57	4.7836E00
868.86	4.9943E00
869.16	4.7692E00
869.45	4.8763E00
869.75	4.8758E00
870.04	5.0534E00
870.33	5.1652E00
870.63	4.9962E00
870.92	4.9944E00
871.22	6.5637E00
871.51	5.1393E00
871.80	5.3496E00
872.10	5.3496E00
>>>>>End Processed Spectral Data<<<<<
