SpectraSuite Data File
++++++++++++++++++++++++++++++++++++
Date: Thu May 14 08:55:03 PDT 2015
User: schluterlab
Dark Spectrum Present: Yes
Reference Spectrum Present: No
Number of Sampled Component Spectra: 1
Spectrometers: USB2E3373
Integration Time (usec): 2300000 (USB2E3373)
Spectra Averaged: 3 (USB2E3373)
Boxcar Smoothing: 0 (USB2E3373)
Correct for Electrical Dark: No (USB2E3373)
Strobe/Lamp Enabled: No (USB2E3373)
Correct for Detector Non-linearity: No (USB2E3373)
Correct for Stray Light: No (USB2E3373)
Number of Pixels in Processed Spectrum: 2048
>>>>>Begin Processed Spectral Data<<<<<
178.53	0.0000E00
178.91	0.0000E00
179.29	0.0000E00
179.67	0.0000E00
180.04	0.0000E00
180.42	0.0000E00
180.80	0.0000E00
181.18	0.0000E00
181.56	0.0000E00
181.94	0.0000E00
182.31	0.0000E00
182.69	0.0000E00
183.07	0.0000E00
183.45	0.0000E00
183.83	0.0000E00
184.20	0.0000E00
184.58	0.0000E00
184.96	0.0000E00
185.34	0.0000E00
185.72	0.0000E00
186.09	0.0000E00
186.47	0.0000E00
186.85	0.0000E00
187.23	0.0000E00
187.61	0.0000E00
187.98	0.0000E00
188.36	0.0000E00
188.74	0.0000E00
189.12	0.0000E00
189.49	0.0000E00
189.87	0.0000E00
190.25	0.0000E00
190.63	0.0000E00
191.00	0.0000E00
191.38	0.0000E00
191.76	0.0000E00
192.14	0.0000E00
192.51	0.0000E00
192.89	0.0000E00
193.27	0.0000E00
193.65	0.0000E00
194.02	0.0000E00
194.40	0.0000E00
194.78	0.0000E00
195.15	0.0000E00
195.53	0.0000E00
195.91	0.0000E00
196.29	0.0000E00
196.66	0.0000E00
197.04	0.0000E00
197.42	0.0000E00
197.79	0.0000E00
198.17	0.0000E00
198.55	0.0000E00
198.92	0.0000E00
199.30	0.0000E00
199.68	0.0000E00
200.05	0.0000E00
200.43	0.0000E00
200.81	0.0000E00
201.18	0.0000E00
201.56	0.0000E00
201.94	0.0000E00
202.31	0.0000E00
202.69	0.0000E00
203.07	0.0000E00
203.44	0.0000E00
203.82	0.0000E00
204.19	0.0000E00
204.57	0.0000E00
204.95	0.0000E00
205.32	0.0000E00
205.70	0.0000E00
206.08	-0.0000E00
206.45	0.0000E00
206.83	0.0000E00
207.20	0.0000E00
207.58	0.0000E00
207.96	0.0000E00
208.33	0.0000E00
208.71	0.0000E00
209.08	0.0000E00
209.46	0.0000E00
209.84	-0.0000E00
210.21	0.0000E00
210.59	0.0000E00
210.96	0.0000E00
211.34	0.0000E00
211.71	0.0000E00
212.09	0.0000E00
212.46	0.0000E00
212.84	0.0000E00
213.22	0.0000E00
213.59	0.0000E00
213.97	0.0000E00
214.34	0.0000E00
214.72	0.0000E00
215.09	0.0000E00
215.47	0.0000E00
215.84	0.0000E00
216.22	0.0000E00
216.59	0.0000E00
216.97	0.0000E00
217.34	0.0000E00
217.72	0.0000E00
218.09	0.0000E00
218.47	0.0000E00
218.84	0.0000E00
219.22	0.0000E00
219.59	0.0000E00
219.97	0.0000E00
220.34	0.0000E00
220.72	0.0000E00
221.09	0.0000E00
221.47	0.0000E00
221.84	0.0000E00
222.22	0.0000E00
222.59	0.0000E00
222.97	0.0000E00
223.34	0.0000E00
223.72	0.0000E00
224.09	0.0000E00
224.46	0.0000E00
224.84	0.0000E00
225.21	0.0000E00
225.59	0.0000E00
225.96	0.0000E00
226.34	0.0000E00
226.71	0.0000E00
227.08	0.0000E00
227.46	0.0000E00
227.83	0.0000E00
228.21	0.0000E00
228.58	0.0000E00
228.95	0.0000E00
229.33	0.0000E00
229.70	0.0000E00
230.08	0.0000E00
230.45	0.0000E00
230.82	0.0000E00
231.20	0.0000E00
231.57	0.0000E00
231.95	0.0000E00
232.32	0.0000E00
232.69	0.0000E00
233.07	0.0000E00
233.44	0.0000E00
233.81	0.0000E00
234.19	0.0000E00
234.56	0.0000E00
234.93	0.0000E00
235.31	0.0000E00
235.68	0.0000E00
236.05	0.0000E00
236.43	0.0000E00
236.80	0.0000E00
237.17	0.0000E00
237.55	0.0000E00
237.92	0.0000E00
238.29	0.0000E00
238.67	0.0000E00
239.04	0.0000E00
239.41	0.0000E00
239.79	0.0000E00
240.16	0.0000E00
240.53	0.0000E00
240.91	0.0000E00
241.28	0.0000E00
241.65	0.0000E00
242.02	0.0000E00
242.40	0.0000E00
242.77	0.0000E00
243.14	0.0000E00
243.51	0.0000E00
243.89	0.0000E00
244.26	0.0000E00
244.63	0.0000E00
245.00	0.0000E00
245.38	0.0000E00
245.75	0.0000E00
246.12	0.0000E00
246.49	0.0000E00
246.87	0.0000E00
247.24	0.0000E00
247.61	0.0000E00
247.98	0.0000E00
248.36	0.0000E00
248.73	0.0000E00
249.10	0.0000E00
249.47	0.0000E00
249.84	0.0000E00
250.22	0.0000E00
250.59	0.0000E00
250.96	0.0000E00
251.33	0.0000E00
251.70	0.0000E00
252.08	0.0000E00
252.45	0.0000E00
252.82	0.0000E00
253.19	0.0000E00
253.56	0.0000E00
253.94	0.0000E00
254.31	0.0000E00
254.68	0.0000E00
255.05	0.0000E00
255.42	0.0000E00
255.79	0.0000E00
256.16	0.0000E00
256.54	0.0000E00
256.91	0.0000E00
257.28	0.0000E00
257.65	0.0000E00
258.02	0.0000E00
258.39	0.0000E00
258.76	0.0000E00
259.14	0.0000E00
259.51	0.0000E00
259.88	0.0000E00
260.25	0.0000E00
260.62	0.0000E00
260.99	0.0000E00
261.36	0.0000E00
261.73	0.0000E00
262.10	0.0000E00
262.47	0.0000E00
262.85	0.0000E00
263.22	0.0000E00
263.59	0.0000E00
263.96	0.0000E00
264.33	0.0000E00
264.70	0.0000E00
265.07	0.0000E00
265.44	0.0000E00
265.81	0.0000E00
266.18	0.0000E00
266.55	0.0000E00
266.92	0.0000E00
267.29	0.0000E00
267.66	-0.0000E00
268.03	0.0000E00
268.40	0.0000E00
268.77	0.0000E00
269.14	0.0000E00
269.51	0.0000E00
269.88	0.0000E00
270.25	0.0000E00
270.62	0.0000E00
270.99	0.0000E00
271.36	0.0000E00
271.73	0.0000E00
272.10	0.0000E00
272.47	0.0000E00
272.84	0.0000E00
273.21	0.0000E00
273.58	0.0000E00
273.95	0.0000E00
274.32	0.0000E00
274.69	0.0000E00
275.06	0.0000E00
275.43	0.0000E00
275.80	0.0000E00
276.17	0.0000E00
276.54	0.0000E00
276.91	0.0000E00
277.28	0.0000E00
277.65	0.0000E00
278.02	0.0000E00
278.39	0.0000E00
278.76	0.0000E00
279.13	0.0000E00
279.50	0.0000E00
279.87	0.0000E00
280.23	0.0000E00
280.60	0.0000E00
280.97	0.0000E00
281.34	0.0000E00
281.71	0.0000E00
282.08	0.0000E00
282.45	0.0000E00
282.82	0.0000E00
283.19	0.0000E00
283.56	0.0000E00
283.92	0.0000E00
284.29	0.0000E00
284.66	0.0000E00
285.03	0.0000E00
285.40	0.0000E00
285.77	0.0000E00
286.14	0.0000E00
286.51	0.0000E00
286.87	0.0000E00
287.24	0.0000E00
287.61	0.0000E00
287.98	0.0000E00
288.35	0.0000E00
288.72	0.0000E00
289.08	0.0000E00
289.45	0.0000E00
289.82	0.0000E00
290.19	0.0000E00
290.56	0.0000E00
290.93	0.0000E00
291.29	0.0000E00
291.66	0.0000E00
292.03	0.0000E00
292.40	0.0000E00
292.77	0.0000E00
293.13	0.0000E00
293.50	0.0000E00
293.87	0.0000E00
294.24	0.0000E00
294.60	0.0000E00
294.97	0.0000E00
295.34	0.0000E00
295.71	0.0000E00
296.08	0.0000E00
296.44	0.0000E00
296.81	0.0000E00
297.18	0.0000E00
297.55	0.0000E00
297.91	0.0000E00
298.28	0.0000E00
298.65	0.0000E00
299.02	0.0000E00
299.38	0.0000E00
299.75	0.0000E00
300.12	1.3320E-01
300.48	1.6943E-01
300.85	1.3107E-01
301.22	2.5523E-01
301.59	1.4824E-01
301.95	1.6584E-01
302.32	1.2412E-01
302.69	1.4882E-01
303.05	1.3842E-01
303.42	2.1906E-01
303.79	2.1303E-01
304.15	1.4108E-01
304.52	1.6942E-01
304.89	1.9213E-01
305.25	1.1519E-01
305.62	1.4519E-01
305.99	1.6957E-01
306.35	1.3312E-01
306.72	1.6658E-01
307.09	2.2828E-01
307.45	2.0551E-01
307.82	2.1499E-01
308.19	8.0270E-01
308.55	1.8361E-01
308.92	1.6727E-01
309.29	1.4946E-01
309.65	2.1504E-01
310.02	2.4035E-01
310.38	1.7778E-01
310.75	1.3987E-01
311.12	2.1860E-01
311.48	1.8365E-01
311.85	2.6495E-01
312.22	1.9166E-01
312.58	3.2714E-01
312.95	1.4639E-01
313.31	1.7528E-01
313.68	2.4549E-01
314.05	2.1364E-01
314.41	2.5487E-01
314.78	2.1442E-01
315.14	7.6747E-01
315.51	2.4509E-01
315.87	1.7581E-01
316.24	4.2586E-01
316.61	2.5853E-01
316.97	2.5417E-01
317.34	2.8689E-01
317.70	2.1361E-01
318.07	2.5346E-01
318.43	2.6065E-01
318.80	4.0302E-01
319.16	2.7065E-01
319.53	7.1139E00
319.89	3.8739E-01
320.26	3.1188E-01
320.62	4.0510E-01
320.99	3.0171E-01
321.35	3.3444E-01
321.72	4.7265E-01
322.08	3.0264E-01
322.45	6.6293E-01
322.81	4.0868E-01
323.18	2.6153E-01
323.54	2.6268E-01
323.91	5.8020E-01
324.27	4.1497E-01
324.64	1.3575E00
325.00	3.3282E-01
325.37	1.2748E00
325.73	3.6540E-01
326.10	1.4822E00
326.46	4.1816E-01
326.83	4.1552E-01
327.19	4.4635E-01
327.56	4.5140E-01
327.92	6.7196E-01
328.29	8.5280E-01
328.65	7.3726E-01
329.01	1.0364E00
329.38	4.6587E-01
329.74	5.0491E-01
330.11	6.7897E-01
330.47	7.9619E-01
330.84	5.8613E-01
331.20	5.7112E-01
331.56	6.7938E-01
331.93	5.7056E-01
332.29	7.0867E-01
332.66	7.1538E-01
333.02	4.6014E-01
333.38	5.4017E-01
333.75	5.7182E-01
334.11	6.9201E-01
334.48	8.4937E-01
334.84	7.2671E-01
335.20	6.1534E-01
335.57	7.1108E-01
335.93	9.9215E-01
336.29	8.2190E-01
336.66	7.0572E-01
337.02	7.8467E-01
337.38	6.7408E-01
337.75	5.7572E-01
338.11	4.6495E-01
338.47	8.3370E-01
338.84	1.1321E00
339.20	2.1128E00
339.56	8.1391E-01
339.93	9.2703E-01
340.29	7.0596E-01
340.65	8.2383E-01
341.02	8.7286E-01
341.38	8.2280E-01
341.74	7.4998E-01
342.11	7.7997E-01
342.47	1.0941E00
342.83	1.2961E00
343.20	7.7623E-01
343.56	1.3519E00
343.92	1.0259E00
344.28	1.0062E00
344.65	9.6211E-01
345.01	1.0327E00
345.37	9.1234E-01
345.73	9.8769E-01
346.10	1.3308E00
346.46	1.1029E00
346.82	8.3740E-01
347.19	1.9318E00
347.55	1.0376E00
347.91	2.0556E00
348.27	1.3033E00
348.63	1.0782E00
349.00	1.1294E00
349.36	1.0311E00
349.72	1.2275E00
350.08	1.6072E00
350.45	1.7035E00
350.81	1.6916E00
351.17	1.2124E00
351.53	1.6838E00
351.89	1.5444E00
352.26	1.4234E00
352.62	1.5262E00
352.98	1.0191E00
353.34	1.7898E00
353.70	1.4204E00
354.07	1.1530E00
354.43	1.4482E00
354.79	1.2321E00
355.15	1.2724E00
355.51	1.4855E00
355.87	9.6094E-01
356.24	1.4248E00
356.60	1.5312E00
356.96	1.3361E00
357.32	1.5273E00
357.68	1.0797E00
358.04	1.2538E00
358.40	1.2806E00
358.77	1.0675E00
359.13	1.4501E00
359.49	1.5124E00
359.85	1.4858E00
360.21	1.4120E00
360.57	1.3160E00
360.93	1.2407E00
361.29	1.4890E00
361.66	2.2535E00
362.02	1.4323E00
362.38	1.9441E00
362.74	1.3083E00
363.10	1.5412E00
363.46	1.3407E00
363.82	1.3983E00
364.18	1.5374E00
364.54	1.4284E00
364.90	1.1191E00
365.26	1.5093E00
365.62	1.3892E00
365.98	1.9332E00
366.35	1.7078E00
366.71	1.4396E00
367.07	1.4550E00
367.43	1.4294E00
367.79	1.3659E00
368.15	1.1435E00
368.51	1.4184E00
368.87	1.2430E00
369.23	1.3542E00
369.59	1.5772E00
369.95	1.5700E00
370.31	1.2216E00
370.67	1.3261E00
371.03	1.5274E00
371.39	1.4234E00
371.75	1.2298E00
372.11	1.4691E00
372.47	1.2127E00
372.83	1.4794E00
373.19	1.3227E00
373.55	1.4679E00
373.91	1.4641E00
374.27	1.6198E00
374.63	1.3709E00
374.99	1.3519E00
375.35	1.4273E00
375.71	1.2496E00
376.07	1.3877E00
376.42	1.2720E00
376.78	1.3992E00
377.14	1.2963E00
377.50	1.1653E00
377.86	1.3600E00
378.22	1.2076E00
378.58	1.3167E00
378.94	1.0622E00
379.30	1.1363E00
379.66	1.2648E00
380.02	1.1664E00
380.38	1.1875E00
380.74	1.3128E00
381.09	1.0979E00
381.45	1.1626E00
381.81	1.0006E00
382.17	1.3139E00
382.53	1.1665E00
382.89	1.1320E00
383.25	1.1982E00
383.61	1.1456E00
383.97	1.1492E00
384.32	1.0934E00
384.68	1.2771E00
385.04	1.0844E00
385.40	1.0790E00
385.76	1.2224E00
386.12	1.0697E00
386.48	1.1335E00
386.83	1.2115E00
387.19	1.0658E00
387.55	1.1347E00
387.91	1.0322E00
388.27	1.1252E00
388.62	1.2165E00
388.98	1.0236E00
389.34	1.2049E00
389.70	1.0303E00
390.06	9.9898E-01
390.42	1.2115E00
390.77	1.0917E00
391.13	1.0566E00
391.49	1.1823E00
391.85	1.2740E00
392.20	1.2194E00
392.56	1.1474E00
392.92	1.0837E00
393.28	1.0763E00
393.64	1.0858E00
393.99	1.1321E00
394.35	1.0853E00
394.71	1.0957E00
395.07	1.0111E00
395.42	1.1095E00
395.78	1.1567E00
396.14	1.0976E00
396.50	1.0556E00
396.85	1.1722E00
397.21	1.0221E00
397.57	1.1170E00
397.92	1.0936E00
398.28	1.0650E00
398.64	1.1236E00
399.00	1.0230E00
399.35	9.9495E-01
399.71	1.0258E00
400.07	1.0797E00
400.42	1.0209E00
400.78	1.0348E00
401.14	9.6972E-01
401.49	1.0304E00
401.85	9.6300E-01
402.21	1.0436E00
402.57	1.0430E00
402.92	1.0132E00
403.28	9.8098E-01
403.63	9.7714E-01
403.99	9.7150E-01
404.35	9.7907E-01
404.70	1.0274E00
405.06	9.3097E-01
405.42	1.0332E00
405.77	9.5434E-01
406.13	9.4206E-01
406.49	8.9587E-01
406.84	9.6935E-01
407.20	9.2686E-01
407.55	1.0160E00
407.91	1.0130E00
408.27	9.2295E-01
408.62	9.0728E-01
408.98	9.1572E-01
409.34	9.0503E-01
409.69	9.5919E-01
410.05	9.2744E-01
410.40	9.1665E-01
410.76	8.7828E-01
411.11	8.3590E-01
411.47	9.1891E-01
411.83	8.5258E-01
412.18	8.5817E-01
412.54	9.1958E-01
412.89	9.1915E-01
413.25	8.5155E-01
413.60	8.8036E-01
413.96	9.4192E-01
414.31	9.0481E-01
414.67	9.5888E-01
415.03	9.6051E-01
415.38	9.2078E-01
415.74	9.5268E-01
416.09	8.7984E-01
416.45	9.4354E-01
416.80	8.8259E-01
417.16	9.5248E-01
417.51	8.9170E-01
417.87	8.7840E-01
418.22	8.5998E-01
418.58	9.2482E-01
418.93	8.3074E-01
419.29	9.0529E-01
419.64	8.7352E-01
420.00	8.3636E-01
420.35	8.1059E-01
420.71	8.5971E-01
421.06	8.4905E-01
421.42	8.5801E-01
421.77	8.6126E-01
422.12	8.6051E-01
422.48	8.3464E-01
422.83	8.8098E-01
423.19	8.4415E-01
423.54	8.4315E-01
423.90	8.4565E-01
424.25	8.0601E-01
424.61	8.4979E-01
424.96	8.3323E-01
425.31	8.0277E-01
425.67	8.0326E-01
426.02	8.1557E-01
426.38	8.1077E-01
426.73	7.9336E-01
427.09	8.1111E-01
427.44	7.4875E-01
427.79	8.0437E-01
428.15	7.8745E-01
428.50	8.0247E-01
428.85	8.2838E-01
429.21	7.6672E-01
429.56	7.4095E-01
429.92	7.6118E-01
430.27	7.5150E-01
430.62	7.8480E-01
430.98	8.0329E-01
431.33	7.7152E-01
431.68	7.7070E-01
432.04	7.3934E-01
432.39	7.5641E-01
432.74	8.0454E-01
433.10	7.2985E-01
433.45	7.7115E-01
433.80	7.7545E-01
434.16	7.7901E-01
434.51	7.4670E-01
434.86	7.8207E-01
435.22	7.3804E-01
435.57	8.1237E-01
435.92	7.5713E-01
436.28	7.8483E-01
436.63	7.3227E-01
436.98	7.3955E-01
437.34	7.5719E-01
437.69	7.3085E-01
438.04	7.0795E-01
438.39	7.6281E-01
438.75	7.3328E-01
439.10	7.0465E-01
439.45	7.4553E-01
439.81	7.2288E-01
440.16	7.0556E-01
440.51	7.2540E-01
440.86	7.2277E-01
441.22	7.1600E-01
441.57	7.2972E-01
441.92	7.0952E-01
442.27	7.4597E-01
442.63	7.1617E-01
442.98	7.6156E-01
443.33	7.4358E-01
443.68	7.1706E-01
444.03	6.6715E-01
444.39	6.6886E-01
444.74	7.2137E-01
445.09	7.3324E-01
445.44	7.2587E-01
445.79	6.5689E-01
446.15	7.2259E-01
446.50	7.0782E-01
446.85	6.7485E-01
447.20	6.6563E-01
447.55	6.8512E-01
447.91	6.9633E-01
448.26	6.9270E-01
448.61	7.0603E-01
448.96	6.8353E-01
449.31	6.8120E-01
449.66	7.1658E-01
450.02	6.7762E-01
450.37	7.0793E-01
450.72	6.7631E-01
451.07	7.1453E-01
451.42	7.1711E-01
451.77	6.9375E-01
452.12	6.9276E-01
452.47	7.3174E-01
452.83	6.5033E-01
453.18	6.9912E-01
453.53	6.8212E-01
453.88	6.4511E-01
454.23	6.5183E-01
454.58	6.4871E-01
454.93	6.8009E-01
455.28	6.7289E-01
455.63	6.6958E-01
455.98	6.5484E-01
456.34	6.8307E-01
456.69	6.7386E-01
457.04	6.5637E-01
457.39	6.3146E-01
457.74	6.2220E-01
458.09	6.4650E-01
458.44	6.2781E-01
458.79	6.0064E-01
459.14	6.2801E-01
459.49	6.4519E-01
459.84	6.2204E-01
460.19	6.5744E-01
460.54	6.4675E-01
460.89	5.9950E-01
461.24	6.5964E-01
461.59	6.3208E-01
461.94	6.5230E-01
462.29	5.9965E-01
462.64	6.4838E-01
462.99	6.5374E-01
463.34	6.5924E-01
463.69	6.2581E-01
464.04	5.8935E-01
464.39	5.9934E-01
464.74	6.1677E-01
465.09	6.3875E-01
465.44	6.0007E-01
465.79	6.2516E-01
466.14	6.2791E-01
466.49	6.0698E-01
466.84	6.1405E-01
467.19	6.1814E-01
467.54	6.3907E-01
467.89	6.0202E-01
468.24	5.7657E-01
468.59	5.8341E-01
468.94	5.7584E-01
469.29	5.7978E-01
469.64	5.9067E-01
469.99	5.7871E-01
470.34	5.5549E-01
470.68	5.9417E-01
471.03	5.7404E-01
471.38	5.5884E-01
471.73	5.5966E-01
472.08	5.3912E-01
472.43	5.2287E-01
472.78	5.4341E-01
473.13	5.4574E-01
473.48	5.4387E-01
473.83	5.2279E-01
474.17	5.3221E-01
474.52	5.2892E-01
474.87	5.0552E-01
475.22	5.1370E-01
475.57	4.8834E-01
475.92	4.7123E-01
476.27	5.0610E-01
476.61	4.8032E-01
476.96	4.7051E-01
477.31	4.5215E-01
477.66	4.5991E-01
478.01	4.5659E-01
478.36	4.5713E-01
478.70	4.4178E-01
479.05	4.5199E-01
479.40	4.2929E-01
479.75	4.3296E-01
480.10	4.3330E-01
480.45	4.1865E-01
480.79	4.2381E-01
481.14	4.3247E-01
481.49	4.1599E-01
481.84	4.0565E-01
482.19	4.0298E-01
482.53	4.0660E-01
482.88	3.9961E-01
483.23	3.9177E-01
483.58	3.9122E-01
483.92	3.9928E-01
484.27	3.8207E-01
484.62	3.8359E-01
484.97	3.7281E-01
485.31	3.7265E-01
485.66	3.7833E-01
486.01	3.8102E-01
486.36	3.6404E-01
486.70	3.6761E-01
487.05	3.6670E-01
487.40	3.6447E-01
487.75	3.5570E-01
488.09	3.5977E-01
488.44	3.6197E-01
488.79	3.6163E-01
489.13	3.5592E-01
489.48	3.5878E-01
489.83	3.5740E-01
490.17	3.4687E-01
490.52	3.4716E-01
490.87	3.4808E-01
491.22	3.4832E-01
491.56	3.4889E-01
491.91	3.5368E-01
492.26	3.4834E-01
492.60	3.4874E-01
492.95	3.5173E-01
493.30	3.5034E-01
493.64	3.4498E-01
493.99	3.4783E-01
494.34	3.4775E-01
494.68	3.4138E-01
495.03	3.5215E-01
495.37	3.4390E-01
495.72	3.5281E-01
496.07	3.4405E-01
496.41	3.4309E-01
496.76	3.4301E-01
497.11	3.4820E-01
497.45	3.4558E-01
497.80	3.4669E-01
498.14	3.4412E-01
498.49	3.4338E-01
498.84	3.4518E-01
499.18	3.4008E-01
499.53	3.4347E-01
499.87	3.4454E-01
500.22	3.4715E-01
500.56	3.4673E-01
500.91	3.4423E-01
501.26	3.4486E-01
501.60	3.4242E-01
501.95	3.4328E-01
502.29	3.4268E-01
502.64	3.3988E-01
502.98	3.4577E-01
503.33	3.3935E-01
503.67	3.4225E-01
504.02	3.4129E-01
504.36	3.3902E-01
504.71	3.4404E-01
505.06	3.4301E-01
505.40	3.3829E-01
505.75	3.3918E-01
506.09	3.4101E-01
506.44	3.3835E-01
506.78	3.3758E-01
507.13	3.3859E-01
507.47	3.3653E-01
507.82	3.3522E-01
508.16	3.3729E-01
508.51	3.3471E-01
508.85	3.3183E-01
509.19	3.3167E-01
509.54	3.3602E-01
509.88	3.3804E-01
510.23	3.3215E-01
510.57	3.3257E-01
510.92	3.3297E-01
511.26	3.3001E-01
511.61	3.3135E-01
511.95	3.2976E-01
512.30	3.2810E-01
512.64	3.2916E-01
512.98	3.2818E-01
513.33	3.2726E-01
513.67	3.3130E-01
514.02	3.2960E-01
514.36	3.2624E-01
514.70	3.2965E-01
515.05	3.2300E-01
515.39	3.2580E-01
515.74	3.2374E-01
516.08	3.2617E-01
516.42	3.2301E-01
516.77	3.2373E-01
517.11	3.2375E-01
517.46	3.2305E-01
517.80	3.2413E-01
518.14	3.2382E-01
518.49	3.2079E-01
518.83	3.2399E-01
519.17	3.2687E-01
519.52	3.2215E-01
519.86	3.2103E-01
520.20	3.1988E-01
520.55	3.1888E-01
520.89	3.1933E-01
521.23	3.2034E-01
521.58	3.2325E-01
521.92	3.2234E-01
522.26	3.2596E-01
522.61	3.1906E-01
522.95	3.2195E-01
523.29	3.1935E-01
523.64	3.2179E-01
523.98	3.2217E-01
524.32	3.2177E-01
524.66	3.2086E-01
525.01	3.2232E-01
525.35	3.2297E-01
525.69	3.2524E-01
526.04	3.2583E-01
526.38	3.2155E-01
526.72	3.2690E-01
527.06	3.2553E-01
527.41	3.2782E-01
527.75	3.2722E-01
528.09	3.2516E-01
528.43	3.2901E-01
528.78	3.2721E-01
529.12	3.3239E-01
529.46	3.3169E-01
529.80	3.3333E-01
530.15	3.3325E-01
530.49	3.3550E-01
530.83	3.3526E-01
531.17	3.3517E-01
531.51	3.3787E-01
531.86	3.3700E-01
532.20	3.4314E-01
532.54	3.3837E-01
532.88	3.4162E-01
533.22	3.4414E-01
533.57	3.4582E-01
533.91	3.4428E-01
534.25	3.4612E-01
534.59	3.4665E-01
534.93	3.4326E-01
535.27	3.4758E-01
535.62	3.5161E-01
535.96	3.5138E-01
536.30	3.5014E-01
536.64	3.5501E-01
536.98	3.5663E-01
537.32	3.5482E-01
537.66	3.5423E-01
538.01	3.6116E-01
538.35	3.6050E-01
538.69	3.5669E-01
539.03	3.6374E-01
539.37	3.5930E-01
539.71	3.6469E-01
540.05	3.6092E-01
540.39	3.6471E-01
540.73	3.6697E-01
541.07	3.6590E-01
541.42	3.6675E-01
541.76	3.6743E-01
542.10	3.6871E-01
542.44	3.7132E-01
542.78	3.7115E-01
543.12	3.6831E-01
543.46	3.7642E-01
543.80	3.7140E-01
544.14	3.7062E-01
544.48	3.6958E-01
544.82	3.7434E-01
545.16	3.7192E-01
545.50	3.7412E-01
545.84	3.7973E-01
546.18	3.7310E-01
546.52	3.7809E-01
546.86	3.7800E-01
547.20	3.7942E-01
547.54	3.8523E-01
547.88	3.7927E-01
548.22	3.7860E-01
548.56	3.8193E-01
548.90	3.7902E-01
549.24	3.8139E-01
549.58	3.8445E-01
549.92	3.8196E-01
550.26	3.8641E-01
550.60	3.8431E-01
550.94	3.7913E-01
551.28	3.8700E-01
551.62	3.8201E-01
551.96	3.8621E-01
552.30	3.9024E-01
552.64	3.8882E-01
552.98	3.8639E-01
553.32	3.8553E-01
553.66	3.8536E-01
554.00	3.8447E-01
554.34	3.8769E-01
554.68	3.8976E-01
555.02	3.8707E-01
555.36	3.9150E-01
555.69	3.8997E-01
556.03	3.8835E-01
556.37	3.8840E-01
556.71	3.8761E-01
557.05	3.8853E-01
557.39	3.8933E-01
557.73	3.8993E-01
558.07	3.8964E-01
558.41	3.8629E-01
558.75	3.9061E-01
559.08	3.8860E-01
559.42	3.8403E-01
559.76	3.9176E-01
560.10	3.9125E-01
560.44	3.9209E-01
560.78	3.8802E-01
561.12	3.8798E-01
561.45	3.8954E-01
561.79	3.9114E-01
562.13	3.9103E-01
562.47	3.9119E-01
562.81	3.9308E-01
563.15	3.9291E-01
563.48	3.9115E-01
563.82	3.8451E-01
564.16	3.9267E-01
564.50	3.9022E-01
564.84	3.9364E-01
565.17	3.9205E-01
565.51	3.8826E-01
565.85	3.9261E-01
566.19	3.8978E-01
566.52	3.9487E-01
566.86	3.8983E-01
567.20	3.9282E-01
567.54	3.9513E-01
567.88	3.9336E-01
568.21	3.9707E-01
568.55	3.9445E-01
568.89	3.9261E-01
569.23	3.9348E-01
569.56	3.9341E-01
569.90	3.9619E-01
570.24	3.9862E-01
570.57	3.9907E-01
570.91	3.9726E-01
571.25	3.9634E-01
571.59	3.9579E-01
571.92	3.9647E-01
572.26	3.9833E-01
572.60	4.0058E-01
572.93	4.0081E-01
573.27	4.0310E-01
573.61	4.0406E-01
573.95	3.9939E-01
574.28	4.0452E-01
574.62	4.0368E-01
574.96	4.1019E-01
575.29	4.0748E-01
575.63	4.1254E-01
575.97	4.0961E-01
576.30	4.1632E-01
576.64	4.1167E-01
576.98	4.1541E-01
577.31	4.1383E-01
577.65	4.1803E-01
577.98	4.1657E-01
578.32	4.2115E-01
578.66	4.2343E-01
578.99	4.2099E-01
579.33	4.2718E-01
579.67	4.2405E-01
580.00	4.2850E-01
580.34	4.2508E-01
580.67	4.2986E-01
581.01	4.3060E-01
581.35	4.3209E-01
581.68	4.3489E-01
582.02	4.3591E-01
582.35	4.3718E-01
582.69	4.3482E-01
583.02	4.4322E-01
583.36	4.4152E-01
583.70	4.3919E-01
584.03	4.4347E-01
584.37	4.4175E-01
584.70	4.4992E-01
585.04	4.4724E-01
585.37	4.4499E-01
585.71	4.5355E-01
586.04	4.4851E-01
586.38	4.5169E-01
586.72	4.5663E-01
587.05	4.5506E-01
587.39	4.5947E-01
587.72	4.5467E-01
588.06	4.6292E-01
588.39	4.5916E-01
588.73	4.6247E-01
589.06	4.6287E-01
589.40	4.6720E-01
589.73	4.6788E-01
590.07	4.7106E-01
590.40	4.7153E-01
590.73	4.7744E-01
591.07	4.7019E-01
591.40	4.7782E-01
591.74	4.7542E-01
592.07	4.8060E-01
592.41	4.7976E-01
592.74	4.8069E-01
593.08	4.7652E-01
593.41	4.7874E-01
593.75	4.8181E-01
594.08	4.8274E-01
594.41	4.8344E-01
594.75	4.8739E-01
595.08	4.8458E-01
595.42	4.8087E-01
595.75	4.8376E-01
596.09	4.8805E-01
596.42	4.8740E-01
596.75	4.8862E-01
597.09	4.9359E-01
597.42	4.8725E-01
597.75	4.9202E-01
598.09	4.9187E-01
598.42	4.9517E-01
598.76	4.9568E-01
599.09	4.9666E-01
599.42	5.0121E-01
599.76	4.9712E-01
600.09	4.9968E-01
600.42	5.0034E-01
600.76	4.9034E-01
601.09	4.9764E-01
601.42	5.0612E-01
601.76	4.9804E-01
602.09	4.9956E-01
602.42	5.0237E-01
602.76	5.0242E-01
603.09	5.0106E-01
603.42	5.0323E-01
603.76	4.9834E-01
604.09	4.9993E-01
604.42	5.0372E-01
604.76	5.0062E-01
605.09	5.0686E-01
605.42	5.0419E-01
605.75	5.0589E-01
606.09	5.0870E-01
606.42	5.0573E-01
606.75	5.0704E-01
607.09	5.1029E-01
607.42	5.0493E-01
607.75	5.0997E-01
608.08	5.1228E-01
608.42	5.1222E-01
608.75	5.0888E-01
609.08	5.1291E-01
609.41	5.1401E-01
609.75	5.1486E-01
610.08	5.0910E-01
610.41	5.1390E-01
610.74	5.1467E-01
611.07	5.1664E-01
611.41	5.0981E-01
611.74	5.1563E-01
612.07	5.1411E-01
612.40	5.1178E-01
612.73	5.1383E-01
613.07	5.1869E-01
613.40	5.1439E-01
613.73	5.1128E-01
614.06	5.1552E-01
614.39	5.1666E-01
614.72	5.1922E-01
615.06	5.1854E-01
615.39	5.2659E-01
615.72	5.1723E-01
616.05	5.2839E-01
616.38	5.2399E-01
616.71	5.2720E-01
617.05	5.1773E-01
617.38	5.2261E-01
617.71	5.1878E-01
618.04	5.2746E-01
618.37	5.1796E-01
618.70	5.2133E-01
619.03	5.2337E-01
619.36	5.1609E-01
619.69	5.2426E-01
620.03	5.1954E-01
620.36	5.1978E-01
620.69	5.1931E-01
621.02	5.2331E-01
621.35	5.1743E-01
621.68	5.1169E-01
622.01	5.1656E-01
622.34	5.1901E-01
622.67	5.1814E-01
623.00	5.2202E-01
623.33	5.1930E-01
623.66	5.2000E-01
623.99	5.2428E-01
624.32	5.1706E-01
624.65	5.1791E-01
624.99	5.1910E-01
625.32	5.2125E-01
625.65	5.2081E-01
625.98	5.1248E-01
626.31	5.1849E-01
626.64	5.2091E-01
626.97	5.1697E-01
627.30	5.1578E-01
627.63	5.2017E-01
627.96	5.1538E-01
628.29	5.1182E-01
628.62	5.1936E-01
628.95	5.2046E-01
629.28	5.1213E-01
629.61	5.2390E-01
629.94	5.2029E-01
630.26	5.2298E-01
630.59	5.2270E-01
630.92	5.1804E-01
631.25	5.1992E-01
631.58	5.2634E-01
631.91	5.2627E-01
632.24	5.2957E-01
632.57	5.2738E-01
632.90	5.2573E-01
633.23	5.2728E-01
633.56	5.3085E-01
633.89	5.3037E-01
634.22	5.3149E-01
634.55	5.3482E-01
634.88	5.3906E-01
635.20	5.3944E-01
635.53	5.4207E-01
635.86	5.4241E-01
636.19	5.4900E-01
636.52	5.4862E-01
636.85	5.4928E-01
637.18	5.5541E-01
637.51	5.5235E-01
637.83	5.5944E-01
638.16	5.5557E-01
638.49	5.6410E-01
638.82	5.6330E-01
639.15	5.6518E-01
639.48	5.6766E-01
639.81	5.7600E-01
640.13	5.7052E-01
640.46	5.7700E-01
640.79	5.7577E-01
641.12	5.8479E-01
641.45	5.8105E-01
641.77	5.8255E-01
642.10	5.9197E-01
642.43	5.9144E-01
642.76	5.9659E-01
643.09	5.9132E-01
643.41	5.9770E-01
643.74	5.9994E-01
644.07	5.9610E-01
644.40	6.0225E-01
644.73	6.1130E-01
645.05	6.1216E-01
645.38	6.1425E-01
645.71	6.1668E-01
646.04	6.1898E-01
646.36	6.1523E-01
646.69	6.2860E-01
647.02	6.2025E-01
647.35	6.2527E-01
647.67	6.3344E-01
648.00	6.2867E-01
648.33	6.3993E-01
648.66	6.3199E-01
648.98	6.4234E-01
649.31	6.3715E-01
649.64	6.3929E-01
649.96	6.4871E-01
650.29	6.5103E-01
650.62	6.5209E-01
650.94	6.5534E-01
651.27	6.5293E-01
651.60	6.5469E-01
651.92	6.6476E-01
652.25	6.6345E-01
652.58	6.6442E-01
652.90	6.6895E-01
653.23	6.6670E-01
653.56	6.6972E-01
653.88	6.7546E-01
654.21	6.7536E-01
654.54	6.7918E-01
654.86	6.8706E-01
655.19	6.7949E-01
655.52	6.9101E-01
655.84	6.8354E-01
656.17	6.8761E-01
656.49	6.9612E-01
656.82	6.8412E-01
657.15	6.9778E-01
657.47	6.9719E-01
657.80	6.9917E-01
658.13	7.0019E-01
658.45	7.0293E-01
658.78	7.0816E-01
659.10	7.0961E-01
659.43	7.1125E-01
659.75	7.0875E-01
660.08	7.0540E-01
660.41	7.1644E-01
660.73	7.1872E-01
661.06	7.2200E-01
661.38	7.1999E-01
661.71	7.2107E-01
662.03	7.1439E-01
662.36	7.2848E-01
662.68	7.2789E-01
663.01	7.1987E-01
663.33	7.3117E-01
663.66	7.3198E-01
663.98	7.3722E-01
664.31	7.3043E-01
664.63	7.4586E-01
664.96	7.3453E-01
665.28	7.4339E-01
665.61	7.4149E-01
665.93	7.4052E-01
666.26	7.4537E-01
666.58	7.4836E-01
666.91	7.4368E-01
667.23	7.5189E-01
667.56	7.4776E-01
667.88	7.5014E-01
668.21	7.5832E-01
668.53	7.5091E-01
668.86	7.5762E-01
669.18	7.5546E-01
669.50	7.6699E-01
669.83	7.6577E-01
670.15	7.6711E-01
670.48	7.7087E-01
670.80	7.6754E-01
671.13	7.6423E-01
671.45	7.7160E-01
671.77	7.7500E-01
672.10	7.6919E-01
672.42	7.8405E-01
672.75	7.7663E-01
673.07	7.8538E-01
673.39	7.8070E-01
673.72	7.8573E-01
674.04	7.9109E-01
674.37	7.8655E-01
674.69	7.8256E-01
675.01	7.9836E-01
675.34	7.9645E-01
675.66	7.9873E-01
675.98	7.8710E-01
676.31	8.0187E-01
676.63	7.9842E-01
676.95	7.9772E-01
677.28	8.0493E-01
677.60	8.0696E-01
677.92	8.1169E-01
678.25	8.1405E-01
678.57	8.1407E-01
678.89	8.1062E-01
679.22	8.2171E-01
679.54	8.1454E-01
679.86	8.2696E-01
680.18	8.1793E-01
680.51	8.1971E-01
680.83	8.3868E-01
681.15	8.2441E-01
681.48	8.3423E-01
681.80	8.2861E-01
682.12	8.2978E-01
682.44	8.3981E-01
682.77	8.4507E-01
683.09	8.4955E-01
683.41	8.4788E-01
683.73	8.5497E-01
684.06	8.5064E-01
684.38	8.5135E-01
684.70	8.5786E-01
685.02	8.6243E-01
685.34	8.6640E-01
685.67	8.6216E-01
685.99	8.7567E-01
686.31	8.6682E-01
686.63	8.8345E-01
686.96	8.8333E-01
687.28	8.8904E-01
687.60	8.7615E-01
687.92	8.8612E-01
688.24	8.9195E-01
688.56	9.0081E-01
688.89	8.9230E-01
689.21	9.0287E-01
689.53	9.0250E-01
689.85	9.1347E-01
690.17	9.0543E-01
690.49	9.2485E-01
690.82	9.1536E-01
691.14	9.1957E-01
691.46	9.1749E-01
691.78	9.2960E-01
692.10	9.2348E-01
692.42	9.3585E-01
692.74	9.3564E-01
693.06	9.4189E-01
693.39	9.5242E-01
693.71	9.6612E-01
694.03	9.6178E-01
694.35	9.5972E-01
694.67	9.6376E-01
694.99	9.7827E-01
695.31	9.7558E-01
695.63	9.8052E-01
695.95	9.8178E-01
696.27	9.8474E-01
696.59	9.8733E-01
696.91	9.9637E-01
697.23	9.9896E-01
697.56	1.0038E00
697.88	1.0016E00
698.20	1.0096E00
698.52	1.0142E00
698.84	1.0273E00
699.16	1.0345E00
699.48	1.0232E00
699.80	1.0464E00
700.12	1.0383E00
700.44	1.0421E00
700.76	1.0492E00
701.08	1.0643E00
701.40	1.0631E00
701.72	1.0652E00
702.04	1.0736E00
702.36	1.0730E00
702.68	1.0829E00
703.00	1.0930E00
703.32	1.0893E00
703.64	1.1043E00
703.96	1.1001E00
704.28	1.1104E00
704.60	1.1166E00
704.91	1.1243E00
705.23	1.1245E00
705.55	1.1362E00
705.87	1.1379E00
706.19	1.1379E00
706.51	1.1499E00
706.83	1.1440E00
707.15	1.1730E00
707.47	1.1637E00
707.79	1.1777E00
708.11	1.1738E00
708.43	1.1815E00
708.74	1.1819E00
709.06	1.1934E00
709.38	1.2061E00
709.70	1.2029E00
710.02	1.2100E00
710.34	1.2053E00
710.66	1.2304E00
710.98	1.2271E00
711.29	1.2321E00
711.61	1.2516E00
711.93	1.2619E00
712.25	1.2504E00
712.57	1.2680E00
712.89	1.2736E00
713.20	1.2674E00
713.52	1.2850E00
713.84	1.2904E00
714.16	1.2827E00
714.48	1.2936E00
714.80	1.3130E00
715.11	1.3107E00
715.43	1.3254E00
715.75	1.3301E00
716.07	1.3344E00
716.39	1.3246E00
716.70	1.3347E00
717.02	1.3312E00
717.34	1.3600E00
717.66	1.3635E00
717.97	1.3759E00
718.29	1.3845E00
718.61	1.3913E00
718.93	1.4068E00
719.24	1.4006E00
719.56	1.4256E00
719.88	1.4245E00
720.20	1.4498E00
720.51	1.4651E00
720.83	1.4439E00
721.15	1.4756E00
721.46	1.4748E00
721.78	1.4845E00
722.10	1.5106E00
722.42	1.5048E00
722.73	1.5241E00
723.05	1.5152E00
723.37	1.5316E00
723.68	1.5496E00
724.00	1.5381E00
724.32	1.5623E00
724.63	1.5535E00
724.95	1.5676E00
725.27	1.5784E00
725.58	1.5775E00
725.90	1.5706E00
726.22	1.5972E00
726.53	1.5794E00
726.85	1.6024E00
727.16	1.6081E00
727.48	1.6200E00
727.80	1.6167E00
728.11	1.6172E00
728.43	1.6235E00
728.74	1.6258E00
729.06	1.6506E00
729.38	1.6486E00
729.69	1.6368E00
730.01	1.6557E00
730.32	1.6566E00
730.64	1.6555E00
730.96	1.6637E00
731.27	1.6930E00
731.59	1.6676E00
731.90	1.6900E00
732.22	1.6889E00
732.53	1.6907E00
732.85	1.7121E00
733.16	1.7152E00
733.48	1.7208E00
733.80	1.6978E00
734.11	1.7318E00
734.43	1.7249E00
734.74	1.7298E00
735.06	1.7608E00
735.37	1.7420E00
735.69	1.7632E00
736.00	1.7727E00
736.32	1.7747E00
736.63	1.7793E00
736.95	1.7846E00
737.26	1.8020E00
737.58	1.7921E00
737.89	1.8118E00
738.21	1.8150E00
738.52	1.8108E00
738.83	1.8292E00
739.15	1.8162E00
739.46	1.8372E00
739.78	1.8511E00
740.09	1.8495E00
740.41	1.8506E00
740.72	1.8499E00
741.04	1.8497E00
741.35	1.8532E00
741.66	1.8437E00
741.98	1.8697E00
742.29	1.8630E00
742.61	1.8720E00
742.92	1.8643E00
743.23	1.8733E00
743.55	1.8923E00
743.86	1.8897E00
744.18	1.8729E00
744.49	1.8879E00
744.80	1.8816E00
745.12	1.8830E00
745.43	1.8838E00
745.74	1.8768E00
746.06	1.8867E00
746.37	1.8668E00
746.68	1.8758E00
747.00	1.8832E00
747.31	1.8925E00
747.62	1.8671E00
747.94	1.8974E00
748.25	1.8852E00
748.56	1.8813E00
748.88	1.8809E00
749.19	1.8915E00
749.50	1.8901E00
749.82	1.8816E00
750.13	1.8859E00
750.44	1.8806E00
750.75	1.8679E00
751.07	1.8852E00
751.38	1.8928E00
751.69	1.8891E00
752.01	1.8889E00
752.32	1.8993E00
752.63	1.8825E00
752.94	1.8971E00
753.26	1.9182E00
753.57	1.8975E00
753.88	1.9262E00
754.19	1.9125E00
754.51	1.9099E00
754.82	1.9110E00
755.13	1.9426E00
755.44	1.9272E00
755.75	1.9252E00
756.07	1.9326E00
756.38	1.9529E00
756.69	1.9462E00
757.00	1.9546E00
757.31	1.9815E00
757.63	2.0030E00
757.94	1.9957E00
758.25	1.9951E00
758.56	1.9708E00
758.87	2.0099E00
759.18	2.0316E00
759.50	2.0249E00
759.81	2.0486E00
760.12	2.0397E00
760.43	2.0621E00
760.74	2.0907E00
761.05	1.7066E00
761.36	1.5782E00
761.67	1.7751E00
761.99	1.9402E00
762.30	2.0428E00
762.61	2.0533E00
762.92	1.9982E00
763.23	1.9823E00
763.54	1.9786E00
763.85	2.0131E00
764.16	2.0544E00
764.47	2.1925E00
764.78	2.2127E00
765.10	2.2730E00
765.41	2.2868E00
765.72	2.2919E00
766.03	2.3432E00
766.34	2.3366E00
766.65	2.3490E00
766.96	2.3768E00
767.27	2.3896E00
767.58	2.3673E00
767.89	2.4086E00
768.20	2.4425E00
768.51	2.4571E00
768.82	2.4637E00
769.13	2.4796E00
769.44	2.5353E00
769.75	2.5323E00
770.06	2.5681E00
770.37	2.5326E00
770.68	2.5889E00
770.99	2.6073E00
771.30	2.6478E00
771.61	2.6893E00
771.92	2.6596E00
772.23	2.6834E00
772.54	2.7268E00
772.85	2.7260E00
773.16	2.7879E00
773.47	2.8138E00
773.78	2.7916E00
774.09	2.8690E00
774.39	2.8605E00
774.70	2.8923E00
775.01	2.9142E00
775.32	2.9136E00
775.63	2.9635E00
775.94	2.9964E00
776.25	3.0032E00
776.56	3.0422E00
776.87	3.1132E00
777.18	3.0923E00
777.48	3.1135E00
777.79	3.1547E00
778.10	3.1793E00
778.41	3.2033E00
778.72	3.2357E00
779.03	3.2400E00
779.34	3.3255E00
779.65	3.3046E00
779.95	3.3402E00
780.26	3.3789E00
780.57	3.4071E00
780.88	3.3960E00
781.19	3.4683E00
781.50	3.4751E00
781.80	3.5032E00
782.11	3.5456E00
782.42	3.6164E00
782.73	3.5431E00
783.04	3.5923E00
783.34	3.6740E00
783.65	3.7056E00
783.96	3.7321E00
784.27	3.7249E00
784.57	3.7355E00
784.88	3.8323E00
785.19	3.8377E00
785.50	3.8389E00
785.81	3.8838E00
786.11	3.8611E00
786.42	4.0034E00
786.73	4.0094E00
787.04	3.9794E00
787.34	4.0430E00
787.65	4.0328E00
787.96	4.1356E00
788.26	4.1732E00
788.57	4.2201E00
788.88	4.1340E00
789.19	4.3089E00
789.49	4.3052E00
789.80	4.3312E00
790.11	4.3775E00
790.41	4.3581E00
790.72	4.4873E00
791.03	4.4808E00
791.33	4.5246E00
791.64	4.5338E00
791.95	4.5925E00
792.25	4.6933E00
792.56	4.7215E00
792.87	4.6917E00
793.17	4.6742E00
793.48	4.4964E00
793.79	4.5520E00
794.09	4.7146E00
794.40	4.5908E00
794.70	4.6089E00
795.01	4.6786E00
795.32	4.5972E00
795.62	4.7103E00
795.93	4.6284E00
796.23	4.6365E00
796.54	4.5837E00
796.85	4.5657E00
797.15	4.6894E00
797.46	4.7321E00
797.76	4.7815E00
798.07	4.8313E00
798.37	4.8677E00
798.68	4.8767E00
798.99	4.9331E00
799.29	4.9346E00
799.60	4.9256E00
799.90	4.9041E00
800.21	4.9299E00
800.51	4.9466E00
800.82	4.9864E00
801.12	4.9983E00
801.43	4.9148E00
801.73	4.9512E00
802.04	4.9883E00
802.34	4.9677E00
802.65	5.0564E00
802.95	5.0334E00
803.26	5.1221E00
803.56	5.0563E00
803.87	5.0953E00
804.17	5.1259E00
804.48	5.0926E00
804.78	5.1511E00
805.09	5.2212E00
805.39	5.2204E00
805.70	5.2978E00
806.00	5.3586E00
806.30	5.3176E00
806.61	5.3522E00
806.91	5.3871E00
807.22	5.4074E00
807.52	5.4513E00
807.83	5.3888E00
808.13	5.5180E00
808.43	5.4321E00
808.74	5.4882E00
809.04	5.2207E00
809.35	5.1664E00
809.65	5.2543E00
809.95	5.0443E00
810.26	5.0045E00
810.56	4.9568E00
810.86	5.0405E00
811.17	4.9073E00
811.47	4.9451E00
811.77	4.8527E00
812.08	4.7622E00
812.38	4.7230E00
812.69	4.6324E00
812.99	4.5197E00
813.29	4.3143E00
813.59	4.1951E00
813.90	4.1364E00
814.20	4.0422E00
814.50	3.9489E00
814.81	3.8176E00
815.11	3.6974E00
815.41	3.5272E00
815.72	3.5262E00
816.02	3.5027E00
816.32	3.2928E00
816.62	3.2691E00
816.93	3.2721E00
817.23	3.2750E00
817.53	3.3545E00
817.84	3.3358E00
818.14	3.2939E00
818.44	3.2645E00
818.74	3.4804E00
819.04	3.3486E00
819.35	3.3835E00
819.65	3.4249E00
819.95	3.3684E00
820.25	3.5115E00
820.56	3.6628E00
820.86	3.8293E00
821.16	4.0010E00
821.46	3.9425E00
821.76	3.9323E00
822.07	4.0211E00
822.37	3.8459E00
822.67	3.7505E00
822.97	3.4686E00
823.27	3.1542E00
823.57	2.9910E00
823.88	3.0669E00
824.18	3.1887E00
824.48	3.2136E00
824.78	3.3283E00
825.08	3.5533E00
825.38	3.7010E00
825.69	3.5932E00
825.99	3.5345E00
826.29	3.6570E00
826.59	3.6614E00
826.89	3.6597E00
827.19	3.8544E00
827.49	3.5757E00
827.79	3.3956E00
828.09	3.2696E00
828.39	3.2082E00
828.70	3.1472E00
829.00	3.2282E00
829.30	3.1160E00
829.60	2.9677E00
829.90	3.1210E00
830.20	3.0168E00
830.50	2.9818E00
830.80	3.0865E00
831.10	2.9471E00
831.40	2.9598E00
831.70	2.9428E00
832.00	2.9301E00
832.30	2.8247E00
832.60	2.8288E00
832.90	2.7839E00
833.20	2.7679E00
833.50	2.7473E00
833.80	2.7461E00
834.10	2.7148E00
834.40	2.8798E00
834.70	2.8113E00
835.00	2.8319E00
835.30	2.8581E00
835.60	2.7673E00
835.90	2.8175E00
836.20	2.8766E00
836.50	2.7952E00
836.80	3.0074E00
837.10	3.4756E00
837.40	2.9512E00
837.70	2.9926E00
838.00	2.8854E00
838.30	2.9242E00
838.60	2.9978E00
838.90	2.9129E00
839.19	3.2709E00
839.49	2.9187E00
839.79	2.9510E00
840.09	2.8217E00
840.39	2.9959E00
840.69	2.9860E00
840.99	3.1498E00
841.29	3.1067E00
841.59	2.9281E00
841.88	2.9082E00
842.18	3.0466E00
842.48	2.9115E00
842.78	2.8488E00
843.08	2.9233E00
843.38	2.9509E00
843.68	3.1301E00
843.97	3.1578E00
844.27	2.9712E00
844.57	2.8446E00
844.87	2.9226E00
845.17	2.9174E00
845.47	2.9365E00
845.76	3.0164E00
846.06	3.0146E00
846.36	3.5761E00
846.66	2.9435E00
846.96	2.9790E00
847.25	2.9074E00
847.55	2.8564E00
847.85	2.9192E00
848.15	2.9306E00
848.44	2.9095E00
848.74	2.9320E00
849.04	2.8777E00
849.34	3.0183E00
849.63	2.8638E00
849.93	2.8270E00
850.23	2.7205E00
850.53	2.7993E00
850.82	2.7681E00
851.12	2.7905E00
851.42	2.8495E00
851.71	2.8751E00
852.01	2.7719E00
852.31	2.7975E00
852.61	2.7346E00
852.90	2.8222E00
853.20	2.9036E00
853.50	3.2724E00
853.79	2.9967E00
854.09	2.6997E00
854.39	2.7702E00
854.68	2.6551E00
854.98	2.5039E00
855.28	2.7342E00
855.57	2.8372E00
855.87	2.6827E00
856.17	2.7654E00
856.46	2.6320E00
856.76	2.5910E00
857.05	2.7796E00
857.35	2.6863E00
857.65	3.0563E00
857.94	2.9764E00
858.24	2.9951E00
858.53	2.7806E00
858.83	3.3624E00
859.13	2.7584E00
859.42	2.7872E00
859.72	3.0123E00
860.01	2.7532E00
860.31	2.8262E00
860.60	2.8815E00
860.90	2.9665E00
861.20	2.8260E00
861.49	2.9007E00
861.79	2.8660E00
862.08	4.1546E00
862.38	3.1667E00
862.67	2.7611E00
862.97	2.8197E00
863.26	2.8040E00
863.56	2.9484E00
863.85	3.3593E00
864.15	2.7751E00
864.44	2.8584E00
864.74	2.8571E00
865.03	3.1569E00
865.33	3.0206E00
865.62	2.8855E00
865.92	2.7619E00
866.21	2.8455E00
866.51	2.7166E00
866.80	3.0503E00
867.10	3.1938E00
867.39	2.8243E00
867.69	3.0300E00
867.98	2.5871E00
868.27	2.5816E00
868.57	2.7235E00
868.86	2.8775E00
869.16	2.6308E00
869.45	2.7408E00
869.75	2.7253E00
870.04	2.7617E00
870.33	2.9635E00
870.63	2.7458E00
870.92	2.7039E00
871.22	4.2290E00
871.51	2.8360E00
871.80	3.0002E00
872.10	3.0002E00
>>>>>End Processed Spectral Data<<<<<
