SpectraSuite Data File
++++++++++++++++++++++++++++++++++++
Date: Thu May 14 08:28:56 PDT 2015
User: schluterlab
Dark Spectrum Present: Yes
Reference Spectrum Present: No
Number of Sampled Component Spectra: 1
Spectrometers: USB2E3373
Integration Time (usec): 2300000 (USB2E3373)
Spectra Averaged: 3 (USB2E3373)
Boxcar Smoothing: 0 (USB2E3373)
Correct for Electrical Dark: No (USB2E3373)
Strobe/Lamp Enabled: No (USB2E3373)
Correct for Detector Non-linearity: No (USB2E3373)
Correct for Stray Light: No (USB2E3373)
Number of Pixels in Processed Spectrum: 2048
>>>>>Begin Processed Spectral Data<<<<<
178.53	0.0000E00
178.91	0.0000E00
179.29	0.0000E00
179.67	0.0000E00
180.04	0.0000E00
180.42	0.0000E00
180.80	0.0000E00
181.18	0.0000E00
181.56	0.0000E00
181.94	0.0000E00
182.31	0.0000E00
182.69	0.0000E00
183.07	0.0000E00
183.45	0.0000E00
183.83	0.0000E00
184.20	0.0000E00
184.58	0.0000E00
184.96	0.0000E00
185.34	0.0000E00
185.72	0.0000E00
186.09	0.0000E00
186.47	0.0000E00
186.85	0.0000E00
187.23	0.0000E00
187.61	0.0000E00
187.98	0.0000E00
188.36	0.0000E00
188.74	0.0000E00
189.12	0.0000E00
189.49	0.0000E00
189.87	0.0000E00
190.25	0.0000E00
190.63	0.0000E00
191.00	0.0000E00
191.38	0.0000E00
191.76	0.0000E00
192.14	0.0000E00
192.51	0.0000E00
192.89	0.0000E00
193.27	0.0000E00
193.65	0.0000E00
194.02	0.0000E00
194.40	0.0000E00
194.78	0.0000E00
195.15	0.0000E00
195.53	0.0000E00
195.91	0.0000E00
196.29	0.0000E00
196.66	0.0000E00
197.04	0.0000E00
197.42	0.0000E00
197.79	0.0000E00
198.17	0.0000E00
198.55	0.0000E00
198.92	0.0000E00
199.30	0.0000E00
199.68	0.0000E00
200.05	0.0000E00
200.43	0.0000E00
200.81	0.0000E00
201.18	0.0000E00
201.56	0.0000E00
201.94	0.0000E00
202.31	0.0000E00
202.69	0.0000E00
203.07	0.0000E00
203.44	0.0000E00
203.82	0.0000E00
204.19	0.0000E00
204.57	0.0000E00
204.95	0.0000E00
205.32	0.0000E00
205.70	0.0000E00
206.08	-0.0000E00
206.45	0.0000E00
206.83	0.0000E00
207.20	0.0000E00
207.58	0.0000E00
207.96	0.0000E00
208.33	0.0000E00
208.71	0.0000E00
209.08	0.0000E00
209.46	0.0000E00
209.84	-0.0000E00
210.21	0.0000E00
210.59	0.0000E00
210.96	0.0000E00
211.34	0.0000E00
211.71	0.0000E00
212.09	0.0000E00
212.46	0.0000E00
212.84	0.0000E00
213.22	0.0000E00
213.59	0.0000E00
213.97	0.0000E00
214.34	0.0000E00
214.72	0.0000E00
215.09	0.0000E00
215.47	0.0000E00
215.84	0.0000E00
216.22	0.0000E00
216.59	0.0000E00
216.97	0.0000E00
217.34	0.0000E00
217.72	0.0000E00
218.09	0.0000E00
218.47	0.0000E00
218.84	0.0000E00
219.22	0.0000E00
219.59	0.0000E00
219.97	0.0000E00
220.34	0.0000E00
220.72	0.0000E00
221.09	0.0000E00
221.47	0.0000E00
221.84	0.0000E00
222.22	0.0000E00
222.59	0.0000E00
222.97	0.0000E00
223.34	0.0000E00
223.72	0.0000E00
224.09	0.0000E00
224.46	0.0000E00
224.84	0.0000E00
225.21	0.0000E00
225.59	0.0000E00
225.96	0.0000E00
226.34	0.0000E00
226.71	0.0000E00
227.08	0.0000E00
227.46	0.0000E00
227.83	0.0000E00
228.21	0.0000E00
228.58	0.0000E00
228.95	0.0000E00
229.33	0.0000E00
229.70	0.0000E00
230.08	0.0000E00
230.45	0.0000E00
230.82	0.0000E00
231.20	0.0000E00
231.57	0.0000E00
231.95	0.0000E00
232.32	0.0000E00
232.69	0.0000E00
233.07	0.0000E00
233.44	0.0000E00
233.81	0.0000E00
234.19	0.0000E00
234.56	0.0000E00
234.93	0.0000E00
235.31	0.0000E00
235.68	0.0000E00
236.05	0.0000E00
236.43	0.0000E00
236.80	0.0000E00
237.17	0.0000E00
237.55	0.0000E00
237.92	0.0000E00
238.29	0.0000E00
238.67	0.0000E00
239.04	0.0000E00
239.41	0.0000E00
239.79	0.0000E00
240.16	0.0000E00
240.53	0.0000E00
240.91	0.0000E00
241.28	0.0000E00
241.65	0.0000E00
242.02	0.0000E00
242.40	0.0000E00
242.77	0.0000E00
243.14	0.0000E00
243.51	0.0000E00
243.89	0.0000E00
244.26	0.0000E00
244.63	0.0000E00
245.00	0.0000E00
245.38	0.0000E00
245.75	0.0000E00
246.12	0.0000E00
246.49	0.0000E00
246.87	0.0000E00
247.24	0.0000E00
247.61	0.0000E00
247.98	0.0000E00
248.36	0.0000E00
248.73	0.0000E00
249.10	0.0000E00
249.47	0.0000E00
249.84	0.0000E00
250.22	0.0000E00
250.59	0.0000E00
250.96	0.0000E00
251.33	0.0000E00
251.70	0.0000E00
252.08	0.0000E00
252.45	0.0000E00
252.82	0.0000E00
253.19	0.0000E00
253.56	0.0000E00
253.94	0.0000E00
254.31	0.0000E00
254.68	0.0000E00
255.05	0.0000E00
255.42	0.0000E00
255.79	0.0000E00
256.16	0.0000E00
256.54	0.0000E00
256.91	0.0000E00
257.28	0.0000E00
257.65	0.0000E00
258.02	0.0000E00
258.39	0.0000E00
258.76	0.0000E00
259.14	0.0000E00
259.51	0.0000E00
259.88	0.0000E00
260.25	0.0000E00
260.62	0.0000E00
260.99	0.0000E00
261.36	0.0000E00
261.73	0.0000E00
262.10	0.0000E00
262.47	0.0000E00
262.85	0.0000E00
263.22	0.0000E00
263.59	0.0000E00
263.96	0.0000E00
264.33	0.0000E00
264.70	0.0000E00
265.07	0.0000E00
265.44	0.0000E00
265.81	0.0000E00
266.18	0.0000E00
266.55	0.0000E00
266.92	0.0000E00
267.29	0.0000E00
267.66	-0.0000E00
268.03	0.0000E00
268.40	0.0000E00
268.77	0.0000E00
269.14	0.0000E00
269.51	0.0000E00
269.88	0.0000E00
270.25	0.0000E00
270.62	0.0000E00
270.99	0.0000E00
271.36	0.0000E00
271.73	0.0000E00
272.10	0.0000E00
272.47	0.0000E00
272.84	0.0000E00
273.21	0.0000E00
273.58	0.0000E00
273.95	0.0000E00
274.32	0.0000E00
274.69	0.0000E00
275.06	0.0000E00
275.43	0.0000E00
275.80	0.0000E00
276.17	0.0000E00
276.54	0.0000E00
276.91	0.0000E00
277.28	0.0000E00
277.65	0.0000E00
278.02	0.0000E00
278.39	0.0000E00
278.76	0.0000E00
279.13	0.0000E00
279.50	0.0000E00
279.87	0.0000E00
280.23	0.0000E00
280.60	0.0000E00
280.97	0.0000E00
281.34	0.0000E00
281.71	0.0000E00
282.08	0.0000E00
282.45	0.0000E00
282.82	0.0000E00
283.19	0.0000E00
283.56	0.0000E00
283.92	0.0000E00
284.29	0.0000E00
284.66	0.0000E00
285.03	0.0000E00
285.40	0.0000E00
285.77	0.0000E00
286.14	0.0000E00
286.51	0.0000E00
286.87	0.0000E00
287.24	0.0000E00
287.61	0.0000E00
287.98	0.0000E00
288.35	0.0000E00
288.72	0.0000E00
289.08	0.0000E00
289.45	0.0000E00
289.82	0.0000E00
290.19	0.0000E00
290.56	0.0000E00
290.93	0.0000E00
291.29	0.0000E00
291.66	0.0000E00
292.03	0.0000E00
292.40	0.0000E00
292.77	0.0000E00
293.13	0.0000E00
293.50	0.0000E00
293.87	0.0000E00
294.24	0.0000E00
294.60	0.0000E00
294.97	0.0000E00
295.34	0.0000E00
295.71	0.0000E00
296.08	0.0000E00
296.44	0.0000E00
296.81	0.0000E00
297.18	0.0000E00
297.55	0.0000E00
297.91	0.0000E00
298.28	0.0000E00
298.65	0.0000E00
299.02	0.0000E00
299.38	0.0000E00
299.75	0.0000E00
300.12	1.9052E-01
300.48	2.4376E-01
300.85	1.8861E-01
301.22	3.6334E-01
301.59	2.1128E-01
301.95	2.2677E-01
302.32	1.8218E-01
302.69	2.1398E-01
303.05	2.0094E-01
303.42	3.1911E-01
303.79	3.0726E-01
304.15	2.0166E-01
304.52	2.5270E-01
304.89	2.8473E-01
305.25	1.6478E-01
305.62	2.1198E-01
305.99	2.5212E-01
306.35	2.0399E-01
306.72	2.5062E-01
307.09	3.2691E-01
307.45	3.0360E-01
307.82	3.3108E-01
308.19	1.1838E00
308.55	2.9168E-01
308.92	2.5190E-01
309.29	2.3567E-01
309.65	2.9461E-01
310.02	3.6846E-01
310.38	2.8584E-01
310.75	2.3502E-01
311.12	3.5873E-01
311.48	2.9587E-01
311.85	4.2231E-01
312.22	3.0153E-01
312.58	5.4168E-01
312.95	2.4352E-01
313.31	2.9512E-01
313.68	4.0604E-01
314.05	3.6423E-01
314.41	4.2699E-01
314.78	3.6292E-01
315.14	1.1474E00
315.51	4.0744E-01
315.87	2.9507E-01
316.24	7.1583E-01
316.61	4.4340E-01
316.97	4.4875E-01
317.34	4.8688E-01
317.70	3.7010E-01
318.07	4.3863E-01
318.43	4.4251E-01
318.80	7.0310E-01
319.16	4.7523E-01
319.53	1.2611E01
319.89	6.8153E-01
320.26	5.4336E-01
320.62	7.3124E-01
320.99	5.2174E-01
321.35	5.7924E-01
321.72	7.8643E-01
322.08	5.2777E-01
322.45	1.0643E00
322.81	7.0976E-01
323.18	4.4249E-01
323.54	4.5172E-01
323.91	1.0047E00
324.27	7.2045E-01
324.64	2.3453E00
325.00	5.6763E-01
325.37	2.2488E00
325.73	6.4017E-01
326.10	2.5962E00
326.46	7.2287E-01
326.83	7.2169E-01
327.19	7.8395E-01
327.56	7.7931E-01
327.92	1.1459E00
328.29	1.4562E00
328.65	1.2748E00
329.01	1.8075E00
329.38	8.0015E-01
329.74	8.7251E-01
330.11	1.1381E00
330.47	1.3379E00
330.84	9.8672E-01
331.20	9.5607E-01
331.56	1.1273E00
331.93	9.3979E-01
332.29	1.1516E00
332.66	1.1827E00
333.02	7.3548E-01
333.38	8.7467E-01
333.75	9.0635E-01
334.11	1.0448E00
334.48	1.3875E00
334.84	1.1766E00
335.20	9.8021E-01
335.57	1.1198E00
335.93	1.5616E00
336.29	1.2687E00
336.66	1.1002E00
337.02	1.1841E00
337.38	1.0450E00
337.75	8.8841E-01
338.11	7.0513E-01
338.47	1.2739E00
338.84	1.7010E00
339.20	3.1709E00
339.56	1.2264E00
339.93	1.3449E00
340.29	1.0430E00
340.65	1.2205E00
341.02	1.2840E00
341.38	1.1939E00
341.74	1.0855E00
342.11	1.1274E00
342.47	1.5844E00
342.83	1.8083E00
343.20	1.1063E00
343.56	1.8783E00
343.92	1.3880E00
344.28	1.3898E00
344.65	1.3339E00
345.01	1.4337E00
345.37	1.2685E00
345.73	1.3485E00
346.10	1.7941E00
346.46	1.4869E00
346.82	1.1353E00
347.19	2.5946E00
347.55	1.3697E00
347.91	2.6865E00
348.27	1.7043E00
348.63	1.4166E00
349.00	1.4623E00
349.36	1.3349E00
349.72	1.5790E00
350.08	2.0665E00
350.45	2.1824E00
350.81	2.1498E00
351.17	1.5118E00
351.53	2.1173E00
351.89	1.9509E00
352.26	1.7618E00
352.62	1.9123E00
352.98	1.2909E00
353.34	2.2242E00
353.70	1.6979E00
354.07	1.2974E00
354.43	1.5506E00
354.79	1.3480E00
355.15	1.3796E00
355.51	1.6001E00
355.87	1.0483E00
356.24	1.5793E00
356.60	1.6956E00
356.96	1.4951E00
357.32	1.7972E00
357.68	1.2564E00
358.04	1.4906E00
358.40	1.5302E00
358.77	1.2797E00
359.13	1.6877E00
359.49	1.6624E00
359.85	1.5406E00
360.21	1.4378E00
360.57	1.3272E00
360.93	1.2550E00
361.29	1.5046E00
361.66	2.3030E00
362.02	1.4547E00
362.38	1.9617E00
362.74	1.3008E00
363.10	1.5292E00
363.46	1.3306E00
363.82	1.3890E00
364.18	1.5270E00
364.54	1.4213E00
364.90	1.1152E00
365.26	1.5032E00
365.62	1.3838E00
365.98	1.9257E00
366.35	1.7007E00
366.71	1.4343E00
367.07	1.4508E00
367.43	1.4252E00
367.79	1.3627E00
368.15	1.1406E00
368.51	1.4130E00
368.87	1.2360E00
369.23	1.3490E00
369.59	1.5719E00
369.95	1.5635E00
370.31	1.2177E00
370.67	1.3221E00
371.03	1.5227E00
371.39	1.4181E00
371.75	1.2255E00
372.11	1.4663E00
372.47	1.2097E00
372.83	1.4728E00
373.19	1.3170E00
373.55	1.4643E00
373.91	1.4597E00
374.27	1.6143E00
374.63	1.3676E00
374.99	1.3481E00
375.35	1.4242E00
375.71	1.2459E00
376.07	1.3847E00
376.42	1.2686E00
376.78	1.3941E00
377.14	1.2911E00
377.50	1.1608E00
377.86	1.3562E00
378.22	1.2039E00
378.58	1.3126E00
378.94	1.0589E00
379.30	1.1334E00
379.66	1.2610E00
380.02	1.1640E00
380.38	1.1838E00
380.74	1.3087E00
381.09	1.0931E00
381.45	1.1577E00
381.81	9.9727E-01
382.17	1.3096E00
382.53	1.1623E00
382.89	1.1298E00
383.25	1.1964E00
383.61	1.1427E00
383.97	1.1450E00
384.32	1.0905E00
384.68	1.2727E00
385.04	1.0789E00
385.40	1.0760E00
385.76	1.2188E00
386.12	1.0671E00
386.48	1.1296E00
386.83	1.2078E00
387.19	1.0625E00
387.55	1.1307E00
387.91	1.0290E00
388.27	1.1228E00
388.62	1.2126E00
388.98	1.0210E00
389.34	1.2017E00
389.70	1.0276E00
390.06	9.9554E-01
390.42	1.2088E00
390.77	1.0871E00
391.13	1.0530E00
391.49	1.1781E00
391.85	1.2708E00
392.20	1.2145E00
392.56	1.1441E00
392.92	1.0819E00
393.28	1.0728E00
393.64	1.0818E00
393.99	1.1284E00
394.35	1.0831E00
394.71	1.0922E00
395.07	1.0075E00
395.42	1.1051E00
395.78	1.1518E00
396.14	1.0939E00
396.50	1.0529E00
396.85	1.1691E00
397.21	1.0194E00
397.57	1.1149E00
397.92	1.0903E00
398.28	1.0612E00
398.64	1.1201E00
399.00	1.0202E00
399.35	9.9162E-01
399.71	1.0235E00
400.07	1.0760E00
400.42	1.0170E00
400.78	1.0319E00
401.14	9.6639E-01
401.49	1.0267E00
401.85	9.6002E-01
402.21	1.0399E00
402.57	1.0402E00
402.92	1.0084E00
403.28	9.7794E-01
403.63	9.7420E-01
403.99	9.6725E-01
404.35	9.7646E-01
404.70	1.0246E00
405.06	9.2753E-01
405.42	1.0303E00
405.77	9.5155E-01
406.13	9.3931E-01
406.49	8.9318E-01
406.84	9.6585E-01
407.20	9.2391E-01
407.55	1.0129E00
407.91	1.0097E00
408.27	9.2017E-01
408.62	9.0400E-01
408.98	9.1171E-01
409.34	9.0254E-01
409.69	9.5655E-01
410.05	9.2370E-01
410.40	9.1421E-01
410.76	8.7526E-01
411.11	8.3388E-01
411.47	9.1496E-01
411.83	8.4979E-01
412.18	8.5507E-01
412.54	9.1689E-01
412.89	9.1717E-01
413.25	8.4891E-01
413.60	8.7779E-01
413.96	9.4062E-01
414.31	9.0294E-01
414.67	9.5666E-01
415.03	9.5877E-01
415.38	9.1801E-01
415.74	9.5063E-01
416.09	8.7719E-01
416.45	9.4216E-01
416.80	8.8092E-01
417.16	9.4953E-01
417.51	8.8794E-01
417.87	8.7569E-01
418.22	8.5717E-01
418.58	9.2307E-01
418.93	8.2902E-01
419.29	9.0311E-01
419.64	8.7157E-01
420.00	8.3413E-01
420.35	8.0760E-01
420.71	8.5742E-01
421.06	8.4671E-01
421.42	8.5580E-01
421.77	8.5889E-01
422.12	8.5822E-01
422.48	8.3113E-01
422.83	8.7856E-01
423.19	8.4204E-01
423.54	8.4243E-01
423.90	8.4238E-01
424.25	8.0394E-01
424.61	8.4708E-01
424.96	8.3079E-01
425.31	8.0015E-01
425.67	8.0085E-01
426.02	8.1347E-01
426.38	8.0729E-01
426.73	7.9077E-01
427.09	8.0993E-01
427.44	7.4766E-01
427.79	8.0264E-01
428.15	7.8555E-01
428.50	8.0040E-01
428.85	8.2504E-01
429.21	7.6442E-01
429.56	7.3853E-01
429.92	7.5921E-01
430.27	7.4833E-01
430.62	7.8338E-01
430.98	8.0101E-01
431.33	7.6861E-01
431.68	7.6818E-01
432.04	7.3743E-01
432.39	7.5485E-01
432.74	8.0371E-01
433.10	7.2809E-01
433.45	7.6962E-01
433.80	7.7378E-01
434.16	7.7660E-01
434.51	7.4477E-01
434.86	7.8059E-01
435.22	7.3652E-01
435.57	8.1090E-01
435.92	7.5654E-01
436.28	7.8328E-01
436.63	7.3088E-01
436.98	7.3796E-01
437.34	7.5621E-01
437.69	7.2909E-01
438.04	7.0655E-01
438.39	7.6136E-01
438.75	7.3233E-01
439.10	7.0277E-01
439.45	7.4456E-01
439.81	7.2138E-01
440.16	7.0404E-01
440.51	7.2360E-01
440.86	7.2184E-01
441.22	7.1532E-01
441.57	7.2940E-01
441.92	7.0823E-01
442.27	7.4405E-01
442.63	7.1475E-01
442.98	7.5992E-01
443.33	7.4140E-01
443.68	7.1558E-01
444.03	6.6617E-01
444.39	6.6691E-01
444.74	7.1939E-01
445.09	7.3192E-01
445.44	7.2343E-01
445.79	6.5571E-01
446.15	7.2079E-01
446.50	7.0569E-01
446.85	6.7300E-01
447.20	6.6363E-01
447.55	6.8288E-01
447.91	6.9465E-01
448.26	6.9091E-01
448.61	7.0451E-01
448.96	6.8277E-01
449.31	6.7956E-01
449.66	7.1535E-01
450.02	6.7564E-01
450.37	7.0677E-01
450.72	6.7520E-01
451.07	7.1373E-01
451.42	7.1501E-01
451.77	6.9179E-01
452.12	6.9050E-01
452.47	7.2998E-01
452.83	6.4854E-01
453.18	6.9707E-01
453.53	6.8106E-01
453.88	6.4322E-01
454.23	6.5037E-01
454.58	6.4664E-01
454.93	6.7850E-01
455.28	6.7104E-01
455.63	6.6814E-01
455.98	6.5315E-01
456.34	6.8154E-01
456.69	6.7212E-01
457.04	6.5541E-01
457.39	6.2988E-01
457.74	6.1985E-01
458.09	6.4472E-01
458.44	6.2571E-01
458.79	5.9909E-01
459.14	6.2623E-01
459.49	6.4352E-01
459.84	6.2006E-01
460.19	6.5535E-01
460.54	6.4586E-01
460.89	5.9764E-01
461.24	6.5771E-01
461.59	6.3072E-01
461.94	6.4983E-01
462.29	5.9769E-01
462.64	6.4598E-01
462.99	6.5306E-01
463.34	6.5765E-01
463.69	6.2468E-01
464.04	5.8808E-01
464.39	5.9821E-01
464.74	6.1523E-01
465.09	6.3617E-01
465.44	5.9878E-01
465.79	6.2360E-01
466.14	6.2601E-01
466.49	6.0525E-01
466.84	6.1246E-01
467.19	6.1681E-01
467.54	6.3775E-01
467.89	6.0073E-01
468.24	5.7488E-01
468.59	5.8216E-01
468.94	5.7485E-01
469.29	5.7828E-01
469.64	5.8960E-01
469.99	5.7781E-01
470.34	5.5420E-01
470.68	5.9325E-01
471.03	5.7370E-01
471.38	5.5759E-01
471.73	5.5855E-01
472.08	5.3750E-01
472.43	5.2148E-01
472.78	5.4163E-01
473.13	5.4410E-01
473.48	5.4251E-01
473.83	5.2184E-01
474.17	5.3084E-01
474.52	5.2788E-01
474.87	5.0391E-01
475.22	5.1255E-01
475.57	4.8695E-01
475.92	4.6989E-01
476.27	5.0484E-01
476.61	4.7871E-01
476.96	4.6897E-01
477.31	4.5141E-01
477.66	4.5884E-01
478.01	4.5471E-01
478.36	4.5556E-01
478.70	4.4049E-01
479.05	4.5090E-01
479.40	4.2848E-01
479.75	4.3170E-01
480.10	4.3215E-01
480.45	4.1768E-01
480.79	4.2312E-01
481.14	4.3139E-01
481.49	4.1435E-01
481.84	4.0471E-01
482.19	4.0191E-01
482.53	4.0541E-01
482.88	3.9847E-01
483.23	3.9069E-01
483.58	3.9004E-01
483.92	3.9770E-01
484.27	3.8072E-01
484.62	3.8233E-01
484.97	3.7176E-01
485.31	3.7182E-01
485.66	3.7713E-01
486.01	3.7954E-01
486.36	3.6316E-01
486.70	3.6638E-01
487.05	3.6557E-01
487.40	3.6347E-01
487.75	3.5457E-01
488.09	3.5844E-01
488.44	3.6088E-01
488.79	3.6104E-01
489.13	3.5512E-01
489.48	3.5761E-01
489.83	3.5635E-01
490.17	3.4571E-01
490.52	3.4621E-01
490.87	3.4709E-01
491.22	3.4772E-01
491.56	3.4805E-01
491.91	3.5298E-01
492.26	3.4723E-01
492.60	3.4766E-01
492.95	3.5028E-01
493.30	3.4925E-01
493.64	3.4373E-01
493.99	3.4687E-01
494.34	3.4706E-01
494.68	3.4012E-01
495.03	3.5103E-01
495.37	3.4370E-01
495.72	3.5180E-01
496.07	3.4311E-01
496.41	3.4250E-01
496.76	3.4192E-01
497.11	3.4682E-01
497.45	3.4460E-01
497.80	3.4580E-01
498.14	3.4323E-01
498.49	3.4244E-01
498.84	3.4447E-01
499.18	3.3900E-01
499.53	3.4217E-01
499.87	3.4356E-01
500.22	3.4611E-01
500.56	3.4538E-01
500.91	3.4349E-01
501.26	3.4400E-01
501.60	3.4125E-01
501.95	3.4209E-01
502.29	3.4191E-01
502.64	3.3874E-01
502.98	3.4437E-01
503.33	3.3812E-01
503.67	3.4130E-01
504.02	3.4038E-01
504.36	3.3745E-01
504.71	3.4333E-01
505.06	3.4183E-01
505.40	3.3744E-01
505.75	3.3807E-01
506.09	3.4013E-01
506.44	3.3733E-01
506.78	3.3674E-01
507.13	3.3769E-01
507.47	3.3525E-01
507.82	3.3407E-01
508.16	3.3611E-01
508.51	3.3358E-01
508.85	3.3072E-01
509.19	3.3053E-01
509.54	3.3464E-01
509.88	3.3691E-01
510.23	3.3135E-01
510.57	3.3188E-01
510.92	3.3196E-01
511.26	3.2913E-01
511.61	3.3044E-01
511.95	3.2907E-01
512.30	3.2717E-01
512.64	3.2785E-01
512.98	3.2725E-01
513.33	3.2648E-01
513.67	3.3053E-01
514.02	3.2824E-01
514.36	3.2504E-01
514.70	3.2849E-01
515.05	3.2214E-01
515.39	3.2502E-01
515.74	3.2299E-01
516.08	3.2544E-01
516.42	3.2154E-01
516.77	3.2273E-01
517.11	3.2258E-01
517.46	3.2200E-01
517.80	3.2282E-01
518.14	3.2248E-01
518.49	3.1955E-01
518.83	3.2340E-01
519.17	3.2597E-01
519.52	3.2115E-01
519.86	3.2017E-01
520.20	3.1875E-01
520.55	3.1822E-01
520.89	3.1826E-01
521.23	3.1916E-01
521.58	3.2200E-01
521.92	3.2120E-01
522.26	3.2475E-01
522.61	3.1788E-01
522.95	3.2101E-01
523.29	3.1848E-01
523.64	3.2107E-01
523.98	3.2114E-01
524.32	3.2066E-01
524.66	3.1986E-01
525.01	3.2116E-01
525.35	3.2178E-01
525.69	3.2445E-01
526.04	3.2493E-01
526.38	3.2014E-01
526.72	3.2623E-01
527.06	3.2469E-01
527.41	3.2695E-01
527.75	3.2668E-01
528.09	3.2432E-01
528.43	3.2796E-01
528.78	3.2634E-01
529.12	3.3119E-01
529.46	3.3066E-01
529.80	3.3224E-01
530.15	3.3233E-01
530.49	3.3475E-01
530.83	3.3405E-01
531.17	3.3428E-01
531.51	3.3689E-01
531.86	3.3625E-01
532.20	3.4175E-01
532.54	3.3730E-01
532.88	3.4080E-01
533.22	3.4346E-01
533.57	3.4513E-01
533.91	3.4295E-01
534.25	3.4505E-01
534.59	3.4564E-01
534.93	3.4229E-01
535.27	3.4629E-01
535.62	3.5049E-01
535.96	3.5047E-01
536.30	3.4906E-01
536.64	3.5366E-01
536.98	3.5541E-01
537.32	3.5327E-01
537.66	3.5273E-01
538.01	3.6029E-01
538.35	3.5960E-01
538.69	3.5577E-01
539.03	3.6252E-01
539.37	3.5824E-01
539.71	3.6347E-01
540.05	3.5962E-01
540.39	3.6346E-01
540.73	3.6559E-01
541.07	3.6477E-01
541.42	3.6577E-01
541.76	3.6649E-01
542.10	3.6737E-01
542.44	3.7011E-01
542.78	3.7032E-01
543.12	3.6695E-01
543.46	3.7519E-01
543.80	3.7037E-01
544.14	3.6928E-01
544.48	3.6831E-01
544.82	3.7296E-01
545.16	3.7106E-01
545.50	3.7284E-01
545.84	3.7868E-01
546.18	3.7207E-01
546.52	3.7744E-01
546.86	3.7673E-01
547.20	3.7792E-01
547.54	3.8397E-01
547.88	3.7807E-01
548.22	3.7743E-01
548.56	3.8088E-01
548.90	3.7771E-01
549.24	3.7988E-01
549.58	3.8312E-01
549.92	3.8065E-01
550.26	3.8522E-01
550.60	3.8325E-01
550.94	3.7790E-01
551.28	3.8573E-01
551.62	3.8089E-01
551.96	3.8518E-01
552.30	3.8890E-01
552.64	3.8769E-01
552.98	3.8516E-01
553.32	3.8451E-01
553.66	3.8417E-01
554.00	3.8348E-01
554.34	3.8665E-01
554.68	3.8852E-01
555.02	3.8591E-01
555.36	3.8999E-01
555.69	3.8906E-01
556.03	3.8685E-01
556.37	3.8723E-01
556.71	3.8644E-01
557.05	3.8699E-01
557.39	3.8820E-01
557.73	3.8882E-01
558.07	3.8877E-01
558.41	3.8526E-01
558.75	3.8960E-01
559.08	3.8756E-01
559.42	3.8280E-01
559.76	3.9045E-01
560.10	3.8997E-01
560.44	3.9128E-01
560.78	3.8672E-01
561.12	3.8661E-01
561.45	3.8831E-01
561.79	3.9027E-01
562.13	3.9019E-01
562.47	3.9008E-01
562.81	3.9210E-01
563.15	3.9227E-01
563.48	3.9007E-01
563.82	3.8394E-01
564.16	3.9143E-01
564.50	3.8921E-01
564.84	3.9235E-01
565.17	3.9080E-01
565.51	3.8702E-01
565.85	3.9143E-01
566.19	3.8861E-01
566.52	3.9354E-01
566.86	3.8852E-01
567.20	3.9161E-01
567.54	3.9418E-01
567.88	3.9221E-01
568.21	3.9584E-01
568.55	3.9326E-01
568.89	3.9167E-01
569.23	3.9233E-01
569.56	3.9226E-01
569.90	3.9486E-01
570.24	3.9732E-01
570.57	3.9780E-01
570.91	3.9603E-01
571.25	3.9528E-01
571.59	3.9447E-01
571.92	3.9535E-01
572.26	3.9723E-01
572.60	3.9886E-01
572.93	3.9998E-01
573.27	4.0154E-01
573.61	4.0326E-01
573.95	3.9757E-01
574.28	4.0341E-01
574.62	4.0250E-01
574.96	4.0860E-01
575.29	4.0622E-01
575.63	4.1105E-01
575.97	4.0834E-01
576.30	4.1517E-01
576.64	4.1058E-01
576.98	4.1412E-01
577.31	4.1244E-01
577.65	4.1648E-01
577.98	4.1542E-01
578.32	4.2006E-01
578.66	4.2212E-01
578.99	4.1947E-01
579.33	4.2568E-01
579.67	4.2277E-01
580.00	4.2725E-01
580.34	4.2314E-01
580.67	4.2838E-01
581.01	4.2937E-01
581.35	4.3057E-01
581.68	4.3314E-01
582.02	4.3408E-01
582.35	4.3553E-01
582.69	4.3311E-01
583.02	4.4166E-01
583.36	4.4023E-01
583.70	4.3772E-01
584.03	4.4202E-01
584.37	4.3967E-01
584.70	4.4849E-01
585.04	4.4571E-01
585.37	4.4350E-01
585.71	4.5175E-01
586.04	4.4747E-01
586.38	4.5095E-01
586.72	4.5514E-01
587.05	4.5365E-01
587.39	4.5800E-01
587.72	4.5342E-01
588.06	4.6089E-01
588.39	4.5746E-01
588.73	4.6076E-01
589.06	4.6088E-01
589.40	4.6551E-01
589.73	4.6635E-01
590.07	4.6968E-01
590.40	4.6991E-01
590.73	4.7601E-01
591.07	4.6877E-01
591.40	4.7667E-01
591.74	4.7415E-01
592.07	4.7895E-01
592.41	4.7827E-01
592.74	4.7920E-01
593.08	4.7488E-01
593.41	4.7742E-01
593.75	4.8020E-01
594.08	4.8104E-01
594.41	4.8182E-01
594.75	4.8525E-01
595.08	4.8303E-01
595.42	4.7897E-01
595.75	4.8210E-01
596.09	4.8617E-01
596.42	4.8548E-01
596.75	4.8711E-01
597.09	4.9185E-01
597.42	4.8540E-01
597.75	4.9054E-01
598.09	4.8975E-01
598.42	4.9384E-01
598.76	4.9397E-01
599.09	4.9422E-01
599.42	4.9936E-01
599.76	4.9571E-01
600.09	4.9792E-01
600.42	4.9879E-01
600.76	4.8945E-01
601.09	4.9571E-01
601.42	5.0434E-01
601.76	4.9646E-01
602.09	4.9788E-01
602.42	5.0034E-01
602.76	5.0039E-01
603.09	4.9969E-01
603.42	5.0098E-01
603.76	4.9697E-01
604.09	4.9898E-01
604.42	5.0229E-01
604.76	4.9864E-01
605.09	5.0568E-01
605.42	5.0267E-01
605.75	5.0449E-01
606.09	5.0682E-01
606.42	5.0351E-01
606.75	5.0534E-01
607.09	5.0906E-01
607.42	5.0363E-01
607.75	5.0857E-01
608.08	5.1087E-01
608.42	5.1001E-01
608.75	5.0752E-01
609.08	5.1185E-01
609.41	5.1264E-01
609.75	5.1327E-01
610.08	5.0748E-01
610.41	5.1200E-01
610.74	5.1338E-01
611.07	5.1522E-01
611.41	5.0792E-01
611.74	5.1390E-01
612.07	5.1230E-01
612.40	5.1020E-01
612.73	5.1166E-01
613.07	5.1704E-01
613.40	5.1223E-01
613.73	5.0974E-01
614.06	5.1424E-01
614.39	5.1506E-01
614.72	5.1765E-01
615.06	5.1640E-01
615.39	5.2464E-01
615.72	5.1590E-01
616.05	5.2644E-01
616.38	5.2286E-01
616.71	5.2538E-01
617.05	5.1595E-01
617.38	5.2086E-01
617.71	5.1708E-01
618.04	5.2578E-01
618.37	5.1591E-01
618.70	5.2008E-01
619.03	5.2166E-01
619.36	5.1485E-01
619.69	5.2182E-01
620.03	5.1793E-01
620.36	5.1785E-01
620.69	5.1793E-01
621.02	5.2227E-01
621.35	5.1600E-01
621.68	5.1033E-01
622.01	5.1580E-01
622.34	5.1736E-01
622.67	5.1631E-01
623.00	5.2067E-01
623.33	5.1689E-01
623.66	5.1848E-01
623.99	5.2217E-01
624.32	5.1506E-01
624.65	5.1697E-01
624.99	5.1727E-01
625.32	5.1995E-01
625.65	5.1907E-01
625.98	5.1063E-01
626.31	5.1724E-01
626.64	5.1939E-01
626.97	5.1510E-01
627.30	5.1406E-01
627.63	5.1771E-01
627.96	5.1387E-01
628.29	5.1055E-01
628.62	5.1752E-01
628.95	5.1903E-01
629.28	5.1054E-01
629.61	5.2246E-01
629.94	5.1877E-01
630.26	5.2158E-01
630.59	5.2175E-01
630.92	5.1679E-01
631.25	5.1835E-01
631.58	5.2435E-01
631.91	5.2464E-01
632.24	5.2775E-01
632.57	5.2597E-01
632.90	5.2411E-01
633.23	5.2511E-01
633.56	5.2894E-01
633.89	5.2891E-01
634.22	5.3008E-01
634.55	5.3243E-01
634.88	5.3739E-01
635.20	5.3749E-01
635.53	5.4081E-01
635.86	5.4101E-01
636.19	5.4673E-01
636.52	5.4664E-01
636.85	5.4697E-01
637.18	5.5326E-01
637.51	5.5050E-01
637.83	5.5776E-01
638.16	5.5347E-01
638.49	5.6284E-01
638.82	5.6194E-01
639.15	5.6343E-01
639.48	5.6605E-01
639.81	5.7372E-01
640.13	5.6861E-01
640.46	5.7457E-01
640.79	5.7349E-01
641.12	5.8293E-01
641.45	5.7945E-01
641.77	5.8130E-01
642.10	5.9034E-01
642.43	5.8981E-01
642.76	5.9490E-01
643.09	5.8943E-01
643.41	5.9621E-01
643.74	5.9829E-01
644.07	5.9472E-01
644.40	6.0095E-01
644.73	6.0888E-01
645.05	6.0958E-01
645.38	6.1188E-01
645.71	6.1472E-01
646.04	6.1690E-01
646.36	6.1327E-01
646.69	6.2687E-01
647.02	6.1827E-01
647.35	6.2317E-01
647.67	6.3137E-01
648.00	6.2694E-01
648.33	6.3761E-01
648.66	6.2977E-01
648.98	6.4024E-01
649.31	6.3452E-01
649.64	6.3731E-01
649.96	6.4643E-01
650.29	6.4918E-01
650.62	6.4991E-01
650.94	6.5348E-01
651.27	6.5119E-01
651.60	6.5284E-01
651.92	6.6287E-01
652.25	6.6134E-01
652.58	6.6219E-01
652.90	6.6763E-01
653.23	6.6504E-01
653.56	6.6747E-01
653.88	6.7366E-01
654.21	6.7246E-01
654.54	6.7696E-01
654.86	6.8505E-01
655.19	6.7733E-01
655.52	6.8864E-01
655.84	6.8166E-01
656.17	6.8548E-01
656.49	6.9462E-01
656.82	6.8153E-01
657.15	6.9544E-01
657.47	6.9485E-01
657.80	6.9707E-01
658.13	6.9730E-01
658.45	7.0075E-01
658.78	7.0603E-01
659.10	7.0784E-01
659.43	7.0960E-01
659.75	7.0662E-01
660.08	7.0255E-01
660.41	7.1336E-01
660.73	7.1637E-01
661.06	7.1933E-01
661.38	7.1783E-01
661.71	7.1797E-01
662.03	7.1211E-01
662.36	7.2553E-01
662.68	7.2645E-01
663.01	7.1739E-01
663.33	7.2947E-01
663.66	7.2934E-01
663.98	7.3507E-01
664.31	7.2779E-01
664.63	7.4349E-01
664.96	7.3257E-01
665.28	7.4090E-01
665.61	7.3844E-01
665.93	7.3868E-01
666.26	7.4313E-01
666.58	7.4636E-01
666.91	7.4119E-01
667.23	7.4918E-01
667.56	7.4615E-01
667.88	7.4801E-01
668.21	7.5695E-01
668.53	7.4955E-01
668.86	7.5541E-01
669.18	7.5422E-01
669.50	7.6594E-01
669.83	7.6372E-01
670.15	7.6421E-01
670.48	7.6782E-01
670.80	7.6371E-01
671.13	7.6140E-01
671.45	7.6948E-01
671.77	7.7261E-01
672.10	7.6688E-01
672.42	7.8135E-01
672.75	7.7436E-01
673.07	7.8363E-01
673.39	7.7841E-01
673.72	7.8302E-01
674.04	7.8952E-01
674.37	7.8412E-01
674.69	7.8001E-01
675.01	7.9671E-01
675.34	7.9317E-01
675.66	7.9577E-01
675.98	7.8439E-01
676.31	7.9905E-01
676.63	7.9595E-01
676.95	7.9539E-01
677.28	8.0293E-01
677.60	8.0377E-01
677.92	8.0952E-01
678.25	8.1139E-01
678.57	8.1225E-01
678.89	8.0721E-01
679.22	8.1924E-01
679.54	8.1202E-01
679.86	8.2468E-01
680.18	8.1483E-01
680.51	8.1583E-01
680.83	8.3537E-01
681.15	8.2271E-01
681.48	8.3251E-01
681.80	8.2569E-01
682.12	8.2757E-01
682.44	8.3677E-01
682.77	8.4159E-01
683.09	8.4655E-01
683.41	8.4474E-01
683.73	8.5269E-01
684.06	8.4793E-01
684.38	8.4850E-01
684.70	8.5469E-01
685.02	8.6013E-01
685.34	8.6246E-01
685.67	8.5816E-01
685.99	8.7364E-01
686.31	8.6436E-01
686.63	8.7980E-01
686.96	8.8075E-01
687.28	8.8606E-01
687.60	8.7306E-01
687.92	8.8284E-01
688.24	8.8927E-01
688.56	8.9864E-01
688.89	8.8969E-01
689.21	9.0148E-01
689.53	8.9970E-01
689.85	9.0939E-01
690.17	9.0216E-01
690.49	9.2278E-01
690.82	9.1323E-01
691.14	9.1625E-01
691.46	9.1544E-01
691.78	9.2688E-01
692.10	9.2086E-01
692.42	9.3135E-01
692.74	9.3251E-01
693.06	9.3849E-01
693.39	9.5005E-01
693.71	9.6296E-01
694.03	9.5938E-01
694.35	9.5741E-01
694.67	9.5962E-01
694.99	9.7457E-01
695.31	9.7281E-01
695.63	9.7732E-01
695.95	9.7849E-01
696.27	9.8101E-01
696.59	9.8368E-01
696.91	9.9337E-01
697.23	9.9527E-01
697.56	1.0006E00
697.88	9.9828E-01
698.20	1.0073E00
698.52	1.0106E00
698.84	1.0246E00
699.16	1.0314E00
699.48	1.0194E00
699.80	1.0431E00
700.12	1.0342E00
700.44	1.0385E00
700.76	1.0462E00
701.08	1.0614E00
701.40	1.0603E00
701.72	1.0623E00
702.04	1.0712E00
702.36	1.0691E00
702.68	1.0798E00
703.00	1.0907E00
703.32	1.0862E00
703.64	1.1018E00
703.96	1.0977E00
704.28	1.1070E00
704.60	1.1135E00
704.91	1.1203E00
705.23	1.1214E00
705.55	1.1331E00
705.87	1.1343E00
706.19	1.1339E00
706.51	1.1456E00
706.83	1.1406E00
707.15	1.1700E00
707.47	1.1593E00
707.79	1.1753E00
708.11	1.1692E00
708.43	1.1783E00
708.74	1.1779E00
709.06	1.1901E00
709.38	1.2023E00
709.70	1.1985E00
710.02	1.2060E00
710.34	1.2008E00
710.66	1.2272E00
710.98	1.2235E00
711.29	1.2292E00
711.61	1.2469E00
711.93	1.2586E00
712.25	1.2456E00
712.57	1.2639E00
712.89	1.2695E00
713.20	1.2632E00
713.52	1.2817E00
713.84	1.2854E00
714.16	1.2770E00
714.48	1.2900E00
714.80	1.3097E00
715.11	1.3050E00
715.43	1.3219E00
715.75	1.3265E00
716.07	1.3299E00
716.39	1.3182E00
716.70	1.3314E00
717.02	1.3265E00
717.34	1.3557E00
717.66	1.3588E00
717.97	1.3726E00
718.29	1.3789E00
718.61	1.3848E00
718.93	1.4015E00
719.24	1.3967E00
719.56	1.4221E00
719.88	1.4211E00
720.20	1.4435E00
720.51	1.4586E00
720.83	1.4374E00
721.15	1.4695E00
721.46	1.4696E00
721.78	1.4799E00
722.10	1.5065E00
722.42	1.4975E00
722.73	1.5195E00
723.05	1.5086E00
723.37	1.5258E00
723.68	1.5451E00
724.00	1.5333E00
724.32	1.5564E00
724.63	1.5471E00
724.95	1.5613E00
725.27	1.5735E00
725.58	1.5725E00
725.90	1.5646E00
726.22	1.5898E00
726.53	1.5737E00
726.85	1.5962E00
727.16	1.6012E00
727.48	1.6143E00
727.80	1.6098E00
728.11	1.6104E00
728.43	1.6190E00
728.74	1.6213E00
729.06	1.6443E00
729.38	1.6436E00
729.69	1.6334E00
730.01	1.6509E00
730.32	1.6522E00
730.64	1.6495E00
730.96	1.6573E00
731.27	1.6871E00
731.59	1.6610E00
731.90	1.6835E00
732.22	1.6835E00
732.53	1.6859E00
732.85	1.7053E00
733.16	1.7116E00
733.48	1.7160E00
733.80	1.6904E00
734.11	1.7265E00
734.43	1.7200E00
734.74	1.7232E00
735.06	1.7565E00
735.37	1.7352E00
735.69	1.7582E00
736.00	1.7652E00
736.32	1.7692E00
736.63	1.7748E00
736.95	1.7785E00
737.26	1.7940E00
737.58	1.7839E00
737.89	1.8051E00
738.21	1.8077E00
738.52	1.8054E00
738.83	1.8245E00
739.15	1.8130E00
739.46	1.8328E00
739.78	1.8447E00
740.09	1.8457E00
740.41	1.8459E00
740.72	1.8443E00
741.04	1.8468E00
741.35	1.8469E00
741.66	1.8366E00
741.98	1.8629E00
742.29	1.8574E00
742.61	1.8665E00
742.92	1.8594E00
743.23	1.8694E00
743.55	1.8906E00
743.86	1.8849E00
744.18	1.8687E00
744.49	1.8817E00
744.80	1.8768E00
745.12	1.8784E00
745.43	1.8794E00
745.74	1.8707E00
746.06	1.8807E00
746.37	1.8636E00
746.68	1.8708E00
747.00	1.8775E00
747.31	1.8876E00
747.62	1.8605E00
747.94	1.8906E00
748.25	1.8817E00
748.56	1.8758E00
748.88	1.8753E00
749.19	1.8861E00
749.50	1.8843E00
749.82	1.8758E00
750.13	1.8825E00
750.44	1.8792E00
750.75	1.8626E00
751.07	1.8805E00
751.38	1.8876E00
751.69	1.8840E00
752.01	1.8841E00
752.32	1.8939E00
752.63	1.8753E00
752.94	1.8894E00
753.26	1.9126E00
753.57	1.8934E00
753.88	1.9211E00
754.19	1.9084E00
754.51	1.9060E00
754.82	1.9061E00
755.13	1.9391E00
755.44	1.9230E00
755.75	1.9208E00
756.07	1.9281E00
756.38	1.9477E00
756.69	1.9418E00
757.00	1.9490E00
757.31	1.9757E00
757.63	1.9968E00
757.94	1.9928E00
758.25	1.9915E00
758.56	1.9689E00
758.87	2.0042E00
759.18	2.0260E00
759.50	2.0225E00
759.81	2.0416E00
760.12	2.0360E00
760.43	2.0608E00
760.74	2.0914E00
761.05	1.5936E00
761.36	1.4267E00
761.67	1.7545E00
761.99	1.9847E00
762.30	2.0925E00
762.61	2.0846E00
762.92	1.9794E00
763.23	1.9528E00
763.54	1.9596E00
763.85	2.0209E00
764.16	2.0760E00
764.47	2.2275E00
764.78	2.2601E00
765.10	2.2772E00
765.41	2.2854E00
765.72	2.2784E00
766.03	2.3255E00
766.34	2.3287E00
766.65	2.3440E00
766.96	2.3729E00
767.27	2.3834E00
767.58	2.3618E00
767.89	2.4006E00
768.20	2.4362E00
768.51	2.4511E00
768.82	2.4552E00
769.13	2.4756E00
769.44	2.5297E00
769.75	2.5269E00
770.06	2.5623E00
770.37	2.5271E00
770.68	2.5817E00
770.99	2.5990E00
771.30	2.6393E00
771.61	2.6802E00
771.92	2.6518E00
772.23	2.6760E00
772.54	2.7148E00
772.85	2.7192E00
773.16	2.7807E00
773.47	2.8066E00
773.78	2.7825E00
774.09	2.8589E00
774.39	2.8538E00
774.70	2.8840E00
775.01	2.9054E00
775.32	2.9059E00
775.63	2.9522E00
775.94	2.9879E00
776.25	2.9952E00
776.56	3.0344E00
776.87	3.1036E00
777.18	3.0856E00
777.48	3.1049E00
777.79	3.1449E00
778.10	3.1659E00
778.41	3.1923E00
778.72	3.2265E00
779.03	3.2319E00
779.34	3.3158E00
779.65	3.2941E00
779.95	3.3333E00
780.26	3.3725E00
780.57	3.3991E00
780.88	3.3858E00
781.19	3.4584E00
781.50	3.4646E00
781.80	3.4899E00
782.11	3.5306E00
782.42	3.6086E00
782.73	3.5282E00
783.04	3.5800E00
783.34	3.6664E00
783.65	3.6967E00
783.96	3.7218E00
784.27	3.7134E00
784.57	3.7245E00
784.88	3.8227E00
785.19	3.8304E00
785.50	3.8306E00
785.81	3.8705E00
786.11	3.8491E00
786.42	3.9921E00
786.73	3.9953E00
787.04	3.9651E00
787.34	4.0284E00
787.65	4.0168E00
787.96	4.1214E00
788.26	4.1602E00
788.57	4.2042E00
788.88	4.1240E00
789.19	4.2978E00
789.49	4.2941E00
789.80	4.3230E00
790.11	4.3655E00
790.41	4.3536E00
790.72	4.4796E00
791.03	4.4677E00
791.33	4.5126E00
791.64	4.5303E00
791.95	4.5886E00
792.25	4.6861E00
792.56	4.7211E00
792.87	4.6633E00
793.17	4.6215E00
793.48	4.5449E00
793.79	4.5590E00
794.09	4.6801E00
794.40	4.5670E00
794.70	4.5833E00
795.01	4.6778E00
795.32	4.5783E00
795.62	4.5870E00
795.93	4.3947E00
796.23	4.3853E00
796.54	4.3275E00
796.85	4.3352E00
797.15	4.4494E00
797.46	4.4699E00
797.76	4.5007E00
798.07	4.5566E00
798.37	4.6279E00
798.68	4.5707E00
798.99	4.6082E00
799.29	4.6096E00
799.60	4.5796E00
799.90	4.5198E00
800.21	4.5392E00
800.51	4.5200E00
800.82	4.5833E00
801.12	4.5754E00
801.43	4.4960E00
801.73	4.4834E00
802.04	4.4983E00
802.34	4.5117E00
802.65	4.5386E00
802.95	4.4738E00
803.26	4.5733E00
803.56	4.5215E00
803.87	4.5393E00
804.17	4.5314E00
804.48	4.5116E00
804.78	4.5669E00
805.09	4.5907E00
805.39	4.6599E00
805.70	4.7444E00
806.00	4.7474E00
806.30	4.7452E00
806.61	4.7451E00
806.91	4.7677E00
807.22	4.8145E00
807.52	4.7944E00
807.83	4.7405E00
808.13	4.8593E00
808.43	4.7657E00
808.74	4.8937E00
809.04	4.7071E00
809.35	4.6553E00
809.65	4.7431E00
809.95	4.5556E00
810.26	4.5333E00
810.56	4.4976E00
810.86	4.5697E00
811.17	4.4934E00
811.47	4.5119E00
811.77	4.3970E00
812.08	4.3381E00
812.38	4.2840E00
812.69	4.2033E00
812.99	4.1681E00
813.29	3.9148E00
813.59	3.8487E00
813.90	3.8333E00
814.20	3.7772E00
814.50	3.6799E00
814.81	3.5969E00
815.11	3.4733E00
815.41	3.3705E00
815.72	3.3649E00
816.02	3.3384E00
816.32	3.1617E00
816.62	3.1276E00
816.93	3.1671E00
817.23	3.1884E00
817.53	3.2327E00
817.84	3.2544E00
818.14	3.2113E00
818.44	3.2102E00
818.74	3.4256E00
819.04	3.3200E00
819.35	3.3647E00
819.65	3.3414E00
819.95	3.3433E00
820.25	3.4883E00
820.56	3.6635E00
820.86	3.7549E00
821.16	3.9098E00
821.46	3.8274E00
821.76	3.8470E00
822.07	3.9558E00
822.37	3.7747E00
822.67	3.7384E00
822.97	3.4769E00
823.27	3.2132E00
823.57	3.1276E00
823.88	3.2356E00
824.18	3.2962E00
824.48	3.3573E00
824.78	3.4775E00
825.08	3.6664E00
825.38	3.8015E00
825.69	3.7294E00
825.99	3.6663E00
826.29	3.8141E00
826.59	3.8582E00
826.89	3.8600E00
827.19	4.0330E00
827.49	3.7995E00
827.79	3.6138E00
828.09	3.5614E00
828.39	3.6003E00
828.70	3.4975E00
829.00	3.6262E00
829.30	3.4869E00
829.60	3.3836E00
829.90	3.5313E00
830.20	3.4522E00
830.50	3.4738E00
830.80	3.6192E00
831.10	3.4995E00
831.40	3.5265E00
831.70	3.4956E00
832.00	3.5313E00
832.30	3.4584E00
832.60	3.4604E00
832.90	3.4092E00
833.20	3.3836E00
833.50	3.3916E00
833.80	3.4428E00
834.10	3.3899E00
834.40	3.6244E00
834.70	3.5795E00
835.00	3.5767E00
835.30	3.5975E00
835.60	3.5698E00
835.90	3.6116E00
836.20	3.6594E00
836.50	3.6134E00
836.80	3.8102E00
837.10	4.3550E00
837.40	3.8060E00
837.70	3.8797E00
838.00	3.7370E00
838.30	3.8009E00
838.60	3.8884E00
838.90	3.8248E00
839.19	4.1242E00
839.49	3.8665E00
839.79	3.8285E00
840.09	3.7642E00
840.39	3.9824E00
840.69	3.9227E00
840.99	4.1364E00
841.29	4.0880E00
841.59	3.8871E00
841.88	3.8632E00
842.18	4.1123E00
842.48	3.9426E00
842.78	3.9196E00
843.08	3.9820E00
843.38	4.0696E00
843.68	4.1888E00
843.97	4.2294E00
844.27	4.0467E00
844.57	3.8678E00
844.87	4.0408E00
845.17	3.9684E00
845.47	4.0567E00
845.76	4.1675E00
846.06	4.2194E00
846.36	4.7377E00
846.66	4.0974E00
846.96	4.1486E00
847.25	4.0925E00
847.55	4.0876E00
847.85	4.1033E00
848.15	4.0767E00
848.44	4.1265E00
848.74	4.1918E00
849.04	4.1152E00
849.34	4.3447E00
849.63	4.1231E00
849.93	4.0505E00
850.23	3.9908E00
850.53	4.1382E00
850.82	4.0984E00
851.12	4.0647E00
851.42	4.1578E00
851.71	4.1748E00
852.01	4.1083E00
852.31	4.1627E00
852.61	4.1344E00
852.90	4.1153E00
853.20	4.3430E00
853.50	4.6717E00
853.79	4.2812E00
854.09	4.0916E00
854.39	4.1467E00
854.68	4.0395E00
854.98	3.8821E00
855.28	4.0827E00
855.57	4.2688E00
855.87	4.1803E00
856.17	4.2712E00
856.46	4.1238E00
856.76	4.0860E00
857.05	4.2229E00
857.35	4.2083E00
857.65	4.5984E00
857.94	4.5616E00
858.24	4.5548E00
858.53	4.3395E00
858.83	4.8893E00
859.13	4.3789E00
859.42	4.3700E00
859.72	4.5767E00
860.01	4.3095E00
860.31	4.3856E00
860.60	4.4945E00
860.90	4.5773E00
861.20	4.4364E00
861.49	4.5531E00
861.79	4.5969E00
862.08	5.9790E00
862.38	4.9565E00
862.67	4.5774E00
862.97	4.5618E00
863.26	4.4856E00
863.56	4.7851E00
863.85	5.2595E00
864.15	4.6072E00
864.44	4.6762E00
864.74	4.7318E00
865.03	4.9959E00
865.33	4.9198E00
865.62	4.7453E00
865.92	4.6325E00
866.21	4.6570E00
866.51	4.5628E00
866.80	4.9733E00
867.10	5.1644E00
867.39	4.7280E00
867.69	4.8564E00
867.98	4.4747E00
868.27	4.4987E00
868.57	4.5763E00
868.86	4.6993E00
869.16	4.5515E00
869.45	4.7069E00
869.75	4.6507E00
870.04	4.8031E00
870.33	4.8778E00
870.63	4.6889E00
870.92	4.6952E00
871.22	6.2524E00
871.51	5.0135E00
871.80	4.9699E00
872.10	4.9699E00
>>>>>End Processed Spectral Data<<<<<
