SpectraSuite Data File
++++++++++++++++++++++++++++++++++++
Date: Sat May 16 09:22:12 PDT 2015
User: schluterlab
Dark Spectrum Present: Yes
Reference Spectrum Present: No
Number of Sampled Component Spectra: 1
Spectrometers: USB2E3373
Integration Time (usec): 2300000 (USB2E3373)
Spectra Averaged: 3 (USB2E3373)
Boxcar Smoothing: 0 (USB2E3373)
Correct for Electrical Dark: No (USB2E3373)
Strobe/Lamp Enabled: No (USB2E3373)
Correct for Detector Non-linearity: No (USB2E3373)
Correct for Stray Light: No (USB2E3373)
Number of Pixels in Processed Spectrum: 2048
>>>>>Begin Processed Spectral Data<<<<<
178.53	0.0000E00
178.91	0.0000E00
179.29	0.0000E00
179.67	0.0000E00
180.04	0.0000E00
180.42	0.0000E00
180.80	0.0000E00
181.18	0.0000E00
181.56	0.0000E00
181.94	0.0000E00
182.31	0.0000E00
182.69	0.0000E00
183.07	0.0000E00
183.45	0.0000E00
183.83	0.0000E00
184.20	0.0000E00
184.58	0.0000E00
184.96	0.0000E00
185.34	0.0000E00
185.72	0.0000E00
186.09	0.0000E00
186.47	0.0000E00
186.85	0.0000E00
187.23	0.0000E00
187.61	0.0000E00
187.98	0.0000E00
188.36	0.0000E00
188.74	0.0000E00
189.12	0.0000E00
189.49	0.0000E00
189.87	0.0000E00
190.25	0.0000E00
190.63	0.0000E00
191.00	0.0000E00
191.38	0.0000E00
191.76	0.0000E00
192.14	0.0000E00
192.51	0.0000E00
192.89	0.0000E00
193.27	0.0000E00
193.65	0.0000E00
194.02	0.0000E00
194.40	0.0000E00
194.78	0.0000E00
195.15	0.0000E00
195.53	0.0000E00
195.91	0.0000E00
196.29	0.0000E00
196.66	0.0000E00
197.04	0.0000E00
197.42	0.0000E00
197.79	0.0000E00
198.17	0.0000E00
198.55	0.0000E00
198.92	0.0000E00
199.30	0.0000E00
199.68	0.0000E00
200.05	0.0000E00
200.43	0.0000E00
200.81	0.0000E00
201.18	0.0000E00
201.56	0.0000E00
201.94	0.0000E00
202.31	0.0000E00
202.69	0.0000E00
203.07	0.0000E00
203.44	0.0000E00
203.82	0.0000E00
204.19	0.0000E00
204.57	0.0000E00
204.95	0.0000E00
205.32	0.0000E00
205.70	0.0000E00
206.08	0.0000E00
206.45	0.0000E00
206.83	0.0000E00
207.20	0.0000E00
207.58	0.0000E00
207.96	0.0000E00
208.33	0.0000E00
208.71	0.0000E00
209.08	0.0000E00
209.46	0.0000E00
209.84	0.0000E00
210.21	0.0000E00
210.59	0.0000E00
210.96	0.0000E00
211.34	0.0000E00
211.71	0.0000E00
212.09	0.0000E00
212.46	0.0000E00
212.84	0.0000E00
213.22	-0.0000E00
213.59	0.0000E00
213.97	0.0000E00
214.34	0.0000E00
214.72	0.0000E00
215.09	0.0000E00
215.47	0.0000E00
215.84	0.0000E00
216.22	0.0000E00
216.59	0.0000E00
216.97	0.0000E00
217.34	0.0000E00
217.72	0.0000E00
218.09	0.0000E00
218.47	0.0000E00
218.84	-0.0000E00
219.22	0.0000E00
219.59	0.0000E00
219.97	0.0000E00
220.34	0.0000E00
220.72	0.0000E00
221.09	0.0000E00
221.47	0.0000E00
221.84	0.0000E00
222.22	0.0000E00
222.59	0.0000E00
222.97	0.0000E00
223.34	0.0000E00
223.72	0.0000E00
224.09	0.0000E00
224.46	0.0000E00
224.84	0.0000E00
225.21	0.0000E00
225.59	0.0000E00
225.96	0.0000E00
226.34	0.0000E00
226.71	0.0000E00
227.08	0.0000E00
227.46	0.0000E00
227.83	0.0000E00
228.21	0.0000E00
228.58	0.0000E00
228.95	0.0000E00
229.33	0.0000E00
229.70	0.0000E00
230.08	0.0000E00
230.45	0.0000E00
230.82	0.0000E00
231.20	0.0000E00
231.57	0.0000E00
231.95	0.0000E00
232.32	0.0000E00
232.69	0.0000E00
233.07	0.0000E00
233.44	0.0000E00
233.81	0.0000E00
234.19	0.0000E00
234.56	0.0000E00
234.93	0.0000E00
235.31	0.0000E00
235.68	0.0000E00
236.05	0.0000E00
236.43	0.0000E00
236.80	0.0000E00
237.17	0.0000E00
237.55	0.0000E00
237.92	0.0000E00
238.29	0.0000E00
238.67	0.0000E00
239.04	0.0000E00
239.41	0.0000E00
239.79	0.0000E00
240.16	0.0000E00
240.53	0.0000E00
240.91	0.0000E00
241.28	0.0000E00
241.65	0.0000E00
242.02	0.0000E00
242.40	0.0000E00
242.77	0.0000E00
243.14	0.0000E00
243.51	0.0000E00
243.89	0.0000E00
244.26	0.0000E00
244.63	0.0000E00
245.00	0.0000E00
245.38	0.0000E00
245.75	0.0000E00
246.12	0.0000E00
246.49	0.0000E00
246.87	0.0000E00
247.24	0.0000E00
247.61	0.0000E00
247.98	0.0000E00
248.36	0.0000E00
248.73	0.0000E00
249.10	0.0000E00
249.47	0.0000E00
249.84	0.0000E00
250.22	0.0000E00
250.59	0.0000E00
250.96	0.0000E00
251.33	0.0000E00
251.70	0.0000E00
252.08	0.0000E00
252.45	0.0000E00
252.82	0.0000E00
253.19	0.0000E00
253.56	0.0000E00
253.94	0.0000E00
254.31	0.0000E00
254.68	0.0000E00
255.05	0.0000E00
255.42	0.0000E00
255.79	0.0000E00
256.16	0.0000E00
256.54	0.0000E00
256.91	0.0000E00
257.28	0.0000E00
257.65	0.0000E00
258.02	0.0000E00
258.39	0.0000E00
258.76	0.0000E00
259.14	0.0000E00
259.51	0.0000E00
259.88	0.0000E00
260.25	0.0000E00
260.62	0.0000E00
260.99	0.0000E00
261.36	0.0000E00
261.73	0.0000E00
262.10	0.0000E00
262.47	0.0000E00
262.85	0.0000E00
263.22	0.0000E00
263.59	0.0000E00
263.96	0.0000E00
264.33	0.0000E00
264.70	0.0000E00
265.07	0.0000E00
265.44	0.0000E00
265.81	0.0000E00
266.18	0.0000E00
266.55	0.0000E00
266.92	0.0000E00
267.29	0.0000E00
267.66	0.0000E00
268.03	0.0000E00
268.40	0.0000E00
268.77	0.0000E00
269.14	0.0000E00
269.51	0.0000E00
269.88	0.0000E00
270.25	0.0000E00
270.62	0.0000E00
270.99	0.0000E00
271.36	0.0000E00
271.73	0.0000E00
272.10	0.0000E00
272.47	0.0000E00
272.84	0.0000E00
273.21	0.0000E00
273.58	0.0000E00
273.95	0.0000E00
274.32	0.0000E00
274.69	0.0000E00
275.06	0.0000E00
275.43	0.0000E00
275.80	0.0000E00
276.17	0.0000E00
276.54	0.0000E00
276.91	0.0000E00
277.28	0.0000E00
277.65	0.0000E00
278.02	0.0000E00
278.39	0.0000E00
278.76	0.0000E00
279.13	0.0000E00
279.50	0.0000E00
279.87	0.0000E00
280.23	0.0000E00
280.60	0.0000E00
280.97	0.0000E00
281.34	0.0000E00
281.71	0.0000E00
282.08	0.0000E00
282.45	0.0000E00
282.82	0.0000E00
283.19	0.0000E00
283.56	0.0000E00
283.92	0.0000E00
284.29	0.0000E00
284.66	0.0000E00
285.03	0.0000E00
285.40	0.0000E00
285.77	0.0000E00
286.14	0.0000E00
286.51	0.0000E00
286.87	0.0000E00
287.24	0.0000E00
287.61	0.0000E00
287.98	0.0000E00
288.35	0.0000E00
288.72	0.0000E00
289.08	0.0000E00
289.45	0.0000E00
289.82	0.0000E00
290.19	0.0000E00
290.56	0.0000E00
290.93	0.0000E00
291.29	0.0000E00
291.66	0.0000E00
292.03	0.0000E00
292.40	0.0000E00
292.77	0.0000E00
293.13	0.0000E00
293.50	0.0000E00
293.87	0.0000E00
294.24	0.0000E00
294.60	0.0000E00
294.97	0.0000E00
295.34	0.0000E00
295.71	0.0000E00
296.08	0.0000E00
296.44	0.0000E00
296.81	0.0000E00
297.18	0.0000E00
297.55	0.0000E00
297.91	0.0000E00
298.28	0.0000E00
298.65	0.0000E00
299.02	0.0000E00
299.38	0.0000E00
299.75	0.0000E00
300.12	3.1513E00
300.48	6.2449E-01
300.85	1.0035E00
301.22	9.2765E-01
301.59	9.5714E-01
301.95	1.3613E00
302.32	1.7042E00
302.69	5.8013E-01
303.05	6.0045E-01
303.42	1.0695E00
303.79	8.9702E-01
304.15	1.7047E00
304.52	1.5030E00
304.89	1.6556E00
305.25	1.0692E00
305.62	1.0936E00
305.99	3.8748E00
306.35	1.1485E00
306.72	1.5740E00
307.09	1.3305E00
307.45	1.1981E00
307.82	1.3954E00
308.19	1.3121E00
308.55	1.5066E00
308.92	3.0170E00
309.29	2.0693E00
309.65	1.2215E00
310.02	1.2635E00
310.38	9.0966E-01
310.75	2.7287E00
311.12	8.8731E-01
311.48	1.6466E00
311.85	1.2705E00
312.22	7.5304E-01
312.58	9.5046E-01
312.95	1.4531E00
313.31	1.4616E00
313.68	1.1247E00
314.05	1.4167E00
314.41	2.0110E00
314.78	9.5492E-01
315.14	1.1543E00
315.51	2.3240E00
315.87	1.1714E00
316.24	1.1801E00
316.61	2.0976E00
316.97	1.7983E00
317.34	1.3434E00
317.70	2.4396E00
318.07	1.8408E00
318.43	1.4301E00
318.80	2.2063E00
319.16	1.8919E00
319.53	2.5453E00
319.89	1.4250E00
320.26	1.2130E00
320.62	2.7950E00
320.99	1.0390E00
321.35	1.6598E00
321.72	1.3374E00
322.08	1.5560E00
322.45	1.0741E00
322.81	2.9374E00
323.18	1.8036E00
323.54	1.2653E00
323.91	1.3146E00
324.27	1.0094E00
324.64	1.9392E00
325.00	1.6523E00
325.37	1.0545E00
325.73	1.6728E00
326.10	1.5071E00
326.46	1.3733E00
326.83	3.1518E00
327.19	2.3364E00
327.56	1.4357E00
327.92	1.9458E00
328.29	1.9498E00
328.65	1.4998E00
329.01	1.5017E00
329.38	1.6732E00
329.74	1.6753E00
330.11	1.1310E00
330.47	1.7414E00
330.84	2.2646E00
331.20	2.6637E00
331.56	1.9665E00
331.93	1.8043E00
332.29	2.5069E00
332.66	9.9972E-01
333.02	2.1368E00
333.38	1.2800E00
333.75	1.3979E00
334.11	1.7171E00
334.48	1.3900E00
334.84	1.5328E00
335.20	1.5279E00
335.57	1.6376E00
335.93	4.0107E00
336.29	3.3909E00
336.66	1.4673E00
337.02	2.7481E00
337.38	1.1266E00
337.75	1.3328E00
338.11	1.5697E00
338.47	1.1579E00
338.84	1.2973E00
339.20	1.3012E00
339.56	1.4314E00
339.93	1.3492E00
340.29	1.7201E00
340.65	1.1530E00
341.02	2.1553E00
341.38	1.6259E00
341.74	2.2928E00
342.11	1.5927E00
342.47	1.2942E00
342.83	1.7404E00
343.20	1.2471E00
343.56	1.1383E00
343.92	1.6092E00
344.28	1.4329E00
344.65	1.9682E00
345.01	1.2419E00
345.37	2.0917E00
345.73	1.3703E00
346.10	1.1116E00
346.46	1.3577E00
346.82	1.5797E00
347.19	1.6434E00
347.55	1.3957E00
347.91	1.4080E00
348.27	1.5406E00
348.63	1.7538E00
349.00	1.1416E00
349.36	1.0821E00
349.72	1.2078E00
350.08	1.8651E00
350.45	1.4806E00
350.81	1.5294E00
351.17	1.0726E00
351.53	1.3933E00
351.89	1.5092E00
352.26	1.2520E00
352.62	1.4106E00
352.98	1.1614E00
353.34	1.0226E00
353.70	1.3000E00
354.07	1.0873E00
354.43	1.0908E00
354.79	1.2075E00
355.15	9.2706E-01
355.51	1.3852E00
355.87	1.3007E00
356.24	9.6867E-01
356.60	1.3699E00
356.96	1.1882E00
357.32	1.2177E00
357.68	1.1545E00
358.04	1.1612E00
358.40	1.0669E00
358.77	1.2463E00
359.13	1.1623E00
359.49	1.4686E00
359.85	1.3835E00
360.21	1.0351E00
360.57	1.0109E00
360.93	1.1080E00
361.29	1.0817E00
361.66	1.2346E00
362.02	9.8989E-01
362.38	1.1158E00
362.74	1.0585E00
363.10	1.1781E00
363.46	1.2126E00
363.82	1.2706E00
364.18	1.1071E00
364.54	1.1559E00
364.90	9.3348E-01
365.26	9.8151E-01
365.62	1.0929E00
365.98	1.0316E00
366.35	1.0303E00
366.71	8.3207E-01
367.07	1.3886E00
367.43	1.2131E00
367.79	1.0518E00
368.15	1.0244E00
368.51	1.1513E00
368.87	1.0622E00
369.23	1.2465E00
369.59	9.8656E-01
369.95	1.3963E00
370.31	1.1083E00
370.67	1.1630E00
371.03	1.0038E00
371.39	9.8168E-01
371.75	1.2483E00
372.11	1.1086E00
372.47	9.6754E-01
372.83	1.1172E00
373.19	1.1684E00
373.55	1.0507E00
373.91	1.1621E00
374.27	8.9238E-01
374.63	1.0237E00
374.99	9.6185E-01
375.35	1.0638E00
375.71	1.0406E00
376.07	9.6949E-01
376.42	1.0700E00
376.78	9.8705E-01
377.14	9.3439E-01
377.50	1.0552E00
377.86	9.8695E-01
378.22	1.1554E00
378.58	9.2657E-01
378.94	1.0217E00
379.30	8.3622E-01
379.66	9.3621E-01
380.02	1.0218E00
380.38	8.7281E-01
380.74	9.6238E-01
381.09	9.6331E-01
381.45	8.9089E-01
381.81	9.0010E-01
382.17	8.8761E-01
382.53	8.4018E-01
382.89	7.9770E-01
383.25	9.2815E-01
383.61	9.2249E-01
383.97	9.7531E-01
384.32	9.8371E-01
384.68	9.2180E-01
385.04	9.0432E-01
385.40	9.2015E-01
385.76	7.3570E-01
386.12	9.1212E-01
386.48	8.1474E-01
386.83	8.9802E-01
387.19	8.7177E-01
387.55	9.4752E-01
387.91	9.1789E-01
388.27	8.3283E-01
388.62	8.3512E-01
388.98	8.5408E-01
389.34	8.8212E-01
389.70	8.6440E-01
390.06	8.5661E-01
390.42	8.4040E-01
390.77	8.1859E-01
391.13	8.7454E-01
391.49	8.4775E-01
391.85	9.2353E-01
392.20	8.4402E-01
392.56	8.7581E-01
392.92	8.3619E-01
393.28	8.3540E-01
393.64	8.5981E-01
393.99	8.8232E-01
394.35	8.1360E-01
394.71	9.2284E-01
395.07	8.5785E-01
395.42	8.2282E-01
395.78	8.1329E-01
396.14	8.2048E-01
396.50	7.6848E-01
396.85	8.9054E-01
397.21	9.2338E-01
397.57	8.3332E-01
397.92	8.5259E-01
398.28	7.6429E-01
398.64	8.1231E-01
399.00	7.7687E-01
399.35	7.6723E-01
399.71	8.1497E-01
400.07	8.0854E-01
400.42	8.1195E-01
400.78	7.8170E-01
401.14	7.7599E-01
401.49	7.8266E-01
401.85	7.8237E-01
402.21	7.1028E-01
402.57	7.4278E-01
402.92	8.0049E-01
403.28	7.9734E-01
403.63	7.8238E-01
403.99	8.0856E-01
404.35	7.4744E-01
404.70	7.5339E-01
405.06	7.4234E-01
405.42	7.9609E-01
405.77	7.2740E-01
406.13	7.0720E-01
406.49	6.7793E-01
406.84	6.9869E-01
407.20	7.4454E-01
407.55	7.6741E-01
407.91	7.7656E-01
408.27	7.0736E-01
408.62	6.9240E-01
408.98	7.2217E-01
409.34	7.0908E-01
409.69	7.4699E-01
410.05	6.9812E-01
410.40	7.0374E-01
410.76	6.7779E-01
411.11	7.0415E-01
411.47	7.2100E-01
411.83	6.8621E-01
412.18	6.8444E-01
412.54	6.8156E-01
412.89	6.9811E-01
413.25	6.5062E-01
413.60	6.7179E-01
413.96	7.1530E-01
414.31	6.7423E-01
414.67	7.0318E-01
415.03	7.1123E-01
415.38	7.4137E-01
415.74	7.0979E-01
416.09	7.0174E-01
416.45	7.2638E-01
416.80	6.9786E-01
417.16	6.9708E-01
417.51	6.8877E-01
417.87	7.0919E-01
418.22	6.6415E-01
418.58	6.8547E-01
418.93	6.4221E-01
419.29	6.7902E-01
419.64	6.4720E-01
420.00	6.6687E-01
420.35	6.5896E-01
420.71	6.3472E-01
421.06	6.5966E-01
421.42	6.9272E-01
421.77	6.5179E-01
422.12	6.6556E-01
422.48	6.4144E-01
422.83	6.7089E-01
423.19	6.3501E-01
423.54	6.5845E-01
423.90	6.4141E-01
424.25	6.3028E-01
424.61	6.5981E-01
424.96	6.3003E-01
425.31	6.1106E-01
425.67	6.0532E-01
426.02	6.1758E-01
426.38	6.1795E-01
426.73	6.0937E-01
427.09	6.1905E-01
427.44	5.8844E-01
427.79	6.0379E-01
428.15	6.0680E-01
428.50	6.1478E-01
428.85	6.3255E-01
429.21	5.7198E-01
429.56	5.8144E-01
429.92	5.7461E-01
430.27	5.9078E-01
430.62	6.0885E-01
430.98	6.1557E-01
431.33	5.9768E-01
431.68	5.8472E-01
432.04	5.7757E-01
432.39	5.7722E-01
432.74	6.0128E-01
433.10	5.5596E-01
433.45	5.9545E-01
433.80	5.8379E-01
434.16	5.7761E-01
434.51	5.7111E-01
434.86	5.8975E-01
435.22	5.6225E-01
435.57	6.1357E-01
435.92	5.8918E-01
436.28	5.5489E-01
436.63	5.6021E-01
436.98	5.6343E-01
437.34	5.8581E-01
437.69	5.6331E-01
438.04	5.4379E-01
438.39	5.8396E-01
438.75	5.6822E-01
439.10	5.5277E-01
439.45	5.7943E-01
439.81	5.8138E-01
440.16	5.4755E-01
440.51	5.5980E-01
440.86	5.8757E-01
441.22	5.6317E-01
441.57	5.4253E-01
441.92	5.4188E-01
442.27	5.5859E-01
442.63	5.5027E-01
442.98	5.8027E-01
443.33	5.6984E-01
443.68	5.3513E-01
444.03	5.2715E-01
444.39	5.2063E-01
444.74	5.6544E-01
445.09	5.6899E-01
445.44	5.5980E-01
445.79	5.1106E-01
446.15	5.4542E-01
446.50	5.5055E-01
446.85	5.1902E-01
447.20	5.1672E-01
447.55	5.4335E-01
447.91	5.3920E-01
448.26	5.4923E-01
448.61	5.3645E-01
448.96	5.1882E-01
449.31	5.2947E-01
449.66	5.3705E-01
450.02	5.3336E-01
450.37	5.3540E-01
450.72	5.2265E-01
451.07	5.6488E-01
451.42	5.6832E-01
451.77	5.3744E-01
452.12	5.2874E-01
452.47	5.6287E-01
452.83	5.2236E-01
453.18	5.3754E-01
453.53	5.3276E-01
453.88	4.9630E-01
454.23	5.0658E-01
454.58	5.0155E-01
454.93	5.1429E-01
455.28	5.1430E-01
455.63	5.0464E-01
455.98	4.9798E-01
456.34	5.2418E-01
456.69	5.1364E-01
457.04	5.1463E-01
457.39	4.8632E-01
457.74	4.9162E-01
458.09	4.9234E-01
458.44	4.8503E-01
458.79	4.7390E-01
459.14	4.7691E-01
459.49	5.0306E-01
459.84	4.8183E-01
460.19	5.0670E-01
460.54	5.1813E-01
460.89	4.7112E-01
461.24	5.0732E-01
461.59	4.8974E-01
461.94	5.0129E-01
462.29	4.6143E-01
462.64	4.9439E-01
462.99	5.0176E-01
463.34	5.2098E-01
463.69	4.7998E-01
464.04	4.6049E-01
464.39	4.6686E-01
464.74	4.8403E-01
465.09	4.9793E-01
465.44	4.6345E-01
465.79	4.7894E-01
466.14	4.7732E-01
466.49	4.7336E-01
466.84	4.7172E-01
467.19	4.7740E-01
467.54	4.7586E-01
467.89	4.6338E-01
468.24	4.4347E-01
468.59	4.5113E-01
468.94	4.5155E-01
469.29	4.4881E-01
469.64	4.6036E-01
469.99	4.5209E-01
470.34	4.3151E-01
470.68	4.6554E-01
471.03	4.4159E-01
471.38	4.3741E-01
471.73	4.2730E-01
472.08	4.2010E-01
472.43	4.0656E-01
472.78	4.3150E-01
473.13	4.2817E-01
473.48	4.1750E-01
473.83	4.0650E-01
474.17	4.2305E-01
474.52	4.1013E-01
474.87	3.9578E-01
475.22	4.0284E-01
475.57	3.8134E-01
475.92	3.6760E-01
476.27	3.9090E-01
476.61	3.7476E-01
476.96	3.6980E-01
477.31	3.4876E-01
477.66	3.6102E-01
478.01	3.5415E-01
478.36	3.5426E-01
478.70	3.4660E-01
479.05	3.4895E-01
479.40	3.4125E-01
479.75	3.4210E-01
480.10	3.3379E-01
480.45	3.2929E-01
480.79	3.2706E-01
481.14	3.3297E-01
481.49	3.2756E-01
481.84	3.1778E-01
482.19	3.1121E-01
482.53	3.1708E-01
482.88	3.1152E-01
483.23	3.0736E-01
483.58	3.0346E-01
483.92	3.1052E-01
484.27	2.9790E-01
484.62	2.9787E-01
484.97	2.9197E-01
485.31	2.8837E-01
485.66	2.9333E-01
486.01	2.9416E-01
486.36	2.8385E-01
486.70	2.8867E-01
487.05	2.8755E-01
487.40	2.8417E-01
487.75	2.7919E-01
488.09	2.7870E-01
488.44	2.8239E-01
488.79	2.8027E-01
489.13	2.7593E-01
489.48	2.7612E-01
489.83	2.7895E-01
490.17	2.7066E-01
490.52	2.6965E-01
490.87	2.7088E-01
491.22	2.7405E-01
491.56	2.7345E-01
491.91	2.7545E-01
492.26	2.7334E-01
492.60	2.7218E-01
492.95	2.7438E-01
493.30	2.7350E-01
493.64	2.7035E-01
493.99	2.7497E-01
494.34	2.7059E-01
494.68	2.6670E-01
495.03	2.7200E-01
495.37	2.6809E-01
495.72	2.7227E-01
496.07	2.6583E-01
496.41	2.6912E-01
496.76	2.6864E-01
497.11	2.6974E-01
497.45	2.6948E-01
497.80	2.7064E-01
498.14	2.6709E-01
498.49	2.7115E-01
498.84	2.6919E-01
499.18	2.7008E-01
499.53	2.6929E-01
499.87	2.6502E-01
500.22	2.7215E-01
500.56	2.6901E-01
500.91	2.6997E-01
501.26	2.6763E-01
501.60	2.6939E-01
501.95	2.6730E-01
502.29	2.6866E-01
502.64	2.6657E-01
502.98	2.7076E-01
503.33	2.6624E-01
503.67	2.6928E-01
504.02	2.6784E-01
504.36	2.6670E-01
504.71	2.6839E-01
505.06	2.6637E-01
505.40	2.6465E-01
505.75	2.6578E-01
506.09	2.6525E-01
506.44	2.6469E-01
506.78	2.6668E-01
507.13	2.6733E-01
507.47	2.6452E-01
507.82	2.6436E-01
508.16	2.6468E-01
508.51	2.6371E-01
508.85	2.6055E-01
509.19	2.6167E-01
509.54	2.6349E-01
509.88	2.6302E-01
510.23	2.5837E-01
510.57	2.5926E-01
510.92	2.6109E-01
511.26	2.6074E-01
511.61	2.6105E-01
511.95	2.5888E-01
512.30	2.5857E-01
512.64	2.5925E-01
512.98	2.5816E-01
513.33	2.5935E-01
513.67	2.5739E-01
514.02	2.5849E-01
514.36	2.5535E-01
514.70	2.5634E-01
515.05	2.5478E-01
515.39	2.5579E-01
515.74	2.5638E-01
516.08	2.5719E-01
516.42	2.5369E-01
516.77	2.5577E-01
517.11	2.5348E-01
517.46	2.5422E-01
517.80	2.5372E-01
518.14	2.5300E-01
518.49	2.5244E-01
518.83	2.5167E-01
519.17	2.5526E-01
519.52	2.5297E-01
519.86	2.5374E-01
520.20	2.5133E-01
520.55	2.5256E-01
520.89	2.5127E-01
521.23	2.5242E-01
521.58	2.5363E-01
521.92	2.5272E-01
522.26	2.5624E-01
522.61	2.5195E-01
522.95	2.5394E-01
523.29	2.5067E-01
523.64	2.5189E-01
523.98	2.5387E-01
524.32	2.5385E-01
524.66	2.5421E-01
525.01	2.5425E-01
525.35	2.5600E-01
525.69	2.5563E-01
526.04	2.5751E-01
526.38	2.5185E-01
526.72	2.5831E-01
527.06	2.5534E-01
527.41	2.5843E-01
527.75	2.5910E-01
528.09	2.5639E-01
528.43	2.6077E-01
528.78	2.5869E-01
529.12	2.6339E-01
529.46	2.6172E-01
529.80	2.6248E-01
530.15	2.6233E-01
530.49	2.6353E-01
530.83	2.6582E-01
531.17	2.6516E-01
531.51	2.6692E-01
531.86	2.6512E-01
532.20	2.6853E-01
532.54	2.6800E-01
532.88	2.6985E-01
533.22	2.7215E-01
533.57	2.7572E-01
533.91	2.7115E-01
534.25	2.7280E-01
534.59	2.7326E-01
534.93	2.7282E-01
535.27	2.7326E-01
535.62	2.7860E-01
535.96	2.7758E-01
536.30	2.7703E-01
536.64	2.7855E-01
536.98	2.8256E-01
537.32	2.7953E-01
537.66	2.8248E-01
538.01	2.8180E-01
538.35	2.8528E-01
538.69	2.8410E-01
539.03	2.8784E-01
539.37	2.8611E-01
539.71	2.8814E-01
540.05	2.8694E-01
540.39	2.8727E-01
540.73	2.8853E-01
541.07	2.8773E-01
541.42	2.8783E-01
541.76	2.8933E-01
542.10	2.9147E-01
542.44	2.9176E-01
542.78	2.9451E-01
543.12	2.8936E-01
543.46	2.9543E-01
543.80	2.9103E-01
544.14	2.9291E-01
544.48	2.9110E-01
544.82	2.9563E-01
545.16	2.9465E-01
545.50	2.9404E-01
545.84	2.9881E-01
546.18	2.9567E-01
546.52	2.9680E-01
546.86	2.9542E-01
547.20	3.0072E-01
547.54	3.0281E-01
547.88	2.9838E-01
548.22	2.9904E-01
548.56	3.0191E-01
548.90	3.0180E-01
549.24	3.0186E-01
549.58	3.0289E-01
549.92	3.0281E-01
550.26	3.0417E-01
550.60	3.0331E-01
550.94	3.0190E-01
551.28	3.0649E-01
551.62	3.0265E-01
551.96	3.0499E-01
552.30	3.0656E-01
552.64	3.0636E-01
552.98	3.0659E-01
553.32	3.0716E-01
553.66	3.0740E-01
554.00	3.0371E-01
554.34	3.0626E-01
554.68	3.0635E-01
555.02	3.0508E-01
555.36	3.0897E-01
555.69	3.1011E-01
556.03	3.0617E-01
556.37	3.0875E-01
556.71	3.0668E-01
557.05	3.0668E-01
557.39	3.0906E-01
557.73	3.0646E-01
558.07	3.0918E-01
558.41	3.0871E-01
558.75	3.1008E-01
559.08	3.0841E-01
559.42	3.0735E-01
559.76	3.1003E-01
560.10	3.1045E-01
560.44	3.1092E-01
560.78	3.0707E-01
561.12	3.1157E-01
561.45	3.1160E-01
561.79	3.0977E-01
562.13	3.0925E-01
562.47	3.0985E-01
562.81	3.1150E-01
563.15	3.1191E-01
563.48	3.1241E-01
563.82	3.0831E-01
564.16	3.1107E-01
564.50	3.1394E-01
564.84	3.1000E-01
565.17	3.1052E-01
565.51	3.0910E-01
565.85	3.1318E-01
566.19	3.0922E-01
566.52	3.1353E-01
566.86	3.1122E-01
567.20	3.1524E-01
567.54	3.1401E-01
567.88	3.1413E-01
568.21	3.1509E-01
568.55	3.1394E-01
568.89	3.1464E-01
569.23	3.1482E-01
569.56	3.1391E-01
569.90	3.1417E-01
570.24	3.1805E-01
570.57	3.1501E-01
570.91	3.1711E-01
571.25	3.1578E-01
571.59	3.1676E-01
571.92	3.1709E-01
572.26	3.1779E-01
572.60	3.1949E-01
572.93	3.1784E-01
573.27	3.2331E-01
573.61	3.2318E-01
573.95	3.1576E-01
574.28	3.2341E-01
574.62	3.2299E-01
574.96	3.2588E-01
575.29	3.2469E-01
575.63	3.2863E-01
575.97	3.2642E-01
576.30	3.3185E-01
576.64	3.2817E-01
576.98	3.3036E-01
577.31	3.3183E-01
577.65	3.3479E-01
577.98	3.2905E-01
578.32	3.3627E-01
578.66	3.3850E-01
578.99	3.3718E-01
579.33	3.3967E-01
579.67	3.3867E-01
580.00	3.4027E-01
580.34	3.4010E-01
580.67	3.4314E-01
581.01	3.4187E-01
581.35	3.4416E-01
581.68	3.4487E-01
582.02	3.4678E-01
582.35	3.4572E-01
582.69	3.4815E-01
583.02	3.5351E-01
583.36	3.5332E-01
583.70	3.5251E-01
584.03	3.5264E-01
584.37	3.5282E-01
584.70	3.5580E-01
585.04	3.5877E-01
585.37	3.5713E-01
585.71	3.6135E-01
586.04	3.6106E-01
586.38	3.5886E-01
586.72	3.6645E-01
587.05	3.6124E-01
587.39	3.6495E-01
587.72	3.6270E-01
588.06	3.6794E-01
588.39	3.6273E-01
588.73	3.7044E-01
589.06	3.6877E-01
589.40	3.7159E-01
589.73	3.7409E-01
590.07	3.7410E-01
590.40	3.7630E-01
590.73	3.7849E-01
591.07	3.7720E-01
591.40	3.8021E-01
591.74	3.7427E-01
592.07	3.8056E-01
592.41	3.8220E-01
592.74	3.8306E-01
593.08	3.7949E-01
593.41	3.8214E-01
593.75	3.8416E-01
594.08	3.8826E-01
594.41	3.8716E-01
594.75	3.8909E-01
595.08	3.8672E-01
595.42	3.8364E-01
595.75	3.8681E-01
596.09	3.9042E-01
596.42	3.8794E-01
596.75	3.8907E-01
597.09	3.9510E-01
597.42	3.8789E-01
597.75	3.9642E-01
598.09	3.9532E-01
598.42	3.9300E-01
598.76	3.9285E-01
599.09	3.9665E-01
599.42	3.9830E-01
599.76	3.9620E-01
600.09	3.9830E-01
600.42	4.0186E-01
600.76	3.9289E-01
601.09	3.9631E-01
601.42	4.0584E-01
601.76	4.0253E-01
602.09	4.0024E-01
602.42	3.9980E-01
602.76	3.9938E-01
603.09	4.0039E-01
603.42	4.0379E-01
603.76	4.0076E-01
604.09	4.0313E-01
604.42	4.0282E-01
604.76	4.0016E-01
605.09	4.0554E-01
605.42	4.0208E-01
605.75	4.0450E-01
606.09	4.0675E-01
606.42	4.0585E-01
606.75	4.0890E-01
607.09	4.0598E-01
607.42	4.0500E-01
607.75	4.0666E-01
608.08	4.0768E-01
608.42	4.0997E-01
608.75	4.0746E-01
609.08	4.1114E-01
609.41	4.0948E-01
609.75	4.0719E-01
610.08	4.1100E-01
610.41	4.1130E-01
610.74	4.1102E-01
611.07	4.1189E-01
611.41	4.0749E-01
611.74	4.1122E-01
612.07	4.1021E-01
612.40	4.0749E-01
612.73	4.1181E-01
613.07	4.1638E-01
613.40	4.1023E-01
613.73	4.1001E-01
614.06	4.1438E-01
614.39	4.1225E-01
614.72	4.1675E-01
615.06	4.1489E-01
615.39	4.1883E-01
615.72	4.1466E-01
616.05	4.1982E-01
616.38	4.2006E-01
616.71	4.1814E-01
617.05	4.1539E-01
617.38	4.2011E-01
617.71	4.1893E-01
618.04	4.1913E-01
618.37	4.1506E-01
618.70	4.1882E-01
619.03	4.1936E-01
619.36	4.1235E-01
619.69	4.2083E-01
620.03	4.1770E-01
620.36	4.1827E-01
620.69	4.1745E-01
621.02	4.1615E-01
621.35	4.1678E-01
621.68	4.1502E-01
622.01	4.1789E-01
622.34	4.1693E-01
622.67	4.1713E-01
623.00	4.1665E-01
623.33	4.1539E-01
623.66	4.1747E-01
623.99	4.1908E-01
624.32	4.1289E-01
624.65	4.1546E-01
624.99	4.1568E-01
625.32	4.2033E-01
625.65	4.1759E-01
625.98	4.1337E-01
626.31	4.1619E-01
626.64	4.2018E-01
626.97	4.1825E-01
627.30	4.1460E-01
627.63	4.1362E-01
627.96	4.1270E-01
628.29	4.1417E-01
628.62	4.1750E-01
628.95	4.1687E-01
629.28	4.1268E-01
629.61	4.2230E-01
629.94	4.1907E-01
630.26	4.2093E-01
630.59	4.2139E-01
630.92	4.1970E-01
631.25	4.1924E-01
631.58	4.2701E-01
631.91	4.2192E-01
632.24	4.2642E-01
632.57	4.2500E-01
632.90	4.2662E-01
633.23	4.2413E-01
633.56	4.2790E-01
633.89	4.2732E-01
634.22	4.2922E-01
634.55	4.2981E-01
634.88	4.3342E-01
635.20	4.3424E-01
635.53	4.3859E-01
635.86	4.3537E-01
636.19	4.4233E-01
636.52	4.4208E-01
636.85	4.4255E-01
637.18	4.4621E-01
637.51	4.4543E-01
637.83	4.4900E-01
638.16	4.4739E-01
638.49	4.5544E-01
638.82	4.4972E-01
639.15	4.5720E-01
639.48	4.5756E-01
639.81	4.6425E-01
640.13	4.5945E-01
640.46	4.6781E-01
640.79	4.6437E-01
641.12	4.7000E-01
641.45	4.6647E-01
641.77	4.6688E-01
642.10	4.7835E-01
642.43	4.8015E-01
642.76	4.8375E-01
643.09	4.7902E-01
643.41	4.8308E-01
643.74	4.8285E-01
644.07	4.8597E-01
644.40	4.8540E-01
644.73	4.9291E-01
645.05	4.9316E-01
645.38	4.9181E-01
645.71	4.9964E-01
646.04	4.9815E-01
646.36	4.9807E-01
646.69	5.0692E-01
647.02	5.0863E-01
647.35	5.0341E-01
647.67	5.1185E-01
648.00	5.0928E-01
648.33	5.1357E-01
648.66	5.1126E-01
648.98	5.1812E-01
649.31	5.1550E-01
649.64	5.1774E-01
649.96	5.2133E-01
650.29	5.2913E-01
650.62	5.2569E-01
650.94	5.2547E-01
651.27	5.2859E-01
651.60	5.2538E-01
651.92	5.3666E-01
652.25	5.4008E-01
652.58	5.3815E-01
652.90	5.3747E-01
653.23	5.3837E-01
653.56	5.4135E-01
653.88	5.4521E-01
654.21	5.4381E-01
654.54	5.4779E-01
654.86	5.5370E-01
655.19	5.5042E-01
655.52	5.5580E-01
655.84	5.4998E-01
656.17	5.5798E-01
656.49	5.5760E-01
656.82	5.5475E-01
657.15	5.6109E-01
657.47	5.6270E-01
657.80	5.6497E-01
658.13	5.6325E-01
658.45	5.6579E-01
658.78	5.6719E-01
659.10	5.7181E-01
659.43	5.6951E-01
659.75	5.7206E-01
660.08	5.7004E-01
660.41	5.8149E-01
660.73	5.7782E-01
661.06	5.7760E-01
661.38	5.8145E-01
661.71	5.8486E-01
662.03	5.8170E-01
662.36	5.8930E-01
662.68	5.8476E-01
663.01	5.8012E-01
663.33	5.8862E-01
663.66	5.9109E-01
663.98	5.8973E-01
664.31	5.9096E-01
664.63	6.0386E-01
664.96	5.8896E-01
665.28	5.9647E-01
665.61	5.9837E-01
665.93	5.9869E-01
666.26	5.9814E-01
666.58	6.0300E-01
666.91	6.0380E-01
667.23	6.1048E-01
667.56	6.0476E-01
667.88	6.0788E-01
668.21	6.1162E-01
668.53	6.0859E-01
668.86	6.1644E-01
669.18	6.1136E-01
669.50	6.2031E-01
669.83	6.1446E-01
670.15	6.1928E-01
670.48	6.2067E-01
670.80	6.1944E-01
671.13	6.1983E-01
671.45	6.2327E-01
671.77	6.2312E-01
672.10	6.2080E-01
672.42	6.3617E-01
672.75	6.2927E-01
673.07	6.3354E-01
673.39	6.2828E-01
673.72	6.3241E-01
674.04	6.3682E-01
674.37	6.3686E-01
674.69	6.3508E-01
675.01	6.3933E-01
675.34	6.4606E-01
675.66	6.4436E-01
675.98	6.3915E-01
676.31	6.4879E-01
676.63	6.4599E-01
676.95	6.4770E-01
677.28	6.5516E-01
677.60	6.5569E-01
677.92	6.5033E-01
678.25	6.5857E-01
678.57	6.5906E-01
678.89	6.5506E-01
679.22	6.6517E-01
679.54	6.6205E-01
679.86	6.6438E-01
680.18	6.7037E-01
680.51	6.6234E-01
680.83	6.7873E-01
681.15	6.6998E-01
681.48	6.7350E-01
681.80	6.7411E-01
682.12	6.7180E-01
682.44	6.8389E-01
682.77	6.8604E-01
683.09	6.8917E-01
683.41	6.8402E-01
683.73	6.9307E-01
684.06	6.8886E-01
684.38	6.9208E-01
684.70	6.9501E-01
685.02	6.9740E-01
685.34	7.0292E-01
685.67	7.0020E-01
685.99	7.1425E-01
686.31	7.0415E-01
686.63	7.1347E-01
686.96	7.1701E-01
687.28	7.2178E-01
687.60	7.0944E-01
687.92	7.1669E-01
688.24	7.2603E-01
688.56	7.3232E-01
688.89	7.2553E-01
689.21	7.3451E-01
689.53	7.3032E-01
689.85	7.3934E-01
690.17	7.3485E-01
690.49	7.4791E-01
690.82	7.4723E-01
691.14	7.4637E-01
691.46	7.5002E-01
691.78	7.5385E-01
692.10	7.5074E-01
692.42	7.6132E-01
692.74	7.6624E-01
693.06	7.6358E-01
693.39	7.7415E-01
693.71	7.7875E-01
694.03	7.7960E-01
694.35	7.8298E-01
694.67	7.8393E-01
694.99	7.9657E-01
695.31	7.9030E-01
695.63	7.9533E-01
695.95	8.0157E-01
696.27	8.0209E-01
696.59	8.0381E-01
696.91	8.1260E-01
697.23	8.1830E-01
697.56	8.1932E-01
697.88	8.1781E-01
698.20	8.2335E-01
698.52	8.2800E-01
698.84	8.3479E-01
699.16	8.3808E-01
699.48	8.3469E-01
699.80	8.4243E-01
700.12	8.5379E-01
700.44	8.5363E-01
700.76	8.5822E-01
701.08	8.6669E-01
701.40	8.6406E-01
701.72	8.6934E-01
702.04	8.7184E-01
702.36	8.8031E-01
702.68	8.8651E-01
703.00	8.8920E-01
703.32	8.9364E-01
703.64	9.0089E-01
703.96	8.9146E-01
704.28	8.9648E-01
704.60	9.0443E-01
704.91	9.1364E-01
705.23	9.1218E-01
705.55	9.2711E-01
705.87	9.2311E-01
706.19	9.2351E-01
706.51	9.3010E-01
706.83	9.3412E-01
707.15	9.5270E-01
707.47	9.4489E-01
707.79	9.5873E-01
708.11	9.5624E-01
708.43	9.6315E-01
708.74	9.7026E-01
709.06	9.7907E-01
709.38	9.7755E-01
709.70	9.7906E-01
710.02	9.8789E-01
710.34	9.8387E-01
710.66	1.0000E00
710.98	1.0059E00
711.29	1.0099E00
711.61	1.0212E00
711.93	1.0223E00
712.25	1.0187E00
712.57	1.0315E00
712.89	1.0413E00
713.20	1.0383E00
713.52	1.0428E00
713.84	1.0620E00
714.16	1.0525E00
714.48	1.0523E00
714.80	1.0729E00
715.11	1.0713E00
715.43	1.0797E00
715.75	1.0798E00
716.07	1.1088E00
716.39	1.0783E00
716.70	1.0960E00
717.02	1.0896E00
717.34	1.1148E00
717.66	1.1112E00
717.97	1.1146E00
718.29	1.1283E00
718.61	1.1320E00
718.93	1.1484E00
719.24	1.1470E00
719.56	1.1532E00
719.88	1.1667E00
720.20	1.1760E00
720.51	1.1849E00
720.83	1.1787E00
721.15	1.2071E00
721.46	1.2007E00
721.78	1.2132E00
722.10	1.2289E00
722.42	1.2284E00
722.73	1.2406E00
723.05	1.2397E00
723.37	1.2505E00
723.68	1.2790E00
724.00	1.2618E00
724.32	1.2840E00
724.63	1.2713E00
724.95	1.2816E00
725.27	1.2872E00
725.58	1.2932E00
725.90	1.2871E00
726.22	1.3079E00
726.53	1.2993E00
726.85	1.3068E00
727.16	1.3157E00
727.48	1.3205E00
727.80	1.3244E00
728.11	1.3348E00
728.43	1.3212E00
728.74	1.3225E00
729.06	1.3499E00
729.38	1.3481E00
729.69	1.3496E00
730.01	1.3604E00
730.32	1.3716E00
730.64	1.3690E00
730.96	1.3520E00
731.27	1.3889E00
731.59	1.3683E00
731.90	1.3659E00
732.22	1.3781E00
732.53	1.3948E00
732.85	1.4100E00
733.16	1.3984E00
733.48	1.3923E00
733.80	1.3879E00
734.11	1.4162E00
734.43	1.4385E00
734.74	1.4234E00
735.06	1.4388E00
735.37	1.4343E00
735.69	1.4401E00
736.00	1.4475E00
736.32	1.4457E00
736.63	1.4614E00
736.95	1.4702E00
737.26	1.4881E00
737.58	1.4768E00
737.89	1.4836E00
738.21	1.4768E00
738.52	1.4886E00
738.83	1.5081E00
739.15	1.4927E00
739.46	1.5187E00
739.78	1.5075E00
740.09	1.5160E00
740.41	1.5178E00
740.72	1.5157E00
741.04	1.5197E00
741.35	1.5271E00
741.66	1.5467E00
741.98	1.5357E00
742.29	1.5436E00
742.61	1.5548E00
742.92	1.5320E00
743.23	1.5472E00
743.55	1.5597E00
743.86	1.5488E00
744.18	1.5578E00
744.49	1.5456E00
744.80	1.5408E00
745.12	1.5461E00
745.43	1.5646E00
745.74	1.5607E00
746.06	1.5520E00
746.37	1.5516E00
746.68	1.5541E00
747.00	1.5601E00
747.31	1.5570E00
747.62	1.5454E00
747.94	1.5543E00
748.25	1.5534E00
748.56	1.5584E00
748.88	1.5483E00
749.19	1.5614E00
749.50	1.5522E00
749.82	1.5618E00
750.13	1.5576E00
750.44	1.5561E00
750.75	1.5438E00
751.07	1.5537E00
751.38	1.5756E00
751.69	1.5560E00
752.01	1.5782E00
752.32	1.5703E00
752.63	1.5558E00
752.94	1.5612E00
753.26	1.5633E00
753.57	1.5638E00
753.88	1.5798E00
754.19	1.5670E00
754.51	1.5817E00
754.82	1.5700E00
755.13	1.6001E00
755.44	1.5843E00
755.75	1.5921E00
756.07	1.6063E00
756.38	1.6147E00
756.69	1.6078E00
757.00	1.6313E00
757.31	1.6368E00
757.63	1.6375E00
757.94	1.6452E00
758.25	1.6639E00
758.56	1.6355E00
758.87	1.6738E00
759.18	1.6743E00
759.50	1.6676E00
759.81	1.6752E00
760.12	1.6896E00
760.43	1.7041E00
760.74	1.7120E00
761.05	1.7332E00
761.36	1.7244E00
761.67	1.7513E00
761.99	1.7507E00
762.30	1.7327E00
762.61	1.7605E00
762.92	1.7829E00
763.23	1.7951E00
763.54	1.7921E00
763.85	1.8273E00
764.16	1.8339E00
764.47	1.8513E00
764.78	1.8509E00
765.10	1.8696E00
765.41	1.8881E00
765.72	1.8722E00
766.03	1.9263E00
766.34	1.9303E00
766.65	1.9405E00
766.96	1.9764E00
767.27	1.9773E00
767.58	1.9684E00
767.89	1.9888E00
768.20	2.0388E00
768.51	2.0420E00
768.82	2.0382E00
769.13	2.0471E00
769.44	2.1002E00
769.75	2.0946E00
770.06	2.0976E00
770.37	2.1057E00
770.68	2.1373E00
770.99	2.1739E00
771.30	2.1907E00
771.61	2.2372E00
771.92	2.2170E00
772.23	2.2317E00
772.54	2.2624E00
772.85	2.2654E00
773.16	2.3011E00
773.47	2.3428E00
773.78	2.3445E00
774.09	2.3507E00
774.39	2.3735E00
774.70	2.3749E00
775.01	2.4402E00
775.32	2.4492E00
775.63	2.4569E00
775.94	2.4767E00
776.25	2.4660E00
776.56	2.5223E00
776.87	2.5701E00
777.18	2.5662E00
777.48	2.6089E00
777.79	2.6303E00
778.10	2.6542E00
778.41	2.6793E00
778.72	2.6896E00
779.03	2.6838E00
779.34	2.7443E00
779.65	2.7491E00
779.95	2.7565E00
780.26	2.8081E00
780.57	2.8037E00
780.88	2.8141E00
781.19	2.8658E00
781.50	2.8501E00
781.80	2.9105E00
782.11	2.9334E00
782.42	2.9441E00
782.73	2.9554E00
783.04	3.0322E00
783.34	3.0464E00
783.65	3.0841E00
783.96	3.0498E00
784.27	3.0751E00
784.57	3.1187E00
784.88	3.1347E00
785.19	3.1850E00
785.50	3.1883E00
785.81	3.2300E00
786.11	3.2044E00
786.42	3.2790E00
786.73	3.3483E00
787.04	3.3401E00
787.34	3.3485E00
787.65	3.3548E00
787.96	3.4652E00
788.26	3.4950E00
788.57	3.4885E00
788.88	3.4602E00
789.19	3.5155E00
789.49	3.5373E00
789.80	3.6288E00
790.11	3.6530E00
790.41	3.6521E00
790.72	3.7054E00
791.03	3.7113E00
791.33	3.7453E00
791.64	3.7376E00
791.95	3.7696E00
792.25	3.8488E00
792.56	3.9142E00
792.87	3.9192E00
793.17	3.9147E00
793.48	3.9001E00
793.79	4.0013E00
794.09	4.0045E00
794.40	3.9750E00
794.70	3.9755E00
795.01	4.0975E00
795.32	4.0808E00
795.62	4.1609E00
795.93	4.1614E00
796.23	4.1984E00
796.54	4.2256E00
796.85	4.2150E00
797.15	4.2605E00
797.46	4.2962E00
797.76	4.3848E00
798.07	4.4132E00
798.37	4.4289E00
798.68	4.5083E00
798.99	4.5648E00
799.29	4.5493E00
799.60	4.6598E00
799.90	4.6419E00
800.21	4.6625E00
800.51	4.6864E00
800.82	4.7568E00
801.12	4.7905E00
801.43	4.8798E00
801.73	4.8481E00
802.04	4.8569E00
802.34	4.8593E00
802.65	4.9895E00
802.95	5.0862E00
803.26	5.0169E00
803.56	4.9911E00
803.87	5.0729E00
804.17	5.0543E00
804.48	5.2076E00
804.78	5.1486E00
805.09	5.2169E00
805.39	5.2119E00
805.70	5.3028E00
806.00	5.2987E00
806.30	5.2888E00
806.61	5.4005E00
806.91	5.4164E00
807.22	5.4308E00
807.52	5.5915E00
807.83	5.4998E00
808.13	5.5440E00
808.43	5.5465E00
808.74	5.6357E00
809.04	5.7014E00
809.35	5.6363E00
809.65	5.8129E00
809.95	5.9075E00
810.26	5.9378E00
810.56	5.8459E00
810.86	6.0088E00
811.17	6.0673E00
811.47	6.1167E00
811.77	6.0081E00
812.08	6.1598E00
812.38	6.2195E00
812.69	6.1243E00
812.99	6.2134E00
813.29	6.2084E00
813.59	6.3305E00
813.90	6.3934E00
814.20	6.4246E00
814.50	6.5648E00
814.81	6.4720E00
815.11	6.6158E00
815.41	6.8185E00
815.72	6.7026E00
816.02	6.7203E00
816.32	6.7807E00
816.62	6.6878E00
816.93	6.8103E00
817.23	6.9406E00
817.53	6.8448E00
817.84	7.1074E00
818.14	7.0327E00
818.44	7.0122E00
818.74	7.0631E00
819.04	7.3948E00
819.35	7.3241E00
819.65	7.2333E00
819.95	7.5546E00
820.25	7.5529E00
820.56	7.5168E00
820.86	7.5102E00
821.16	7.6636E00
821.46	7.6498E00
821.76	7.4742E00
822.07	7.5660E00
822.37	7.8513E00
822.67	7.8539E00
822.97	8.0386E00
823.27	8.0496E00
823.57	7.9580E00
823.88	8.0325E00
824.18	8.1378E00
824.48	7.9828E00
824.78	8.2837E00
825.08	8.3033E00
825.38	8.2466E00
825.69	8.2797E00
825.99	8.4037E00
826.29	8.2971E00
826.59	8.5659E00
826.89	8.6988E00
827.19	8.5497E00
827.49	8.8681E00
827.79	8.7446E00
828.09	8.9166E00
828.39	8.9611E00
828.70	8.7714E00
829.00	9.0296E00
829.30	9.1863E00
829.60	9.0658E00
829.90	9.3111E00
830.20	9.3209E00
830.50	9.3891E00
830.80	9.4380E00
831.10	9.5653E00
831.40	9.5491E00
831.70	9.5656E00
832.00	9.3899E00
832.30	9.8975E00
832.60	9.5875E00
832.90	9.9391E00
833.20	9.9680E00
833.50	9.9000E00
833.80	1.0013E01
834.10	1.0291E01
834.40	1.0065E01
834.70	1.0144E01
835.00	1.0442E01
835.30	1.0432E01
835.60	1.0526E01
835.90	1.0582E01
836.20	1.0623E01
836.50	1.0701E01
836.80	1.0835E01
837.10	1.0691E01
837.40	1.0546E01
837.70	1.1121E01
838.00	1.1125E01
838.30	1.1254E01
838.60	1.1240E01
838.90	1.1079E01
839.19	1.1286E01
839.49	1.1642E01
839.79	1.1458E01
840.09	1.1534E01
840.39	1.1502E01
840.69	1.1553E01
840.99	1.2106E01
841.29	1.1599E01
841.59	1.1951E01
841.88	1.2270E01
842.18	1.1997E01
842.48	1.2253E01
842.78	1.2353E01
843.08	1.2705E01
843.38	1.2681E01
843.68	1.3009E01
843.97	1.2767E01
844.27	1.2774E01
844.57	1.2690E01
844.87	1.2942E01
845.17	1.3115E01
845.47	1.3223E01
845.76	1.3223E01
846.06	1.3481E01
846.36	1.3537E01
846.66	1.3344E01
846.96	1.3381E01
847.25	1.3857E01
847.55	1.3880E01
847.85	1.4194E01
848.15	1.4032E01
848.44	1.4027E01
848.74	1.4467E01
849.04	1.4632E01
849.34	1.4763E01
849.63	1.4491E01
849.93	1.4848E01
850.23	1.5101E01
850.53	1.5076E01
850.82	1.5133E01
851.12	1.5585E01
851.42	1.5373E01
851.71	1.5166E01
852.01	1.5782E01
852.31	1.5800E01
852.61	1.5694E01
852.90	1.6046E01
853.20	1.6214E01
853.50	1.6088E01
853.79	1.6801E01
854.09	1.6330E01
854.39	1.6704E01
854.68	1.7007E01
854.98	1.6901E01
855.28	1.6799E01
855.57	1.7379E01
855.87	1.7480E01
856.17	1.7503E01
856.46	1.7901E01
856.76	1.7808E01
857.05	1.7895E01
857.35	1.7883E01
857.65	1.8078E01
857.94	1.8171E01
858.24	1.7919E01
858.53	1.8693E01
858.83	1.9392E01
859.13	1.9179E01
859.42	1.8993E01
859.72	1.9331E01
860.01	1.9545E01
860.31	1.9754E01
860.60	2.0083E01
860.90	1.9446E01
861.20	2.0564E01
861.49	2.0080E01
861.79	2.0436E01
862.08	2.0619E01
862.38	2.0930E01
862.67	2.2045E01
862.97	2.0867E01
863.26	2.1062E01
863.56	2.1892E01
863.85	2.1819E01
864.15	2.2305E01
864.44	2.1349E01
864.74	2.2299E01
865.03	2.3239E01
865.33	2.2658E01
865.62	2.3628E01
865.92	2.3306E01
866.21	2.4100E01
866.51	2.4172E01
866.80	2.3777E01
867.10	2.4158E01
867.39	2.4797E01
867.69	2.4987E01
867.98	2.4745E01
868.27	2.5911E01
868.57	2.4893E01
868.86	2.6159E01
869.16	2.5836E01
869.45	2.6530E01
869.75	2.6794E01
870.04	2.6317E01
870.33	2.7405E01
870.63	2.7447E01
870.92	2.6635E01
871.22	2.7944E01
871.51	2.8793E01
871.80	2.8394E01
872.10	2.8394E01
>>>>>End Processed Spectral Data<<<<<
