SpectraSuite Data File
++++++++++++++++++++++++++++++++++++
Date: Sat May 16 08:55:45 PDT 2015
User: schluterlab
Dark Spectrum Present: Yes
Reference Spectrum Present: No
Number of Sampled Component Spectra: 1
Spectrometers: USB2E3373
Integration Time (usec): 2300000 (USB2E3373)
Spectra Averaged: 3 (USB2E3373)
Boxcar Smoothing: 0 (USB2E3373)
Correct for Electrical Dark: No (USB2E3373)
Strobe/Lamp Enabled: No (USB2E3373)
Correct for Detector Non-linearity: No (USB2E3373)
Correct for Stray Light: No (USB2E3373)
Number of Pixels in Processed Spectrum: 2048
>>>>>Begin Processed Spectral Data<<<<<
178.53	0.0000E00
178.91	0.0000E00
179.29	0.0000E00
179.67	0.0000E00
180.04	0.0000E00
180.42	0.0000E00
180.80	0.0000E00
181.18	0.0000E00
181.56	0.0000E00
181.94	0.0000E00
182.31	0.0000E00
182.69	0.0000E00
183.07	0.0000E00
183.45	0.0000E00
183.83	0.0000E00
184.20	0.0000E00
184.58	0.0000E00
184.96	0.0000E00
185.34	0.0000E00
185.72	0.0000E00
186.09	0.0000E00
186.47	0.0000E00
186.85	0.0000E00
187.23	0.0000E00
187.61	0.0000E00
187.98	0.0000E00
188.36	0.0000E00
188.74	0.0000E00
189.12	0.0000E00
189.49	0.0000E00
189.87	0.0000E00
190.25	0.0000E00
190.63	0.0000E00
191.00	0.0000E00
191.38	0.0000E00
191.76	0.0000E00
192.14	0.0000E00
192.51	0.0000E00
192.89	0.0000E00
193.27	0.0000E00
193.65	0.0000E00
194.02	0.0000E00
194.40	0.0000E00
194.78	0.0000E00
195.15	0.0000E00
195.53	0.0000E00
195.91	0.0000E00
196.29	0.0000E00
196.66	0.0000E00
197.04	0.0000E00
197.42	0.0000E00
197.79	0.0000E00
198.17	0.0000E00
198.55	0.0000E00
198.92	0.0000E00
199.30	0.0000E00
199.68	0.0000E00
200.05	0.0000E00
200.43	0.0000E00
200.81	0.0000E00
201.18	0.0000E00
201.56	0.0000E00
201.94	0.0000E00
202.31	0.0000E00
202.69	0.0000E00
203.07	0.0000E00
203.44	0.0000E00
203.82	0.0000E00
204.19	0.0000E00
204.57	0.0000E00
204.95	0.0000E00
205.32	0.0000E00
205.70	0.0000E00
206.08	0.0000E00
206.45	0.0000E00
206.83	0.0000E00
207.20	0.0000E00
207.58	0.0000E00
207.96	0.0000E00
208.33	0.0000E00
208.71	0.0000E00
209.08	0.0000E00
209.46	0.0000E00
209.84	0.0000E00
210.21	0.0000E00
210.59	0.0000E00
210.96	0.0000E00
211.34	0.0000E00
211.71	0.0000E00
212.09	0.0000E00
212.46	0.0000E00
212.84	0.0000E00
213.22	-0.0000E00
213.59	0.0000E00
213.97	0.0000E00
214.34	0.0000E00
214.72	0.0000E00
215.09	0.0000E00
215.47	0.0000E00
215.84	0.0000E00
216.22	0.0000E00
216.59	0.0000E00
216.97	0.0000E00
217.34	0.0000E00
217.72	0.0000E00
218.09	0.0000E00
218.47	0.0000E00
218.84	-0.0000E00
219.22	0.0000E00
219.59	0.0000E00
219.97	0.0000E00
220.34	0.0000E00
220.72	0.0000E00
221.09	0.0000E00
221.47	0.0000E00
221.84	0.0000E00
222.22	0.0000E00
222.59	0.0000E00
222.97	0.0000E00
223.34	0.0000E00
223.72	0.0000E00
224.09	0.0000E00
224.46	0.0000E00
224.84	0.0000E00
225.21	0.0000E00
225.59	0.0000E00
225.96	0.0000E00
226.34	0.0000E00
226.71	0.0000E00
227.08	0.0000E00
227.46	0.0000E00
227.83	0.0000E00
228.21	0.0000E00
228.58	0.0000E00
228.95	0.0000E00
229.33	0.0000E00
229.70	0.0000E00
230.08	0.0000E00
230.45	0.0000E00
230.82	0.0000E00
231.20	0.0000E00
231.57	0.0000E00
231.95	0.0000E00
232.32	0.0000E00
232.69	0.0000E00
233.07	0.0000E00
233.44	0.0000E00
233.81	0.0000E00
234.19	0.0000E00
234.56	0.0000E00
234.93	0.0000E00
235.31	0.0000E00
235.68	0.0000E00
236.05	0.0000E00
236.43	0.0000E00
236.80	0.0000E00
237.17	0.0000E00
237.55	0.0000E00
237.92	0.0000E00
238.29	0.0000E00
238.67	0.0000E00
239.04	0.0000E00
239.41	0.0000E00
239.79	0.0000E00
240.16	0.0000E00
240.53	0.0000E00
240.91	0.0000E00
241.28	0.0000E00
241.65	0.0000E00
242.02	0.0000E00
242.40	0.0000E00
242.77	0.0000E00
243.14	0.0000E00
243.51	0.0000E00
243.89	0.0000E00
244.26	0.0000E00
244.63	0.0000E00
245.00	0.0000E00
245.38	0.0000E00
245.75	0.0000E00
246.12	0.0000E00
246.49	0.0000E00
246.87	0.0000E00
247.24	0.0000E00
247.61	0.0000E00
247.98	0.0000E00
248.36	0.0000E00
248.73	0.0000E00
249.10	0.0000E00
249.47	0.0000E00
249.84	0.0000E00
250.22	0.0000E00
250.59	0.0000E00
250.96	0.0000E00
251.33	0.0000E00
251.70	0.0000E00
252.08	0.0000E00
252.45	0.0000E00
252.82	0.0000E00
253.19	0.0000E00
253.56	0.0000E00
253.94	0.0000E00
254.31	0.0000E00
254.68	0.0000E00
255.05	0.0000E00
255.42	0.0000E00
255.79	0.0000E00
256.16	0.0000E00
256.54	0.0000E00
256.91	0.0000E00
257.28	0.0000E00
257.65	0.0000E00
258.02	0.0000E00
258.39	0.0000E00
258.76	0.0000E00
259.14	0.0000E00
259.51	0.0000E00
259.88	0.0000E00
260.25	0.0000E00
260.62	0.0000E00
260.99	0.0000E00
261.36	0.0000E00
261.73	0.0000E00
262.10	0.0000E00
262.47	0.0000E00
262.85	0.0000E00
263.22	0.0000E00
263.59	0.0000E00
263.96	0.0000E00
264.33	0.0000E00
264.70	0.0000E00
265.07	0.0000E00
265.44	0.0000E00
265.81	0.0000E00
266.18	0.0000E00
266.55	0.0000E00
266.92	0.0000E00
267.29	0.0000E00
267.66	0.0000E00
268.03	0.0000E00
268.40	0.0000E00
268.77	0.0000E00
269.14	0.0000E00
269.51	0.0000E00
269.88	0.0000E00
270.25	0.0000E00
270.62	0.0000E00
270.99	0.0000E00
271.36	0.0000E00
271.73	0.0000E00
272.10	0.0000E00
272.47	0.0000E00
272.84	0.0000E00
273.21	0.0000E00
273.58	0.0000E00
273.95	0.0000E00
274.32	0.0000E00
274.69	0.0000E00
275.06	0.0000E00
275.43	0.0000E00
275.80	0.0000E00
276.17	0.0000E00
276.54	0.0000E00
276.91	0.0000E00
277.28	0.0000E00
277.65	0.0000E00
278.02	0.0000E00
278.39	0.0000E00
278.76	0.0000E00
279.13	0.0000E00
279.50	0.0000E00
279.87	0.0000E00
280.23	0.0000E00
280.60	0.0000E00
280.97	0.0000E00
281.34	0.0000E00
281.71	0.0000E00
282.08	0.0000E00
282.45	0.0000E00
282.82	0.0000E00
283.19	0.0000E00
283.56	0.0000E00
283.92	0.0000E00
284.29	0.0000E00
284.66	0.0000E00
285.03	0.0000E00
285.40	0.0000E00
285.77	0.0000E00
286.14	0.0000E00
286.51	0.0000E00
286.87	0.0000E00
287.24	0.0000E00
287.61	0.0000E00
287.98	0.0000E00
288.35	0.0000E00
288.72	0.0000E00
289.08	0.0000E00
289.45	0.0000E00
289.82	0.0000E00
290.19	0.0000E00
290.56	0.0000E00
290.93	0.0000E00
291.29	0.0000E00
291.66	0.0000E00
292.03	0.0000E00
292.40	0.0000E00
292.77	0.0000E00
293.13	0.0000E00
293.50	0.0000E00
293.87	0.0000E00
294.24	0.0000E00
294.60	0.0000E00
294.97	0.0000E00
295.34	0.0000E00
295.71	0.0000E00
296.08	0.0000E00
296.44	0.0000E00
296.81	0.0000E00
297.18	0.0000E00
297.55	0.0000E00
297.91	0.0000E00
298.28	0.0000E00
298.65	0.0000E00
299.02	0.0000E00
299.38	0.0000E00
299.75	0.0000E00
300.12	1.3609E00
300.48	2.7303E-01
300.85	4.2695E-01
301.22	3.9135E-01
301.59	3.9988E-01
301.95	5.5826E-01
302.32	6.7823E-01
302.69	2.2578E-01
303.05	2.2659E-01
303.42	3.9098E-01
303.79	3.2109E-01
304.15	6.0627E-01
304.52	5.1316E-01
304.89	5.5198E-01
305.25	3.5763E-01
305.62	3.5182E-01
305.99	1.2399E00
306.35	3.5373E-01
306.72	4.7472E-01
307.09	4.1334E-01
307.45	3.5767E-01
307.82	3.9753E-01
308.19	3.7101E-01
308.55	4.1532E-01
308.92	8.6027E-01
309.29	5.7900E-01
309.65	4.2487E-01
310.02	3.7274E-01
310.38	2.6772E-01
310.75	8.4221E-01
311.12	2.8764E-01
311.48	5.4319E-01
311.85	4.4209E-01
312.22	2.6538E-01
312.58	3.2886E-01
312.95	5.1144E-01
313.31	5.2798E-01
313.68	4.1021E-01
314.05	5.2708E-01
314.41	7.7302E-01
314.78	3.7366E-01
315.14	5.1853E-01
315.51	9.1623E-01
315.87	4.6649E-01
316.24	4.6482E-01
316.61	8.6120E-01
316.97	7.6167E-01
317.34	6.2898E-01
317.70	1.1454E00
318.07	8.7174E-01
318.43	6.8487E-01
318.80	1.0488E00
319.16	9.1989E-01
319.53	1.2542E00
319.89	7.1423E-01
320.26	6.2009E-01
320.62	1.4617E00
320.99	5.4984E-01
321.35	8.8808E-01
321.72	7.2271E-01
322.08	8.3104E-01
322.45	6.3144E-01
322.81	1.6066E00
323.18	1.0213E00
323.54	7.1795E-01
323.91	7.5370E-01
324.27	6.1167E-01
324.64	1.2584E00
325.00	1.1217E00
325.37	7.3851E-01
325.73	1.2243E00
326.10	1.1820E00
326.46	1.1189E00
326.83	2.7268E00
327.19	2.0288E00
327.56	1.2641E00
327.92	1.7212E00
328.29	1.7107E00
328.65	1.2811E00
329.01	1.3293E00
329.38	1.5335E00
329.74	1.5812E00
330.11	1.1034E00
330.47	1.7069E00
330.84	2.1831E00
331.20	2.5772E00
331.56	1.8847E00
331.93	1.7710E00
332.29	2.4945E00
332.66	9.9711E-01
333.02	2.1303E00
333.38	1.2824E00
333.75	1.4026E00
334.11	1.7452E00
334.48	1.4102E00
334.84	1.5532E00
335.20	1.5497E00
335.57	1.6605E00
335.93	4.0669E00
336.29	3.4345E00
336.66	1.4866E00
337.02	2.7832E00
337.38	1.1403E00
337.75	1.3488E00
338.11	1.5889E00
338.47	1.1711E00
338.84	1.3101E00
339.20	1.3126E00
339.56	1.4421E00
339.93	1.3591E00
340.29	1.7323E00
340.65	1.1624E00
341.02	2.1704E00
341.38	1.6379E00
341.74	2.3099E00
342.11	1.6041E00
342.47	1.3032E00
342.83	1.7538E00
343.20	1.2570E00
343.56	1.1470E00
343.92	1.6219E00
344.28	1.4451E00
344.65	1.9840E00
345.01	1.2511E00
345.37	2.1063E00
345.73	1.3800E00
346.10	1.1195E00
346.46	1.3673E00
346.82	1.5904E00
347.19	1.6551E00
347.55	1.4055E00
347.91	1.4176E00
348.27	1.5510E00
348.63	1.7669E00
349.00	1.1504E00
349.36	1.0903E00
349.72	1.2174E00
350.08	1.8781E00
350.45	1.4916E00
350.81	1.5394E00
351.17	1.0807E00
351.53	1.4034E00
351.89	1.5198E00
352.26	1.2617E00
352.62	1.4220E00
352.98	1.1700E00
353.34	1.0306E00
353.70	1.3107E00
354.07	1.0960E00
354.43	1.0988E00
354.79	1.2170E00
355.15	9.3488E-01
355.51	1.3963E00
355.87	1.3113E00
356.24	9.7625E-01
356.60	1.3812E00
356.96	1.1971E00
357.32	1.2269E00
357.68	1.1638E00
358.04	1.1705E00
358.40	1.0758E00
358.77	1.2568E00
359.13	1.1706E00
359.49	1.4809E00
359.85	1.3952E00
360.21	1.0447E00
360.57	1.0199E00
360.93	1.1170E00
361.29	1.0912E00
361.66	1.2449E00
362.02	9.9790E-01
362.38	1.1250E00
362.74	1.0677E00
363.10	1.1876E00
363.46	1.2233E00
363.82	1.2811E00
364.18	1.1167E00
364.54	1.1657E00
364.90	9.4103E-01
365.26	9.8928E-01
365.62	1.1027E00
365.98	1.0414E00
366.35	1.0390E00
366.71	8.3945E-01
367.07	1.4013E00
367.43	1.2235E00
367.79	1.0610E00
368.15	1.0341E00
368.51	1.1608E00
368.87	1.0712E00
369.23	1.2563E00
369.59	9.9445E-01
369.95	1.4076E00
370.31	1.1172E00
370.67	1.1728E00
371.03	1.0134E00
371.39	9.8988E-01
371.75	1.2591E00
372.11	1.1178E00
372.47	9.7664E-01
372.83	1.1267E00
373.19	1.1776E00
373.55	1.0588E00
373.91	1.1718E00
374.27	9.0054E-01
374.63	1.0323E00
374.99	9.7065E-01
375.35	1.0734E00
375.71	1.0498E00
376.07	9.7835E-01
376.42	1.0800E00
376.78	9.9572E-01
377.14	9.4244E-01
377.50	1.0644E00
377.86	9.9527E-01
378.22	1.1653E00
378.58	9.3471E-01
378.94	1.0307E00
379.30	8.4393E-01
379.66	9.4493E-01
380.02	1.0311E00
380.38	8.8041E-01
380.74	9.7168E-01
381.09	9.7186E-01
381.45	8.9872E-01
381.81	9.0731E-01
382.17	8.9549E-01
382.53	8.4786E-01
382.89	8.0478E-01
383.25	9.3630E-01
383.61	9.3003E-01
383.97	9.8414E-01
384.32	9.9279E-01
384.68	9.3015E-01
385.04	9.1314E-01
385.40	9.2832E-01
385.76	7.4204E-01
386.12	9.2038E-01
386.48	8.2203E-01
386.83	9.0639E-01
387.19	8.7951E-01
387.55	9.5618E-01
387.91	9.2676E-01
388.27	8.4073E-01
388.62	8.4276E-01
388.98	8.6211E-01
389.34	8.9027E-01
389.70	8.7267E-01
390.06	8.6481E-01
390.42	8.4756E-01
390.77	8.2672E-01
391.13	8.8330E-01
391.49	8.5565E-01
391.85	9.3260E-01
392.20	8.5210E-01
392.56	8.8473E-01
392.92	8.4361E-01
393.28	8.4245E-01
393.64	8.6804E-01
393.99	8.9007E-01
394.35	8.2111E-01
394.71	9.3111E-01
395.07	8.6637E-01
395.42	8.3041E-01
395.78	8.2058E-01
396.14	8.2834E-01
396.50	7.7677E-01
396.85	8.9961E-01
397.21	9.3084E-01
397.57	8.4115E-01
397.92	8.6075E-01
398.28	7.7201E-01
398.64	8.2065E-01
399.00	7.8452E-01
399.35	7.7425E-01
399.71	8.2348E-01
400.07	8.1600E-01
400.42	8.1922E-01
400.78	7.8878E-01
401.14	7.8260E-01
401.49	7.8933E-01
401.85	7.8987E-01
402.21	7.1621E-01
402.57	7.4937E-01
402.92	8.0738E-01
403.28	8.0414E-01
403.63	7.8946E-01
403.99	8.1545E-01
404.35	7.5447E-01
404.70	7.6021E-01
405.06	7.4841E-01
405.42	8.0316E-01
405.77	7.3341E-01
406.13	7.1304E-01
406.49	6.8430E-01
406.84	7.0489E-01
407.20	7.5083E-01
407.55	7.7402E-01
407.91	7.8413E-01
408.27	7.1383E-01
408.62	6.9824E-01
408.98	7.2865E-01
409.34	7.1445E-01
409.69	7.5388E-01
410.05	7.0407E-01
410.40	7.1030E-01
410.76	6.8405E-01
411.11	7.0997E-01
411.47	7.2758E-01
411.83	6.9212E-01
412.18	6.9081E-01
412.54	6.8731E-01
412.89	7.0413E-01
413.25	6.5640E-01
413.60	6.7781E-01
413.96	7.2134E-01
414.31	6.8069E-01
414.67	7.0949E-01
415.03	7.1767E-01
415.38	7.4801E-01
415.74	7.1629E-01
416.09	7.0852E-01
416.45	7.3296E-01
416.80	7.0314E-01
417.16	7.0351E-01
417.51	6.9489E-01
417.87	7.1492E-01
418.22	6.6935E-01
418.58	6.9084E-01
418.93	6.4769E-01
419.29	6.8493E-01
419.64	6.5244E-01
420.00	6.7256E-01
420.35	6.6452E-01
420.71	6.4052E-01
421.06	6.6517E-01
421.42	6.9887E-01
421.77	6.5735E-01
422.12	6.7094E-01
422.48	6.4691E-01
422.83	6.7608E-01
423.19	6.4037E-01
423.54	6.6412E-01
423.90	6.4693E-01
424.25	6.3571E-01
424.61	6.6574E-01
424.96	6.3557E-01
425.31	6.1601E-01
425.67	6.1053E-01
426.02	6.2306E-01
426.38	6.2332E-01
426.73	6.1419E-01
427.09	6.2428E-01
427.44	5.9352E-01
427.79	6.0883E-01
428.15	6.1219E-01
428.50	6.1970E-01
428.85	6.3783E-01
429.21	5.7686E-01
429.56	5.8645E-01
429.92	5.7886E-01
430.27	5.9592E-01
430.62	6.1420E-01
430.98	6.2061E-01
431.33	6.0293E-01
431.68	5.8981E-01
432.04	5.8245E-01
432.39	5.8215E-01
432.74	6.0657E-01
433.10	5.6095E-01
433.45	6.0043E-01
433.80	5.8856E-01
434.16	5.8274E-01
434.51	5.7623E-01
434.86	5.9514E-01
435.22	5.6769E-01
435.57	6.1869E-01
435.92	5.9436E-01
436.28	5.5938E-01
436.63	5.6513E-01
436.98	5.6844E-01
437.34	5.9025E-01
437.69	5.6807E-01
438.04	5.4824E-01
438.39	5.8889E-01
438.75	5.7282E-01
439.10	5.5768E-01
439.45	5.8482E-01
439.81	5.8644E-01
440.16	5.5236E-01
440.51	5.6487E-01
440.86	5.9233E-01
441.22	5.6783E-01
441.57	5.4707E-01
441.92	5.4627E-01
442.27	5.6355E-01
442.63	5.5482E-01
442.98	5.8466E-01
443.33	5.7510E-01
443.68	5.3997E-01
444.03	5.3183E-01
444.39	5.2561E-01
444.74	5.7001E-01
445.09	5.7379E-01
445.44	5.6408E-01
445.79	5.1555E-01
446.15	5.5002E-01
446.50	5.5520E-01
446.85	5.2326E-01
447.20	5.2131E-01
447.55	5.4765E-01
447.91	5.4380E-01
448.26	5.5387E-01
448.61	5.4084E-01
448.96	5.2348E-01
449.31	5.3408E-01
449.66	5.4154E-01
450.02	5.3772E-01
450.37	5.3987E-01
450.72	5.2725E-01
451.07	5.6984E-01
451.42	5.7313E-01
451.77	5.4193E-01
452.12	5.3311E-01
452.47	5.6777E-01
452.83	5.2672E-01
453.18	5.4226E-01
453.53	5.3735E-01
453.88	5.0057E-01
454.23	5.1037E-01
454.58	5.0587E-01
454.93	5.1895E-01
455.28	5.1891E-01
455.63	5.0903E-01
455.98	5.0231E-01
456.34	5.2838E-01
456.69	5.1829E-01
457.04	5.1875E-01
457.39	4.9042E-01
457.74	4.9538E-01
458.09	4.9650E-01
458.44	4.8912E-01
458.79	4.7827E-01
459.14	4.8069E-01
459.49	5.0708E-01
459.84	4.8641E-01
460.19	5.1103E-01
460.54	5.2292E-01
460.89	4.7494E-01
461.24	5.1116E-01
461.59	4.9396E-01
461.94	5.0592E-01
462.29	4.6557E-01
462.64	4.9843E-01
462.99	5.0587E-01
463.34	5.2538E-01
463.69	4.8432E-01
464.04	4.6438E-01
464.39	4.7056E-01
464.74	4.8829E-01
465.09	5.0231E-01
465.44	4.6760E-01
465.79	4.8278E-01
466.14	4.8126E-01
466.49	4.7719E-01
466.84	4.7595E-01
467.19	4.8163E-01
467.54	4.7996E-01
467.89	4.6741E-01
468.24	4.4718E-01
468.59	4.5506E-01
468.94	4.5521E-01
469.29	4.5272E-01
469.64	4.6425E-01
469.99	4.5598E-01
470.34	4.3531E-01
470.68	4.6975E-01
471.03	4.4555E-01
471.38	4.4084E-01
471.73	4.3069E-01
472.08	4.2361E-01
472.43	4.1017E-01
472.78	4.3495E-01
473.13	4.3175E-01
473.48	4.2110E-01
473.83	4.1014E-01
474.17	4.2655E-01
474.52	4.1374E-01
474.87	3.9895E-01
475.22	4.0603E-01
475.57	3.8473E-01
475.92	3.7093E-01
476.27	3.9427E-01
476.61	3.7776E-01
476.96	3.7305E-01
477.31	3.5158E-01
477.66	3.6407E-01
478.01	3.5708E-01
478.36	3.5713E-01
478.70	3.4980E-01
479.05	3.5206E-01
479.40	3.4404E-01
479.75	3.4505E-01
480.10	3.3695E-01
480.45	3.3216E-01
480.79	3.2999E-01
481.14	3.3575E-01
481.49	3.3038E-01
481.84	3.2063E-01
482.19	3.1378E-01
482.53	3.1993E-01
482.88	3.1404E-01
483.23	3.0990E-01
483.58	3.0602E-01
483.92	3.1319E-01
484.27	3.0028E-01
484.62	3.0068E-01
484.97	2.9449E-01
485.31	2.9073E-01
485.66	2.9588E-01
486.01	2.9664E-01
486.36	2.8622E-01
486.70	2.9105E-01
487.05	2.8995E-01
487.40	2.8665E-01
487.75	2.8159E-01
488.09	2.8111E-01
488.44	2.8458E-01
488.79	2.8249E-01
489.13	2.7818E-01
489.48	2.7842E-01
489.83	2.8118E-01
490.17	2.7285E-01
490.52	2.7205E-01
490.87	2.7321E-01
491.22	2.7639E-01
491.56	2.7559E-01
491.91	2.7790E-01
492.26	2.7550E-01
492.60	2.7455E-01
492.95	2.7650E-01
493.30	2.7595E-01
493.64	2.7261E-01
493.99	2.7710E-01
494.34	2.7278E-01
494.68	2.6905E-01
495.03	2.7411E-01
495.37	2.7044E-01
495.72	2.7467E-01
496.07	2.6821E-01
496.41	2.7135E-01
496.76	2.7112E-01
497.11	2.7209E-01
497.45	2.7185E-01
497.80	2.7281E-01
498.14	2.6946E-01
498.49	2.7356E-01
498.84	2.7130E-01
499.18	2.7222E-01
499.53	2.7156E-01
499.87	2.6721E-01
500.22	2.7456E-01
500.56	2.7126E-01
500.91	2.7241E-01
501.26	2.6984E-01
501.60	2.7173E-01
501.95	2.6944E-01
502.29	2.7071E-01
502.64	2.6879E-01
502.98	2.7321E-01
503.33	2.6874E-01
503.67	2.7132E-01
504.02	2.7005E-01
504.36	2.6903E-01
504.71	2.7061E-01
505.06	2.6869E-01
505.40	2.6696E-01
505.75	2.6805E-01
506.09	2.6756E-01
506.44	2.6711E-01
506.78	2.6870E-01
507.13	2.6968E-01
507.47	2.6671E-01
507.82	2.6636E-01
508.16	2.6680E-01
508.51	2.6605E-01
508.85	2.6289E-01
509.19	2.6379E-01
509.54	2.6560E-01
509.88	2.6521E-01
510.23	2.6068E-01
510.57	2.6134E-01
510.92	2.6332E-01
511.26	2.6297E-01
511.61	2.6323E-01
511.95	2.6095E-01
512.30	2.6066E-01
512.64	2.6159E-01
512.98	2.6052E-01
513.33	2.6142E-01
513.67	2.5940E-01
514.02	2.6083E-01
514.36	2.5744E-01
514.70	2.5848E-01
515.05	2.5718E-01
515.39	2.5780E-01
515.74	2.5836E-01
516.08	2.5936E-01
516.42	2.5588E-01
516.77	2.5800E-01
517.11	2.5553E-01
517.46	2.5628E-01
517.80	2.5575E-01
518.14	2.5505E-01
518.49	2.5464E-01
518.83	2.5373E-01
519.17	2.5755E-01
519.52	2.5522E-01
519.86	2.5566E-01
520.20	2.5345E-01
520.55	2.5458E-01
520.89	2.5346E-01
521.23	2.5462E-01
521.58	2.5598E-01
521.92	2.5473E-01
522.26	2.5838E-01
522.61	2.5410E-01
522.95	2.5604E-01
523.29	2.5283E-01
523.64	2.5395E-01
523.98	2.5599E-01
524.32	2.5610E-01
524.66	2.5627E-01
525.01	2.5644E-01
525.35	2.5811E-01
525.69	2.5772E-01
526.04	2.5975E-01
526.38	2.5409E-01
526.72	2.6038E-01
527.06	2.5734E-01
527.41	2.6075E-01
527.75	2.6134E-01
528.09	2.5856E-01
528.43	2.6308E-01
528.78	2.6117E-01
529.12	2.6566E-01
529.46	2.6390E-01
529.80	2.6481E-01
530.15	2.6459E-01
530.49	2.6573E-01
530.83	2.6820E-01
531.17	2.6737E-01
531.51	2.6927E-01
531.86	2.6746E-01
532.20	2.7082E-01
532.54	2.7012E-01
532.88	2.7201E-01
533.22	2.7445E-01
533.57	2.7795E-01
533.91	2.7351E-01
534.25	2.7522E-01
534.59	2.7559E-01
534.93	2.7495E-01
535.27	2.7561E-01
535.62	2.8084E-01
535.96	2.8002E-01
536.30	2.7934E-01
536.64	2.8088E-01
536.98	2.8474E-01
537.32	2.8193E-01
537.66	2.8484E-01
538.01	2.8438E-01
538.35	2.8755E-01
538.69	2.8640E-01
539.03	2.9039E-01
539.37	2.8843E-01
539.71	2.9047E-01
540.05	2.8919E-01
540.39	2.8969E-01
540.73	2.9089E-01
541.07	2.9026E-01
541.42	2.9022E-01
541.76	2.9192E-01
542.10	2.9383E-01
542.44	2.9430E-01
542.78	2.9710E-01
543.12	2.9165E-01
543.46	2.9801E-01
543.80	2.9334E-01
544.14	2.9520E-01
544.48	2.9353E-01
544.82	2.9820E-01
545.16	2.9706E-01
545.50	2.9671E-01
545.84	3.0157E-01
546.18	2.9806E-01
546.52	2.9923E-01
546.86	2.9800E-01
547.20	3.0355E-01
547.54	3.0558E-01
547.88	3.0093E-01
548.22	3.0135E-01
548.56	3.0451E-01
548.90	3.0437E-01
549.24	3.0459E-01
549.58	3.0537E-01
549.92	3.0550E-01
550.26	3.0661E-01
550.60	3.0590E-01
550.94	3.0453E-01
551.28	3.0900E-01
551.62	3.0507E-01
551.96	3.0754E-01
552.30	3.0910E-01
552.64	3.0884E-01
552.98	3.0904E-01
553.32	3.0970E-01
553.66	3.0970E-01
554.00	3.0628E-01
554.34	3.0890E-01
554.68	3.0867E-01
555.02	3.0742E-01
555.36	3.1131E-01
555.69	3.1281E-01
556.03	3.0844E-01
556.37	3.1134E-01
556.71	3.0905E-01
557.05	3.0932E-01
557.39	3.1145E-01
557.73	3.0886E-01
558.07	3.1144E-01
558.41	3.1132E-01
558.75	3.1262E-01
559.08	3.1088E-01
559.42	3.1022E-01
559.76	3.1237E-01
560.10	3.1315E-01
560.44	3.1349E-01
560.78	3.0961E-01
561.12	3.1398E-01
561.45	3.1428E-01
561.79	3.1257E-01
562.13	3.1178E-01
562.47	3.1236E-01
562.81	3.1424E-01
563.15	3.1458E-01
563.48	3.1502E-01
563.82	3.1095E-01
564.16	3.1383E-01
564.50	3.1657E-01
564.84	3.1245E-01
565.17	3.1339E-01
565.51	3.1166E-01
565.85	3.1588E-01
566.19	3.1188E-01
566.52	3.1604E-01
566.86	3.1377E-01
567.20	3.1801E-01
567.54	3.1658E-01
567.88	3.1681E-01
568.21	3.1742E-01
568.55	3.1649E-01
568.89	3.1743E-01
569.23	3.1747E-01
569.56	3.1662E-01
569.90	3.1674E-01
570.24	3.2062E-01
570.57	3.1781E-01
570.91	3.1987E-01
571.25	3.1834E-01
571.59	3.1910E-01
571.92	3.1996E-01
572.26	3.2023E-01
572.60	3.2233E-01
572.93	3.2053E-01
573.27	3.2607E-01
573.61	3.2590E-01
573.95	3.1832E-01
574.28	3.2611E-01
574.62	3.2584E-01
574.96	3.2866E-01
575.29	3.2766E-01
575.63	3.3155E-01
575.97	3.2921E-01
576.30	3.3436E-01
576.64	3.3071E-01
576.98	3.3321E-01
577.31	3.3475E-01
577.65	3.3773E-01
577.98	3.3192E-01
578.32	3.3890E-01
578.66	3.4153E-01
578.99	3.3997E-01
579.33	3.4257E-01
579.67	3.4154E-01
580.00	3.4284E-01
580.34	3.4297E-01
580.67	3.4592E-01
581.01	3.4473E-01
581.35	3.4710E-01
581.68	3.4800E-01
582.02	3.5013E-01
582.35	3.4831E-01
582.69	3.5091E-01
583.02	3.5641E-01
583.36	3.5612E-01
583.70	3.5548E-01
584.03	3.5609E-01
584.37	3.5564E-01
584.70	3.5896E-01
585.04	3.6171E-01
585.37	3.5999E-01
585.71	3.6434E-01
586.04	3.6430E-01
586.38	3.6179E-01
586.72	3.6954E-01
587.05	3.6442E-01
587.39	3.6796E-01
587.72	3.6567E-01
588.06	3.7111E-01
588.39	3.6580E-01
588.73	3.7343E-01
589.06	3.7159E-01
589.40	3.7479E-01
589.73	3.7728E-01
590.07	3.7712E-01
590.40	3.7941E-01
590.73	3.8182E-01
591.07	3.8023E-01
591.40	3.8352E-01
591.74	3.7740E-01
592.07	3.8384E-01
592.41	3.8553E-01
592.74	3.8613E-01
593.08	3.8270E-01
593.41	3.8550E-01
593.75	3.8761E-01
594.08	3.9154E-01
594.41	3.9033E-01
594.75	3.9251E-01
595.08	3.9020E-01
595.42	3.8678E-01
595.75	3.9018E-01
596.09	3.9388E-01
596.42	3.9119E-01
596.75	3.9246E-01
597.09	3.9840E-01
597.42	3.9107E-01
597.75	3.9980E-01
598.09	3.9845E-01
598.42	3.9622E-01
598.76	3.9600E-01
599.09	4.0017E-01
599.42	4.0149E-01
599.76	3.9941E-01
600.09	4.0163E-01
600.42	4.0536E-01
600.76	3.9634E-01
601.09	3.9955E-01
601.42	4.0902E-01
601.76	4.0582E-01
602.09	4.0415E-01
602.42	4.0300E-01
602.76	4.0304E-01
603.09	4.0374E-01
603.42	4.0688E-01
603.76	4.0394E-01
604.09	4.0622E-01
604.42	4.0580E-01
604.76	4.0368E-01
605.09	4.0890E-01
605.42	4.0548E-01
605.75	4.0770E-01
606.09	4.1021E-01
606.42	4.0934E-01
606.75	4.1242E-01
607.09	4.0948E-01
607.42	4.0874E-01
607.75	4.0988E-01
608.08	4.1136E-01
608.42	4.1369E-01
608.75	4.1090E-01
609.08	4.1454E-01
609.41	4.1280E-01
609.75	4.1056E-01
610.08	4.1469E-01
610.41	4.1459E-01
610.74	4.1453E-01
611.07	4.1540E-01
611.41	4.1068E-01
611.74	4.1487E-01
612.07	4.1371E-01
612.40	4.1104E-01
612.73	4.1514E-01
613.07	4.1997E-01
613.40	4.1387E-01
613.73	4.1365E-01
614.06	4.1824E-01
614.39	4.1537E-01
614.72	4.2060E-01
615.06	4.1843E-01
615.39	4.2245E-01
615.72	4.1830E-01
616.05	4.2337E-01
616.38	4.2394E-01
616.71	4.2167E-01
617.05	4.1868E-01
617.38	4.2369E-01
617.71	4.2301E-01
618.04	4.2267E-01
618.37	4.1845E-01
618.70	4.2251E-01
619.03	4.2275E-01
619.36	4.1587E-01
619.69	4.2442E-01
620.03	4.2122E-01
620.36	4.2176E-01
620.69	4.2101E-01
621.02	4.1967E-01
621.35	4.2045E-01
621.68	4.1835E-01
622.01	4.2160E-01
622.34	4.2038E-01
622.67	4.2073E-01
623.00	4.2039E-01
623.33	4.1926E-01
623.66	4.2140E-01
623.99	4.2288E-01
624.32	4.1630E-01
624.65	4.1926E-01
624.99	4.1944E-01
625.32	4.2399E-01
625.65	4.2115E-01
625.98	4.1704E-01
626.31	4.2003E-01
626.64	4.2366E-01
626.97	4.2193E-01
627.30	4.1843E-01
627.63	4.1755E-01
627.96	4.1658E-01
628.29	4.1793E-01
628.62	4.2106E-01
628.95	4.2036E-01
629.28	4.1645E-01
629.61	4.2660E-01
629.94	4.2268E-01
630.26	4.2464E-01
630.59	4.2517E-01
630.92	4.2342E-01
631.25	4.2307E-01
631.58	4.3092E-01
631.91	4.2530E-01
632.24	4.3031E-01
632.57	4.2904E-01
632.90	4.3045E-01
633.23	4.2820E-01
633.56	4.3162E-01
633.89	4.3108E-01
634.22	4.3296E-01
634.55	4.3359E-01
634.88	4.3704E-01
635.20	4.3813E-01
635.53	4.4268E-01
635.86	4.3913E-01
636.19	4.4595E-01
636.52	4.4628E-01
636.85	4.4640E-01
637.18	4.5056E-01
637.51	4.4958E-01
637.83	4.5322E-01
638.16	4.5148E-01
638.49	4.5944E-01
638.82	4.5348E-01
639.15	4.6146E-01
639.48	4.6155E-01
639.81	4.6865E-01
640.13	4.6341E-01
640.46	4.7192E-01
640.79	4.6854E-01
641.12	4.7443E-01
641.45	4.7053E-01
641.77	4.7086E-01
642.10	4.8269E-01
642.43	4.8429E-01
642.76	4.8818E-01
643.09	4.8327E-01
643.41	4.8749E-01
643.74	4.8705E-01
644.07	4.9024E-01
644.40	4.8946E-01
644.73	4.9711E-01
645.05	4.9758E-01
645.38	4.9630E-01
645.71	5.0412E-01
646.04	5.0297E-01
646.36	5.0220E-01
646.69	5.1151E-01
647.02	5.1345E-01
647.35	5.0849E-01
647.67	5.1599E-01
648.00	5.1385E-01
648.33	5.1809E-01
648.66	5.1598E-01
648.98	5.2268E-01
649.31	5.2017E-01
649.64	5.2229E-01
649.96	5.2624E-01
650.29	5.3406E-01
650.62	5.3031E-01
650.94	5.3082E-01
651.27	5.3323E-01
651.60	5.3082E-01
651.92	5.4114E-01
652.25	5.4473E-01
652.58	5.4284E-01
652.90	5.4215E-01
653.23	5.4310E-01
653.56	5.4630E-01
653.88	5.5038E-01
654.21	5.4873E-01
654.54	5.5270E-01
654.86	5.5871E-01
655.19	5.5526E-01
655.52	5.6117E-01
655.84	5.5520E-01
656.17	5.6279E-01
656.49	5.6270E-01
656.82	5.5968E-01
657.15	5.6622E-01
657.47	5.6809E-01
657.80	5.7004E-01
658.13	5.6885E-01
658.45	5.7141E-01
658.78	5.7242E-01
659.10	5.7719E-01
659.43	5.7433E-01
659.75	5.7714E-01
660.08	5.7500E-01
660.41	5.8655E-01
660.73	5.8290E-01
661.06	5.8288E-01
661.38	5.8600E-01
661.71	5.8995E-01
662.03	5.8661E-01
662.36	5.9469E-01
662.68	5.9068E-01
663.01	5.8508E-01
663.33	5.9385E-01
663.66	5.9639E-01
663.98	5.9533E-01
664.31	5.9606E-01
664.63	6.0901E-01
664.96	5.9450E-01
665.28	6.0167E-01
665.61	6.0358E-01
665.93	6.0427E-01
666.26	6.0351E-01
666.58	6.0841E-01
666.91	6.0980E-01
667.23	6.1580E-01
667.56	6.0976E-01
667.88	6.1317E-01
668.21	6.1753E-01
668.53	6.1443E-01
668.86	6.2202E-01
669.18	6.1732E-01
669.50	6.2588E-01
669.83	6.2045E-01
670.15	6.2457E-01
670.48	6.2612E-01
670.80	6.2516E-01
671.13	6.2550E-01
671.45	6.2930E-01
671.77	6.2958E-01
672.10	6.2663E-01
672.42	6.4199E-01
672.75	6.3503E-01
673.07	6.3956E-01
673.39	6.3402E-01
673.72	6.3830E-01
674.04	6.4220E-01
674.37	6.4207E-01
674.69	6.4089E-01
675.01	6.4491E-01
675.34	6.5208E-01
675.66	6.4985E-01
675.98	6.4494E-01
676.31	6.5443E-01
676.63	6.5167E-01
676.95	6.5345E-01
677.28	6.6092E-01
677.60	6.6197E-01
677.92	6.5628E-01
678.25	6.6453E-01
678.57	6.6491E-01
678.89	6.6139E-01
679.22	6.7143E-01
679.54	6.6840E-01
679.86	6.7023E-01
680.18	6.7627E-01
680.51	6.6822E-01
680.83	6.8464E-01
681.15	6.7599E-01
681.48	6.8013E-01
681.80	6.7974E-01
682.12	6.7729E-01
682.44	6.8990E-01
682.77	6.9232E-01
683.09	6.9596E-01
683.41	6.9016E-01
683.73	6.9910E-01
684.06	6.9570E-01
684.38	6.9841E-01
684.70	7.0148E-01
685.02	7.0390E-01
685.34	7.0928E-01
685.67	7.0581E-01
685.99	7.2140E-01
686.31	7.1047E-01
686.63	7.2023E-01
686.96	7.2363E-01
687.28	7.2819E-01
687.60	7.1556E-01
687.92	7.2338E-01
688.24	7.3210E-01
688.56	7.3908E-01
688.89	7.3204E-01
689.21	7.4110E-01
689.53	7.3694E-01
689.85	7.4630E-01
690.17	7.4099E-01
690.49	7.5456E-01
690.82	7.5426E-01
691.14	7.5346E-01
691.46	7.5681E-01
691.78	7.6094E-01
692.10	7.5741E-01
692.42	7.6795E-01
692.74	7.7306E-01
693.06	7.7077E-01
693.39	7.8149E-01
693.71	7.8553E-01
694.03	7.8652E-01
694.35	7.9048E-01
694.67	7.9096E-01
694.99	8.0427E-01
695.31	7.9802E-01
695.63	8.0246E-01
695.95	8.0890E-01
696.27	8.0929E-01
696.59	8.1116E-01
696.91	8.1996E-01
697.23	8.2528E-01
697.56	8.2595E-01
697.88	8.2479E-01
698.20	8.3037E-01
698.52	8.3550E-01
698.84	8.4271E-01
699.16	8.4553E-01
699.48	8.4276E-01
699.80	8.5035E-01
700.12	8.6107E-01
700.44	8.6091E-01
700.76	8.6531E-01
701.08	8.7455E-01
701.40	8.7167E-01
701.72	8.7737E-01
702.04	8.7912E-01
702.36	8.8828E-01
702.68	8.9484E-01
703.00	8.9741E-01
703.32	9.0220E-01
703.64	9.0905E-01
703.96	8.9993E-01
704.28	9.0445E-01
704.60	9.1302E-01
704.91	9.2200E-01
705.23	9.1989E-01
705.55	9.3542E-01
705.87	9.3228E-01
706.19	9.3147E-01
706.51	9.3844E-01
706.83	9.4258E-01
707.15	9.6100E-01
707.47	9.5263E-01
707.79	9.6750E-01
708.11	9.6457E-01
708.43	9.7128E-01
708.74	9.7820E-01
709.06	9.8836E-01
709.38	9.8632E-01
709.70	9.8801E-01
710.02	9.9787E-01
710.34	9.9210E-01
710.66	1.0094E00
710.98	1.0154E00
711.29	1.0184E00
711.61	1.0307E00
711.93	1.0313E00
712.25	1.0271E00
712.57	1.0405E00
712.89	1.0505E00
713.20	1.0488E00
713.52	1.0520E00
713.84	1.0718E00
714.16	1.0625E00
714.48	1.0618E00
714.80	1.0826E00
715.11	1.0818E00
715.43	1.0899E00
715.75	1.0891E00
716.07	1.1179E00
716.39	1.0888E00
716.70	1.1055E00
717.02	1.0987E00
717.34	1.1242E00
717.66	1.1219E00
717.97	1.1243E00
718.29	1.1384E00
718.61	1.1431E00
718.93	1.1589E00
719.24	1.1567E00
719.56	1.1638E00
719.88	1.1774E00
720.20	1.1868E00
720.51	1.1960E00
720.83	1.1897E00
721.15	1.2182E00
721.46	1.2112E00
721.78	1.2245E00
722.10	1.2394E00
722.42	1.2400E00
722.73	1.2518E00
723.05	1.2507E00
723.37	1.2622E00
723.68	1.2913E00
724.00	1.2743E00
724.32	1.2945E00
724.63	1.2826E00
724.95	1.2942E00
725.27	1.2990E00
725.58	1.3050E00
725.90	1.2990E00
726.22	1.3203E00
726.53	1.3107E00
726.85	1.3188E00
727.16	1.3284E00
727.48	1.3324E00
727.80	1.3369E00
728.11	1.3465E00
728.43	1.3338E00
728.74	1.3346E00
729.06	1.3632E00
729.38	1.3607E00
729.69	1.3621E00
730.01	1.3720E00
730.32	1.3836E00
730.64	1.3812E00
730.96	1.3646E00
731.27	1.4016E00
731.59	1.3799E00
731.90	1.3784E00
732.22	1.3900E00
732.53	1.4075E00
732.85	1.4224E00
733.16	1.4102E00
733.48	1.4042E00
733.80	1.4009E00
734.11	1.4281E00
734.43	1.4514E00
734.74	1.4372E00
735.06	1.4511E00
735.37	1.4482E00
735.69	1.4534E00
736.00	1.4611E00
736.32	1.4590E00
736.63	1.4747E00
736.95	1.4843E00
737.26	1.5019E00
737.58	1.4903E00
737.89	1.4975E00
738.21	1.4889E00
738.52	1.5010E00
738.83	1.5215E00
739.15	1.5064E00
739.46	1.5324E00
739.78	1.5208E00
740.09	1.5300E00
740.41	1.5316E00
740.72	1.5300E00
741.04	1.5320E00
741.35	1.5417E00
741.66	1.5608E00
741.98	1.5499E00
742.29	1.5565E00
742.61	1.5698E00
742.92	1.5476E00
743.23	1.5622E00
743.55	1.5741E00
743.86	1.5633E00
744.18	1.5719E00
744.49	1.5595E00
744.80	1.5549E00
745.12	1.5598E00
745.43	1.5777E00
745.74	1.5750E00
746.06	1.5647E00
746.37	1.5651E00
746.68	1.5689E00
747.00	1.5739E00
747.31	1.5703E00
747.62	1.5594E00
747.94	1.5691E00
748.25	1.5667E00
748.56	1.5718E00
748.88	1.5628E00
749.19	1.5778E00
749.50	1.5645E00
749.82	1.5764E00
750.13	1.5708E00
750.44	1.5705E00
750.75	1.5581E00
751.07	1.5675E00
751.38	1.5897E00
751.69	1.5690E00
752.01	1.5923E00
752.32	1.5849E00
752.63	1.5701E00
752.94	1.5749E00
753.26	1.5776E00
753.57	1.5779E00
753.88	1.5950E00
754.19	1.5816E00
754.51	1.5957E00
754.82	1.5842E00
755.13	1.6155E00
755.44	1.5991E00
755.75	1.6064E00
756.07	1.6209E00
756.38	1.6293E00
756.69	1.6223E00
757.00	1.6449E00
757.31	1.6508E00
757.63	1.6531E00
757.94	1.6611E00
758.25	1.6786E00
758.56	1.6493E00
758.87	1.6872E00
759.18	1.6897E00
759.50	1.6826E00
759.81	1.6896E00
760.12	1.7047E00
760.43	1.7198E00
760.74	1.7280E00
761.05	1.7486E00
761.36	1.7417E00
761.67	1.7667E00
761.99	1.7667E00
762.30	1.7481E00
762.61	1.7764E00
762.92	1.7998E00
763.23	1.8117E00
763.54	1.8085E00
763.85	1.8449E00
764.16	1.8504E00
764.47	1.8671E00
764.78	1.8691E00
765.10	1.8880E00
765.41	1.9055E00
765.72	1.8887E00
766.03	1.9443E00
766.34	1.9475E00
766.65	1.9589E00
766.96	1.9929E00
767.27	1.9953E00
767.58	1.9863E00
767.89	2.0072E00
768.20	2.0555E00
768.51	2.0604E00
768.82	2.0575E00
769.13	2.0659E00
769.44	2.1192E00
769.75	2.1136E00
770.06	2.1157E00
770.37	2.1252E00
770.68	2.1546E00
770.99	2.1917E00
771.30	2.2105E00
771.61	2.2578E00
771.92	2.2382E00
772.23	2.2518E00
772.54	2.2835E00
772.85	2.2865E00
773.16	2.3224E00
773.47	2.3644E00
773.78	2.3643E00
774.09	2.3731E00
774.39	2.3952E00
774.70	2.3945E00
775.01	2.4614E00
775.32	2.4707E00
775.63	2.4800E00
775.94	2.4996E00
776.25	2.4887E00
776.56	2.5456E00
776.87	2.5936E00
777.18	2.5897E00
777.48	2.6314E00
777.79	2.6537E00
778.10	2.6782E00
778.41	2.7033E00
778.72	2.7123E00
779.03	2.7093E00
779.34	2.7696E00
779.65	2.7745E00
779.95	2.7798E00
780.26	2.8330E00
780.57	2.8306E00
780.88	2.8398E00
781.19	2.8907E00
781.50	2.8784E00
781.80	2.9374E00
782.11	2.9613E00
782.42	2.9715E00
782.73	2.9799E00
783.04	3.0594E00
783.34	3.0740E00
783.65	3.1134E00
783.96	3.0768E00
784.27	3.1048E00
784.57	3.1475E00
784.88	3.1662E00
785.19	3.2139E00
785.50	3.2161E00
785.81	3.2612E00
786.11	3.2345E00
786.42	3.3096E00
786.73	3.3801E00
787.04	3.3704E00
787.34	3.3788E00
787.65	3.3840E00
787.96	3.4963E00
788.26	3.5279E00
788.57	3.5210E00
788.88	3.4907E00
789.19	3.5464E00
789.49	3.5705E00
789.80	3.6607E00
790.11	3.6848E00
790.41	3.6820E00
790.72	3.7380E00
791.03	3.7462E00
791.33	3.7802E00
791.64	3.7718E00
791.95	3.8047E00
792.25	3.8850E00
792.56	3.9480E00
792.87	3.9520E00
793.17	3.9494E00
793.48	3.9347E00
793.79	4.0379E00
794.09	4.0418E00
794.40	4.0127E00
794.70	4.0091E00
795.01	4.1364E00
795.32	4.1167E00
795.62	4.2004E00
795.93	4.1987E00
796.23	4.2364E00
796.54	4.2621E00
796.85	4.2532E00
797.15	4.2987E00
797.46	4.3363E00
797.76	4.4226E00
798.07	4.4501E00
798.37	4.4678E00
798.68	4.5464E00
798.99	4.6058E00
799.29	4.5948E00
799.60	4.6992E00
799.90	4.6811E00
800.21	4.7051E00
800.51	4.7297E00
800.82	4.7978E00
801.12	4.8368E00
801.43	4.9253E00
801.73	4.8928E00
802.04	4.9042E00
802.34	4.9029E00
802.65	5.0325E00
802.95	5.1327E00
803.26	5.0649E00
803.56	5.0362E00
803.87	5.1211E00
804.17	5.0987E00
804.48	5.2556E00
804.78	5.1943E00
805.09	5.2669E00
805.39	5.2605E00
805.70	5.3472E00
806.00	5.3453E00
806.30	5.3390E00
806.61	5.4518E00
806.91	5.4659E00
807.22	5.4772E00
807.52	5.6456E00
807.83	5.5510E00
808.13	5.5894E00
808.43	5.5997E00
808.74	5.6862E00
809.04	5.7510E00
809.35	5.6839E00
809.65	5.8635E00
809.95	5.9646E00
810.26	5.9937E00
810.56	5.8963E00
810.86	6.0637E00
811.17	6.1201E00
811.47	6.1684E00
811.77	6.0645E00
812.08	6.2161E00
812.38	6.2730E00
812.69	6.1809E00
812.99	6.2669E00
813.29	6.2620E00
813.59	6.3939E00
813.90	6.4497E00
814.20	6.4873E00
814.50	6.6248E00
814.81	6.5312E00
815.11	6.6786E00
815.41	6.8815E00
815.72	6.7627E00
816.02	6.7789E00
816.32	6.8427E00
816.62	6.7542E00
816.93	6.8708E00
817.23	7.0065E00
817.53	6.9091E00
817.84	7.1761E00
818.14	7.0945E00
818.44	7.0763E00
818.74	7.1246E00
819.04	7.4649E00
819.35	7.3853E00
819.65	7.2956E00
819.95	7.6236E00
820.25	7.6200E00
820.56	7.5802E00
820.86	7.5696E00
821.16	7.7289E00
821.46	7.7150E00
821.76	7.5373E00
822.07	7.6319E00
822.37	7.9217E00
822.67	7.9215E00
822.97	8.1093E00
823.27	8.1147E00
823.57	8.0272E00
823.88	8.1031E00
824.18	8.2079E00
824.48	8.0481E00
824.78	8.3572E00
825.08	8.3748E00
825.38	8.3140E00
825.69	8.3439E00
825.99	8.4768E00
826.29	8.3700E00
826.59	8.6389E00
826.89	8.7730E00
827.19	8.6211E00
827.49	8.9476E00
827.79	8.8215E00
828.09	8.9941E00
828.39	9.0438E00
828.70	8.8378E00
829.00	9.1059E00
829.30	9.2686E00
829.60	9.1439E00
829.90	9.3954E00
830.20	9.4086E00
830.50	9.4716E00
830.80	9.5159E00
831.10	9.6468E00
831.40	9.6213E00
831.70	9.6430E00
832.00	9.4724E00
832.30	9.9733E00
832.60	9.6802E00
832.90	1.0020E01
833.20	1.0055E01
833.50	9.9722E00
833.80	1.0098E01
834.10	1.0379E01
834.40	1.0157E01
834.70	1.0223E01
835.00	1.0532E01
835.30	1.0519E01
835.60	1.0617E01
835.90	1.0664E01
836.20	1.0723E01
836.50	1.0788E01
836.80	1.0933E01
837.10	1.0786E01
837.40	1.0636E01
837.70	1.1223E01
838.00	1.1224E01
838.30	1.1343E01
838.60	1.1336E01
838.90	1.1172E01
839.19	1.1378E01
839.49	1.1748E01
839.79	1.1556E01
840.09	1.1634E01
840.39	1.1594E01
840.69	1.1652E01
840.99	1.2213E01
841.29	1.1696E01
841.59	1.2060E01
841.88	1.2377E01
842.18	1.2108E01
842.48	1.2357E01
842.78	1.2452E01
843.08	1.2820E01
843.38	1.2785E01
843.68	1.3126E01
843.97	1.2877E01
844.27	1.2884E01
844.57	1.2799E01
844.87	1.3063E01
845.17	1.3221E01
845.47	1.3332E01
845.76	1.3336E01
846.06	1.3601E01
846.36	1.3651E01
846.66	1.3455E01
846.96	1.3494E01
847.25	1.3981E01
847.55	1.3999E01
847.85	1.4315E01
848.15	1.4151E01
848.44	1.4147E01
848.74	1.4593E01
849.04	1.4764E01
849.34	1.4881E01
849.63	1.4604E01
849.93	1.4965E01
850.23	1.5238E01
850.53	1.5198E01
850.82	1.5263E01
851.12	1.5718E01
851.42	1.5506E01
851.71	1.5291E01
852.01	1.5903E01
852.31	1.5928E01
852.61	1.5810E01
852.90	1.6183E01
853.20	1.6359E01
853.50	1.6221E01
853.79	1.6934E01
854.09	1.6478E01
854.39	1.6848E01
854.68	1.7144E01
854.98	1.7037E01
855.28	1.6939E01
855.57	1.7515E01
855.87	1.7640E01
856.17	1.7643E01
856.46	1.8046E01
856.76	1.7950E01
857.05	1.8051E01
857.35	1.8042E01
857.65	1.8234E01
857.94	1.8335E01
858.24	1.8064E01
858.53	1.8871E01
858.83	1.9557E01
859.13	1.9354E01
859.42	1.9158E01
859.72	1.9489E01
860.01	1.9722E01
860.31	1.9922E01
860.60	2.0240E01
860.90	1.9622E01
861.20	2.0737E01
861.49	2.0255E01
861.79	2.0612E01
862.08	2.0795E01
862.38	2.1108E01
862.67	2.2220E01
862.97	2.1037E01
863.26	2.1247E01
863.56	2.2054E01
863.85	2.2006E01
864.15	2.2494E01
864.44	2.1536E01
864.74	2.2478E01
865.03	2.3441E01
865.33	2.2858E01
865.62	2.3825E01
865.92	2.3501E01
866.21	2.4306E01
866.51	2.4353E01
866.80	2.3959E01
867.10	2.4431E01
867.39	2.5088E01
867.69	2.2632E01
867.98	2.1797E01
868.27	2.2761E01
868.57	2.1869E01
868.86	2.3061E01
869.16	2.2686E01
869.45	2.3241E01
869.75	2.3515E01
870.04	2.3054E01
870.33	2.4090E01
870.63	2.3977E01
870.92	2.3244E01
871.22	2.4641E01
871.51	2.5023E01
871.80	2.4640E01
872.10	2.4640E01
>>>>>End Processed Spectral Data<<<<<
