SpectraSuite Data File
++++++++++++++++++++++++++++++++++++
Date: Sat May 16 09:17:52 PDT 2015
User: schluterlab
Dark Spectrum Present: Yes
Reference Spectrum Present: No
Number of Sampled Component Spectra: 1
Spectrometers: USB2E3373
Integration Time (usec): 2300000 (USB2E3373)
Spectra Averaged: 3 (USB2E3373)
Boxcar Smoothing: 0 (USB2E3373)
Correct for Electrical Dark: No (USB2E3373)
Strobe/Lamp Enabled: No (USB2E3373)
Correct for Detector Non-linearity: No (USB2E3373)
Correct for Stray Light: No (USB2E3373)
Number of Pixels in Processed Spectrum: 2048
>>>>>Begin Processed Spectral Data<<<<<
178.53	0.0000E00
178.91	0.0000E00
179.29	0.0000E00
179.67	0.0000E00
180.04	0.0000E00
180.42	0.0000E00
180.80	0.0000E00
181.18	0.0000E00
181.56	0.0000E00
181.94	0.0000E00
182.31	0.0000E00
182.69	0.0000E00
183.07	0.0000E00
183.45	0.0000E00
183.83	0.0000E00
184.20	0.0000E00
184.58	0.0000E00
184.96	0.0000E00
185.34	0.0000E00
185.72	0.0000E00
186.09	0.0000E00
186.47	0.0000E00
186.85	0.0000E00
187.23	0.0000E00
187.61	0.0000E00
187.98	0.0000E00
188.36	0.0000E00
188.74	0.0000E00
189.12	0.0000E00
189.49	0.0000E00
189.87	0.0000E00
190.25	0.0000E00
190.63	0.0000E00
191.00	0.0000E00
191.38	0.0000E00
191.76	0.0000E00
192.14	0.0000E00
192.51	0.0000E00
192.89	0.0000E00
193.27	0.0000E00
193.65	0.0000E00
194.02	0.0000E00
194.40	0.0000E00
194.78	0.0000E00
195.15	0.0000E00
195.53	0.0000E00
195.91	0.0000E00
196.29	0.0000E00
196.66	0.0000E00
197.04	0.0000E00
197.42	0.0000E00
197.79	0.0000E00
198.17	0.0000E00
198.55	0.0000E00
198.92	0.0000E00
199.30	0.0000E00
199.68	0.0000E00
200.05	0.0000E00
200.43	0.0000E00
200.81	0.0000E00
201.18	0.0000E00
201.56	0.0000E00
201.94	0.0000E00
202.31	0.0000E00
202.69	0.0000E00
203.07	0.0000E00
203.44	0.0000E00
203.82	0.0000E00
204.19	0.0000E00
204.57	0.0000E00
204.95	0.0000E00
205.32	0.0000E00
205.70	0.0000E00
206.08	0.0000E00
206.45	0.0000E00
206.83	0.0000E00
207.20	0.0000E00
207.58	0.0000E00
207.96	0.0000E00
208.33	0.0000E00
208.71	0.0000E00
209.08	0.0000E00
209.46	0.0000E00
209.84	0.0000E00
210.21	0.0000E00
210.59	0.0000E00
210.96	0.0000E00
211.34	0.0000E00
211.71	0.0000E00
212.09	0.0000E00
212.46	0.0000E00
212.84	0.0000E00
213.22	-0.0000E00
213.59	0.0000E00
213.97	0.0000E00
214.34	0.0000E00
214.72	0.0000E00
215.09	0.0000E00
215.47	0.0000E00
215.84	0.0000E00
216.22	0.0000E00
216.59	0.0000E00
216.97	0.0000E00
217.34	0.0000E00
217.72	0.0000E00
218.09	0.0000E00
218.47	0.0000E00
218.84	-0.0000E00
219.22	0.0000E00
219.59	0.0000E00
219.97	0.0000E00
220.34	0.0000E00
220.72	0.0000E00
221.09	0.0000E00
221.47	0.0000E00
221.84	0.0000E00
222.22	0.0000E00
222.59	0.0000E00
222.97	0.0000E00
223.34	0.0000E00
223.72	0.0000E00
224.09	0.0000E00
224.46	0.0000E00
224.84	0.0000E00
225.21	0.0000E00
225.59	0.0000E00
225.96	0.0000E00
226.34	0.0000E00
226.71	0.0000E00
227.08	0.0000E00
227.46	0.0000E00
227.83	0.0000E00
228.21	0.0000E00
228.58	0.0000E00
228.95	0.0000E00
229.33	0.0000E00
229.70	0.0000E00
230.08	0.0000E00
230.45	0.0000E00
230.82	0.0000E00
231.20	0.0000E00
231.57	0.0000E00
231.95	0.0000E00
232.32	0.0000E00
232.69	0.0000E00
233.07	0.0000E00
233.44	0.0000E00
233.81	0.0000E00
234.19	0.0000E00
234.56	0.0000E00
234.93	0.0000E00
235.31	0.0000E00
235.68	0.0000E00
236.05	0.0000E00
236.43	0.0000E00
236.80	0.0000E00
237.17	0.0000E00
237.55	0.0000E00
237.92	0.0000E00
238.29	0.0000E00
238.67	0.0000E00
239.04	0.0000E00
239.41	0.0000E00
239.79	0.0000E00
240.16	0.0000E00
240.53	0.0000E00
240.91	0.0000E00
241.28	0.0000E00
241.65	0.0000E00
242.02	0.0000E00
242.40	0.0000E00
242.77	0.0000E00
243.14	0.0000E00
243.51	0.0000E00
243.89	0.0000E00
244.26	0.0000E00
244.63	0.0000E00
245.00	0.0000E00
245.38	0.0000E00
245.75	0.0000E00
246.12	0.0000E00
246.49	0.0000E00
246.87	0.0000E00
247.24	0.0000E00
247.61	0.0000E00
247.98	0.0000E00
248.36	0.0000E00
248.73	0.0000E00
249.10	0.0000E00
249.47	0.0000E00
249.84	0.0000E00
250.22	0.0000E00
250.59	0.0000E00
250.96	0.0000E00
251.33	0.0000E00
251.70	0.0000E00
252.08	0.0000E00
252.45	0.0000E00
252.82	0.0000E00
253.19	0.0000E00
253.56	0.0000E00
253.94	0.0000E00
254.31	0.0000E00
254.68	0.0000E00
255.05	0.0000E00
255.42	0.0000E00
255.79	0.0000E00
256.16	0.0000E00
256.54	0.0000E00
256.91	0.0000E00
257.28	0.0000E00
257.65	0.0000E00
258.02	0.0000E00
258.39	0.0000E00
258.76	0.0000E00
259.14	0.0000E00
259.51	0.0000E00
259.88	0.0000E00
260.25	0.0000E00
260.62	0.0000E00
260.99	0.0000E00
261.36	0.0000E00
261.73	0.0000E00
262.10	0.0000E00
262.47	0.0000E00
262.85	0.0000E00
263.22	0.0000E00
263.59	0.0000E00
263.96	0.0000E00
264.33	0.0000E00
264.70	0.0000E00
265.07	0.0000E00
265.44	0.0000E00
265.81	0.0000E00
266.18	0.0000E00
266.55	0.0000E00
266.92	0.0000E00
267.29	0.0000E00
267.66	0.0000E00
268.03	0.0000E00
268.40	0.0000E00
268.77	0.0000E00
269.14	0.0000E00
269.51	0.0000E00
269.88	0.0000E00
270.25	0.0000E00
270.62	0.0000E00
270.99	0.0000E00
271.36	0.0000E00
271.73	0.0000E00
272.10	0.0000E00
272.47	0.0000E00
272.84	0.0000E00
273.21	0.0000E00
273.58	0.0000E00
273.95	0.0000E00
274.32	0.0000E00
274.69	0.0000E00
275.06	0.0000E00
275.43	0.0000E00
275.80	0.0000E00
276.17	0.0000E00
276.54	0.0000E00
276.91	0.0000E00
277.28	0.0000E00
277.65	0.0000E00
278.02	0.0000E00
278.39	0.0000E00
278.76	0.0000E00
279.13	0.0000E00
279.50	0.0000E00
279.87	0.0000E00
280.23	0.0000E00
280.60	0.0000E00
280.97	0.0000E00
281.34	0.0000E00
281.71	0.0000E00
282.08	0.0000E00
282.45	0.0000E00
282.82	0.0000E00
283.19	0.0000E00
283.56	0.0000E00
283.92	0.0000E00
284.29	0.0000E00
284.66	0.0000E00
285.03	0.0000E00
285.40	0.0000E00
285.77	0.0000E00
286.14	0.0000E00
286.51	0.0000E00
286.87	0.0000E00
287.24	0.0000E00
287.61	0.0000E00
287.98	0.0000E00
288.35	0.0000E00
288.72	0.0000E00
289.08	0.0000E00
289.45	0.0000E00
289.82	0.0000E00
290.19	0.0000E00
290.56	0.0000E00
290.93	0.0000E00
291.29	0.0000E00
291.66	0.0000E00
292.03	0.0000E00
292.40	0.0000E00
292.77	0.0000E00
293.13	0.0000E00
293.50	0.0000E00
293.87	0.0000E00
294.24	0.0000E00
294.60	0.0000E00
294.97	0.0000E00
295.34	0.0000E00
295.71	0.0000E00
296.08	0.0000E00
296.44	0.0000E00
296.81	0.0000E00
297.18	0.0000E00
297.55	0.0000E00
297.91	0.0000E00
298.28	0.0000E00
298.65	0.0000E00
299.02	0.0000E00
299.38	0.0000E00
299.75	0.0000E00
300.12	2.6092E00
300.48	5.1914E-01
300.85	8.2261E-01
301.22	7.5395E-01
301.59	7.6640E-01
301.95	1.0732E00
302.32	1.3272E00
302.69	4.4052E-01
303.05	4.4919E-01
303.42	7.8632E-01
303.79	6.4217E-01
304.15	1.2151E00
304.52	1.0426E00
304.89	1.1361E00
305.25	7.2697E-01
305.62	7.2962E-01
305.99	2.5471E00
306.35	7.3659E-01
306.72	9.9778E-01
307.09	8.4854E-01
307.45	7.4656E-01
307.82	8.5530E-01
308.19	7.9843E-01
308.55	9.1731E-01
308.92	1.8858E00
309.29	1.2839E00
309.65	8.7712E-01
310.02	8.2873E-01
310.38	6.1751E-01
310.75	1.9647E00
311.12	6.7137E-01
311.48	1.3090E00
311.85	1.0478E00
312.22	6.2939E-01
312.58	8.0008E-01
312.95	1.2486E00
313.31	1.3045E00
313.68	1.0188E00
314.05	1.3322E00
314.41	1.9208E00
314.78	9.3131E-01
315.14	1.1630E00
315.51	2.3335E00
315.87	1.1775E00
316.24	1.1876E00
316.61	2.1169E00
316.97	1.8152E00
317.34	1.3504E00
317.70	2.4396E00
318.07	1.8386E00
318.43	1.4278E00
318.80	2.2029E00
319.16	1.8880E00
319.53	2.5416E00
319.89	1.4224E00
320.26	1.2104E00
320.62	2.7908E00
320.99	1.0368E00
321.35	1.6565E00
321.72	1.3346E00
322.08	1.5544E00
322.45	1.0722E00
322.81	2.9330E00
323.18	1.8003E00
323.54	1.2627E00
323.91	1.3126E00
324.27	1.0074E00
324.64	1.9361E00
325.00	1.6491E00
325.37	1.0532E00
325.73	1.6696E00
326.10	1.5038E00
326.46	1.3700E00
326.83	3.1477E00
327.19	2.3318E00
327.56	1.4326E00
327.92	1.9403E00
328.29	1.9468E00
328.65	1.4969E00
329.01	1.4987E00
329.38	1.6702E00
329.74	1.6728E00
330.11	1.1282E00
330.47	1.7376E00
330.84	2.2585E00
331.20	2.6579E00
331.56	1.9628E00
331.93	1.8023E00
332.29	2.5002E00
332.66	9.9754E-01
333.02	2.1316E00
333.38	1.2775E00
333.75	1.3935E00
334.11	1.7113E00
334.48	1.3876E00
334.84	1.5292E00
335.20	1.5251E00
335.57	1.6335E00
335.93	4.0013E00
336.29	3.3815E00
336.66	1.4643E00
337.02	2.7421E00
337.38	1.1245E00
337.75	1.3291E00
338.11	1.5670E00
338.47	1.1554E00
338.84	1.2933E00
339.20	1.2979E00
339.56	1.4273E00
339.93	1.3463E00
340.29	1.7156E00
340.65	1.1512E00
341.02	2.1489E00
341.38	1.6222E00
341.74	2.2874E00
342.11	1.5895E00
342.47	1.2908E00
342.83	1.7374E00
343.20	1.2440E00
343.56	1.1361E00
343.92	1.6044E00
344.28	1.4302E00
344.65	1.9643E00
345.01	1.2398E00
345.37	2.0845E00
345.73	1.3669E00
346.10	1.1088E00
346.46	1.3543E00
346.82	1.5756E00
347.19	1.6381E00
347.55	1.3916E00
347.91	1.4051E00
348.27	1.5368E00
348.63	1.7497E00
349.00	1.1392E00
349.36	1.0799E00
349.72	1.2056E00
350.08	1.8603E00
350.45	1.4776E00
350.81	1.5249E00
351.17	1.0698E00
351.53	1.3898E00
351.89	1.5057E00
352.26	1.2499E00
352.62	1.4082E00
352.98	1.1590E00
353.34	1.0214E00
353.70	1.2985E00
354.07	1.0857E00
354.43	1.0886E00
354.79	1.2064E00
355.15	9.2560E-01
355.51	1.3831E00
355.87	1.2985E00
356.24	9.6800E-01
356.60	1.3693E00
356.96	1.1857E00
357.32	1.2164E00
357.68	1.1527E00
358.04	1.1594E00
358.40	1.0654E00
358.77	1.2444E00
359.13	1.1598E00
359.49	1.4672E00
359.85	1.3817E00
360.21	1.0348E00
360.57	1.0100E00
360.93	1.1070E00
361.29	1.0808E00
361.66	1.2330E00
362.02	9.8929E-01
362.38	1.1150E00
362.74	1.0581E00
363.10	1.1767E00
363.46	1.2119E00
363.82	1.2700E00
364.18	1.1063E00
364.54	1.1560E00
364.90	9.3267E-01
365.26	9.8074E-01
365.62	1.0921E00
365.98	1.0307E00
366.35	1.0290E00
366.71	8.3106E-01
367.07	1.3872E00
367.43	1.2121E00
367.79	1.0505E00
368.15	1.0235E00
368.51	1.1493E00
368.87	1.0599E00
369.23	1.2434E00
369.59	9.8476E-01
369.95	1.3936E00
370.31	1.1063E00
370.67	1.1607E00
371.03	1.0029E00
371.39	9.8023E-01
371.75	1.2464E00
372.11	1.1071E00
372.47	9.6678E-01
372.83	1.1149E00
373.19	1.1658E00
373.55	1.0494E00
373.91	1.1604E00
374.27	8.9129E-01
374.63	1.0217E00
374.99	9.6068E-01
375.35	1.0624E00
375.71	1.0388E00
376.07	9.6840E-01
376.42	1.0681E00
376.78	9.8516E-01
377.14	9.3220E-01
377.50	1.0537E00
377.86	9.8446E-01
378.22	1.1528E00
378.58	9.2463E-01
378.94	1.0205E00
379.30	8.3498E-01
379.66	9.3393E-01
380.02	1.0204E00
380.38	8.7137E-01
380.74	9.6113E-01
381.09	9.6130E-01
381.45	8.8926E-01
381.81	8.9822E-01
382.17	8.8553E-01
382.53	8.3908E-01
382.89	7.9638E-01
383.25	9.2662E-01
383.61	9.2088E-01
383.97	9.7379E-01
384.32	9.8251E-01
384.68	9.2068E-01
385.04	9.0298E-01
385.40	9.1831E-01
385.76	7.3436E-01
386.12	9.1046E-01
386.48	8.1353E-01
386.83	8.9677E-01
387.19	8.6964E-01
387.55	9.4571E-01
387.91	9.1598E-01
388.27	8.3174E-01
388.62	8.3403E-01
388.98	8.5304E-01
389.34	8.8059E-01
389.70	8.6275E-01
390.06	8.5504E-01
390.42	8.3835E-01
390.77	8.1766E-01
391.13	8.7279E-01
391.49	8.4605E-01
391.85	9.2096E-01
392.20	8.4204E-01
392.56	8.7459E-01
392.92	8.3502E-01
393.28	8.3395E-01
393.64	8.5906E-01
393.99	8.8109E-01
394.35	8.1168E-01
394.71	9.2052E-01
395.07	8.5629E-01
395.42	8.2125E-01
395.78	8.1187E-01
396.14	8.1891E-01
396.50	7.6814E-01
396.85	8.8976E-01
397.21	9.2201E-01
397.57	8.3223E-01
397.92	8.5081E-01
398.28	7.6309E-01
398.64	8.1167E-01
399.00	7.7593E-01
399.35	7.6576E-01
399.71	8.1397E-01
400.07	8.0657E-01
400.42	8.1047E-01
400.78	7.8068E-01
401.14	7.7443E-01
401.49	7.8130E-01
401.85	7.8190E-01
402.21	7.0861E-01
402.57	7.4136E-01
402.92	7.9847E-01
403.28	7.9588E-01
403.63	7.8067E-01
403.99	8.0687E-01
404.35	7.4673E-01
404.70	7.5260E-01
405.06	7.4105E-01
405.42	7.9464E-01
405.77	7.2595E-01
406.13	7.0560E-01
406.49	6.7687E-01
406.84	6.9753E-01
407.20	7.4344E-01
407.55	7.6581E-01
407.91	7.7609E-01
408.27	7.0650E-01
408.62	6.9101E-01
408.98	7.2079E-01
409.34	7.0741E-01
409.69	7.4537E-01
410.05	6.9666E-01
410.40	7.0270E-01
410.76	6.7708E-01
411.11	7.0256E-01
411.47	7.1956E-01
411.83	6.8543E-01
412.18	6.8360E-01
412.54	6.7984E-01
412.89	6.9689E-01
413.25	6.4955E-01
413.60	6.7044E-01
413.96	7.1381E-01
414.31	6.7341E-01
414.67	7.0201E-01
415.03	7.1024E-01
415.38	7.4008E-01
415.74	7.0886E-01
416.09	7.0082E-01
416.45	7.2518E-01
416.80	6.9658E-01
417.16	6.9587E-01
417.51	6.8751E-01
417.87	7.0734E-01
418.22	6.6265E-01
418.58	6.8374E-01
418.93	6.4104E-01
419.29	6.7760E-01
419.64	6.4607E-01
420.00	6.6554E-01
420.35	6.5764E-01
420.71	6.3411E-01
421.06	6.5800E-01
421.42	6.9140E-01
421.77	6.5054E-01
422.12	6.6422E-01
422.48	6.4027E-01
422.83	6.7007E-01
423.19	6.3396E-01
423.54	6.5753E-01
423.90	6.4051E-01
424.25	6.2874E-01
424.61	6.5889E-01
424.96	6.2916E-01
425.31	6.0978E-01
425.67	6.0400E-01
426.02	6.1672E-01
426.38	6.1682E-01
426.73	6.0810E-01
427.09	6.1754E-01
427.44	5.8747E-01
427.79	6.0258E-01
428.15	6.0580E-01
428.50	6.1360E-01
428.85	6.3101E-01
429.21	5.7138E-01
429.56	5.8047E-01
429.92	5.7346E-01
430.27	5.8996E-01
430.62	6.0752E-01
430.98	6.1450E-01
431.33	5.9653E-01
431.68	5.8380E-01
432.04	5.7662E-01
432.39	5.7647E-01
432.74	6.0023E-01
433.10	5.5528E-01
433.45	5.9452E-01
433.80	5.8257E-01
434.16	5.7645E-01
434.51	5.7022E-01
434.86	5.8887E-01
435.22	5.6171E-01
435.57	6.1261E-01
435.92	5.8836E-01
436.28	5.5354E-01
436.63	5.5943E-01
436.98	5.6289E-01
437.34	5.8489E-01
437.69	5.6258E-01
438.04	5.4280E-01
438.39	5.8330E-01
438.75	5.6708E-01
439.10	5.5186E-01
439.45	5.7837E-01
439.81	5.8057E-01
440.16	5.4669E-01
440.51	5.5887E-01
440.86	5.8634E-01
441.22	5.6204E-01
441.57	5.4168E-01
441.92	5.4127E-01
442.27	5.5757E-01
442.63	5.4932E-01
442.98	5.7890E-01
443.33	5.6925E-01
443.68	5.3415E-01
444.03	5.2655E-01
444.39	5.2022E-01
444.74	5.6411E-01
445.09	5.6795E-01
445.44	5.5878E-01
445.79	5.1057E-01
446.15	5.4452E-01
446.50	5.4945E-01
446.85	5.1803E-01
447.20	5.1587E-01
447.55	5.4249E-01
447.91	5.3812E-01
448.26	5.4808E-01
448.61	5.3575E-01
448.96	5.1797E-01
449.31	5.2828E-01
449.66	5.3607E-01
450.02	5.3211E-01
450.37	5.3423E-01
450.72	5.2188E-01
451.07	5.6400E-01
451.42	5.6709E-01
451.77	5.3655E-01
452.12	5.2754E-01
452.47	5.6223E-01
452.83	5.2122E-01
453.18	5.3642E-01
453.53	5.3169E-01
453.88	4.9513E-01
454.23	5.0543E-01
454.58	5.0080E-01
454.93	5.1348E-01
455.28	5.1354E-01
455.63	5.0407E-01
455.98	4.9690E-01
456.34	5.2341E-01
456.69	5.1292E-01
457.04	5.1347E-01
457.39	4.8535E-01
457.74	4.9068E-01
458.09	4.9182E-01
458.44	4.8422E-01
458.79	4.7328E-01
459.14	4.7591E-01
459.49	5.0161E-01
459.84	4.8107E-01
460.19	5.0577E-01
460.54	5.1750E-01
460.89	4.7014E-01
461.24	5.0630E-01
461.59	4.8914E-01
461.94	5.0029E-01
462.29	4.6063E-01
462.64	4.9327E-01
462.99	5.0046E-01
463.34	5.2034E-01
463.69	4.7914E-01
464.04	4.5961E-01
464.39	4.6588E-01
464.74	4.8357E-01
465.09	4.9728E-01
465.44	4.6252E-01
465.79	4.7807E-01
466.14	4.7644E-01
466.49	4.7274E-01
466.84	4.7081E-01
467.19	4.7661E-01
467.54	4.7474E-01
467.89	4.6257E-01
468.24	4.4293E-01
468.59	4.5042E-01
468.94	4.5045E-01
469.29	4.4799E-01
469.64	4.5952E-01
469.99	4.5114E-01
470.34	4.3098E-01
470.68	4.6477E-01
471.03	4.4056E-01
471.38	4.3635E-01
471.73	4.2645E-01
472.08	4.1940E-01
472.43	4.0589E-01
472.78	4.3064E-01
473.13	4.2735E-01
473.48	4.1666E-01
473.83	4.0625E-01
474.17	4.2217E-01
474.52	4.0906E-01
474.87	3.9489E-01
475.22	4.0204E-01
475.57	3.8094E-01
475.92	3.6725E-01
476.27	3.8998E-01
476.61	3.7431E-01
476.96	3.6932E-01
477.31	3.4815E-01
477.66	3.6046E-01
478.01	3.5363E-01
478.36	3.5373E-01
478.70	3.4636E-01
479.05	3.4844E-01
479.40	3.4048E-01
479.75	3.4171E-01
480.10	3.3355E-01
480.45	3.2866E-01
480.79	3.2666E-01
481.14	3.3222E-01
481.49	3.2693E-01
481.84	3.1720E-01
482.19	3.1059E-01
482.53	3.1661E-01
482.88	3.1089E-01
483.23	3.0680E-01
483.58	3.0267E-01
483.92	3.1000E-01
484.27	2.9735E-01
484.62	2.9746E-01
484.97	2.9149E-01
485.31	2.8760E-01
485.66	2.9274E-01
486.01	2.9377E-01
486.36	2.8336E-01
486.70	2.8834E-01
487.05	2.8700E-01
487.40	2.8385E-01
487.75	2.7882E-01
488.09	2.7834E-01
488.44	2.8176E-01
488.79	2.7968E-01
489.13	2.7557E-01
489.48	2.7571E-01
489.83	2.7849E-01
490.17	2.7004E-01
490.52	2.6947E-01
490.87	2.7048E-01
491.22	2.7372E-01
491.56	2.7280E-01
491.91	2.7516E-01
492.26	2.7282E-01
492.60	2.7175E-01
492.95	2.7374E-01
493.30	2.7311E-01
493.64	2.6981E-01
493.99	2.7440E-01
494.34	2.7014E-01
494.68	2.6633E-01
495.03	2.7148E-01
495.37	2.6755E-01
495.72	2.7177E-01
496.07	2.6536E-01
496.41	2.6877E-01
496.76	2.6824E-01
497.11	2.6939E-01
497.45	2.6899E-01
497.80	2.7005E-01
498.14	2.6665E-01
498.49	2.7091E-01
498.84	2.6867E-01
499.18	2.6931E-01
499.53	2.6886E-01
499.87	2.6435E-01
500.22	2.7165E-01
500.56	2.6849E-01
500.91	2.6945E-01
501.26	2.6719E-01
501.60	2.6894E-01
501.95	2.6674E-01
502.29	2.6810E-01
502.64	2.6617E-01
502.98	2.7022E-01
503.33	2.6591E-01
503.67	2.6886E-01
504.02	2.6735E-01
504.36	2.6624E-01
504.71	2.6801E-01
505.06	2.6586E-01
505.40	2.6419E-01
505.75	2.6536E-01
506.09	2.6488E-01
506.44	2.6448E-01
506.78	2.6610E-01
507.13	2.6702E-01
507.47	2.6413E-01
507.82	2.6386E-01
508.16	2.6422E-01
508.51	2.6337E-01
508.85	2.6026E-01
509.19	2.6106E-01
509.54	2.6294E-01
509.88	2.6244E-01
510.23	2.5794E-01
510.57	2.5877E-01
510.92	2.6068E-01
511.26	2.6013E-01
511.61	2.6055E-01
511.95	2.5822E-01
512.30	2.5801E-01
512.64	2.5895E-01
512.98	2.5787E-01
513.33	2.5878E-01
513.67	2.5689E-01
514.02	2.5797E-01
514.36	2.5497E-01
514.70	2.5594E-01
515.05	2.5454E-01
515.39	2.5528E-01
515.74	2.5587E-01
516.08	2.5667E-01
516.42	2.5308E-01
516.77	2.5517E-01
517.11	2.5293E-01
517.46	2.5380E-01
517.80	2.5323E-01
518.14	2.5253E-01
518.49	2.5200E-01
518.83	2.5125E-01
519.17	2.5488E-01
519.52	2.5249E-01
519.86	2.5316E-01
520.20	2.5096E-01
520.55	2.5201E-01
520.89	2.5081E-01
521.23	2.5211E-01
521.58	2.5343E-01
521.92	2.5233E-01
522.26	2.5577E-01
522.61	2.5167E-01
522.95	2.5343E-01
523.29	2.5019E-01
523.64	2.5150E-01
523.98	2.5334E-01
524.32	2.5345E-01
524.66	2.5376E-01
525.01	2.5381E-01
525.35	2.5551E-01
525.69	2.5519E-01
526.04	2.5711E-01
526.38	2.5146E-01
526.72	2.5773E-01
527.06	2.5487E-01
527.41	2.5800E-01
527.75	2.5881E-01
528.09	2.5604E-01
528.43	2.6013E-01
528.78	2.5858E-01
529.12	2.6307E-01
529.46	2.6103E-01
529.80	2.6203E-01
530.15	2.6174E-01
530.49	2.6296E-01
530.83	2.6538E-01
531.17	2.6454E-01
531.51	2.6655E-01
531.86	2.6457E-01
532.20	2.6809E-01
532.54	2.6758E-01
532.88	2.6938E-01
533.22	2.7180E-01
533.57	2.7519E-01
533.91	2.7072E-01
534.25	2.7230E-01
534.59	2.7288E-01
534.93	2.7232E-01
535.27	2.7262E-01
535.62	2.7814E-01
535.96	2.7717E-01
536.30	2.7654E-01
536.64	2.7824E-01
536.98	2.8202E-01
537.32	2.7894E-01
537.66	2.8206E-01
538.01	2.8124E-01
538.35	2.8481E-01
538.69	2.8333E-01
539.03	2.8729E-01
539.37	2.8569E-01
539.71	2.8748E-01
540.05	2.8641E-01
540.39	2.8667E-01
540.73	2.8795E-01
541.07	2.8735E-01
541.42	2.8746E-01
541.76	2.8890E-01
542.10	2.9099E-01
542.44	2.9128E-01
542.78	2.9389E-01
543.12	2.8881E-01
543.46	2.9482E-01
543.80	2.9047E-01
544.14	2.9227E-01
544.48	2.9046E-01
544.82	2.9521E-01
545.16	2.9427E-01
545.50	2.9376E-01
545.84	2.9845E-01
546.18	2.9521E-01
546.52	2.9629E-01
546.86	2.9514E-01
547.20	3.0030E-01
547.54	3.0231E-01
547.88	2.9768E-01
548.22	2.9849E-01
548.56	3.0157E-01
548.90	3.0114E-01
549.24	3.0154E-01
549.58	3.0220E-01
549.92	3.0250E-01
550.26	3.0364E-01
550.60	3.0265E-01
550.94	3.0138E-01
551.28	3.0596E-01
551.62	3.0199E-01
551.96	3.0441E-01
552.30	3.0592E-01
552.64	3.0564E-01
552.98	3.0598E-01
553.32	3.0658E-01
553.66	3.0679E-01
554.00	3.0321E-01
554.34	3.0586E-01
554.68	3.0579E-01
555.02	3.0463E-01
555.36	3.0849E-01
555.69	3.0967E-01
556.03	3.0564E-01
556.37	3.0830E-01
556.71	3.0585E-01
557.05	3.0633E-01
557.39	3.0857E-01
557.73	3.0598E-01
558.07	3.0854E-01
558.41	3.0823E-01
558.75	3.0951E-01
559.08	3.0782E-01
559.42	3.0698E-01
559.76	3.0940E-01
560.10	3.0988E-01
560.44	3.1032E-01
560.78	3.0653E-01
561.12	3.1083E-01
561.45	3.1111E-01
561.79	3.0947E-01
562.13	3.0879E-01
562.47	3.0942E-01
562.81	3.1088E-01
563.15	3.1153E-01
563.48	3.1167E-01
563.82	3.0796E-01
564.16	3.1072E-01
564.50	3.1348E-01
564.84	3.0929E-01
565.17	3.1036E-01
565.51	3.0870E-01
565.85	3.1252E-01
566.19	3.0873E-01
566.52	3.1298E-01
566.86	3.1063E-01
567.20	3.1472E-01
567.54	3.1330E-01
567.88	3.1353E-01
568.21	3.1449E-01
568.55	3.1353E-01
568.89	3.1411E-01
569.23	3.1435E-01
569.56	3.1323E-01
569.90	3.1378E-01
570.24	3.1741E-01
570.57	3.1459E-01
570.91	3.1661E-01
571.25	3.1520E-01
571.59	3.1626E-01
571.92	3.1670E-01
572.26	3.1724E-01
572.60	3.1877E-01
572.93	3.1720E-01
573.27	3.2264E-01
573.61	3.2259E-01
573.95	3.1519E-01
574.28	3.2287E-01
574.62	3.2246E-01
574.96	3.2528E-01
575.29	3.2409E-01
575.63	3.2809E-01
575.97	3.2600E-01
576.30	3.3084E-01
576.64	3.2746E-01
576.98	3.3004E-01
577.31	3.3134E-01
577.65	3.3453E-01
577.98	3.2833E-01
578.32	3.3577E-01
578.66	3.3805E-01
578.99	3.3639E-01
579.33	3.3931E-01
579.67	3.3826E-01
580.00	3.3938E-01
580.34	3.3953E-01
580.67	3.4249E-01
581.01	3.4130E-01
581.35	3.4359E-01
581.68	3.4451E-01
582.02	3.4651E-01
582.35	3.4512E-01
582.69	3.4761E-01
583.02	3.5299E-01
583.36	3.5252E-01
583.70	3.5186E-01
584.03	3.5234E-01
584.37	3.5202E-01
584.70	3.5525E-01
585.04	3.5812E-01
585.37	3.5632E-01
585.71	3.6050E-01
586.04	3.6040E-01
586.38	3.5805E-01
586.72	3.6581E-01
587.05	3.6083E-01
587.39	3.6444E-01
587.72	3.6210E-01
588.06	3.6755E-01
588.39	3.6213E-01
588.73	3.6979E-01
589.06	3.6793E-01
589.40	3.7088E-01
589.73	3.7347E-01
590.07	3.7331E-01
590.40	3.7554E-01
590.73	3.7789E-01
591.07	3.7651E-01
591.40	3.7988E-01
591.74	3.7372E-01
592.07	3.7976E-01
592.41	3.8147E-01
592.74	3.8253E-01
593.08	3.7877E-01
593.41	3.8127E-01
593.75	3.8353E-01
594.08	3.8742E-01
594.41	3.8655E-01
594.75	3.8824E-01
595.08	3.8622E-01
595.42	3.8320E-01
595.75	3.8610E-01
596.09	3.8984E-01
596.42	3.8751E-01
596.75	3.8863E-01
597.09	3.9472E-01
597.42	3.8702E-01
597.75	3.9576E-01
598.09	3.9446E-01
598.42	3.9225E-01
598.76	3.9210E-01
599.09	3.9624E-01
599.42	3.9771E-01
599.76	3.9548E-01
600.09	3.9764E-01
600.42	4.0137E-01
600.76	3.9231E-01
601.09	3.9545E-01
601.42	4.0492E-01
601.76	4.0176E-01
602.09	3.9983E-01
602.42	3.9886E-01
602.76	3.9879E-01
603.09	3.9945E-01
603.42	4.0271E-01
603.76	3.9993E-01
604.09	4.0184E-01
604.42	4.0201E-01
604.76	3.9970E-01
605.09	4.0498E-01
605.42	4.0121E-01
605.75	4.0365E-01
606.09	4.0618E-01
606.42	4.0496E-01
606.75	4.0826E-01
607.09	4.0531E-01
607.42	4.0444E-01
607.75	4.0571E-01
608.08	4.0693E-01
608.42	4.0955E-01
608.75	4.0661E-01
609.08	4.1064E-01
609.41	4.0848E-01
609.75	4.0680E-01
610.08	4.1028E-01
610.41	4.1048E-01
610.74	4.1045E-01
611.07	4.1110E-01
611.41	4.0657E-01
611.74	4.1075E-01
612.07	4.0968E-01
612.40	4.0657E-01
612.73	4.1102E-01
613.07	4.1613E-01
613.40	4.0955E-01
613.73	4.0926E-01
614.06	4.1391E-01
614.39	4.1117E-01
614.72	4.1610E-01
615.06	4.1417E-01
615.39	4.1803E-01
615.72	4.1379E-01
616.05	4.1927E-01
616.38	4.1944E-01
616.71	4.1738E-01
617.05	4.1470E-01
617.38	4.1927E-01
617.71	4.1856E-01
618.04	4.1836E-01
618.37	4.1437E-01
618.70	4.1799E-01
619.03	4.1855E-01
619.36	4.1152E-01
619.69	4.2021E-01
620.03	4.1679E-01
620.36	4.1725E-01
620.69	4.1690E-01
621.02	4.1543E-01
621.35	4.1605E-01
621.68	4.1426E-01
622.01	4.1713E-01
622.34	4.1620E-01
622.67	4.1644E-01
623.00	4.1592E-01
623.33	4.1485E-01
623.66	4.1667E-01
623.99	4.1857E-01
624.32	4.1245E-01
624.65	4.1477E-01
624.99	4.1488E-01
625.32	4.1953E-01
625.65	4.1653E-01
625.98	4.1262E-01
626.31	4.1536E-01
626.64	4.1931E-01
626.97	4.1734E-01
627.30	4.1399E-01
627.63	4.1269E-01
627.96	4.1212E-01
628.29	4.1352E-01
628.62	4.1659E-01
628.95	4.1615E-01
629.28	4.1206E-01
629.61	4.2145E-01
629.94	4.1848E-01
630.26	4.2002E-01
630.59	4.2070E-01
630.92	4.1904E-01
631.25	4.1880E-01
631.58	4.2623E-01
631.91	4.2090E-01
632.24	4.2553E-01
632.57	4.2474E-01
632.90	4.2610E-01
633.23	4.2365E-01
633.56	4.2730E-01
633.89	4.2669E-01
634.22	4.2844E-01
634.55	4.2880E-01
634.88	4.3228E-01
635.20	4.3333E-01
635.53	4.3805E-01
635.86	4.3473E-01
636.19	4.4148E-01
636.52	4.4116E-01
636.85	4.4186E-01
637.18	4.4555E-01
637.51	4.4489E-01
637.83	4.4837E-01
638.16	4.4665E-01
638.49	4.5468E-01
638.82	4.4913E-01
639.15	4.5676E-01
639.48	4.5637E-01
639.81	4.6364E-01
640.13	4.5853E-01
640.46	4.6716E-01
640.79	4.6332E-01
641.12	4.6959E-01
641.45	4.6566E-01
641.77	4.6574E-01
642.10	4.7727E-01
642.43	4.7890E-01
642.76	4.8300E-01
643.09	4.7785E-01
643.41	4.8236E-01
643.74	4.8193E-01
644.07	4.8487E-01
644.40	4.8464E-01
644.73	4.9230E-01
645.05	4.9221E-01
645.38	4.9086E-01
645.71	4.9881E-01
646.04	4.9729E-01
646.36	4.9660E-01
646.69	5.0573E-01
647.02	5.0765E-01
647.35	5.0244E-01
647.67	5.1038E-01
648.00	5.0844E-01
648.33	5.1285E-01
648.66	5.1081E-01
648.98	5.1722E-01
649.31	5.1447E-01
649.64	5.1715E-01
649.96	5.2056E-01
650.29	5.2844E-01
650.62	5.2441E-01
650.94	5.2492E-01
651.27	5.2767E-01
651.60	5.2469E-01
651.92	5.3540E-01
652.25	5.3895E-01
652.58	5.3712E-01
652.90	5.3653E-01
653.23	5.3762E-01
653.56	5.4026E-01
653.88	5.4421E-01
654.21	5.4291E-01
654.54	5.4683E-01
654.86	5.5254E-01
655.19	5.4927E-01
655.52	5.5512E-01
655.84	5.4941E-01
656.17	5.5681E-01
656.49	5.5668E-01
656.82	5.5364E-01
657.15	5.5997E-01
657.47	5.6201E-01
657.80	5.6403E-01
658.13	5.6276E-01
658.45	5.6510E-01
658.78	5.6625E-01
659.10	5.7106E-01
659.43	5.6847E-01
659.75	5.7082E-01
660.08	5.6895E-01
660.41	5.8022E-01
660.73	5.7676E-01
661.06	5.7655E-01
661.38	5.8029E-01
661.71	5.8379E-01
662.03	5.8028E-01
662.36	5.8817E-01
662.68	5.8425E-01
663.01	5.7937E-01
663.33	5.8775E-01
663.66	5.8990E-01
663.98	5.8926E-01
664.31	5.9004E-01
664.63	6.0254E-01
664.96	5.8783E-01
665.28	5.9549E-01
665.61	5.9732E-01
665.93	5.9770E-01
666.26	5.9721E-01
666.58	6.0180E-01
666.91	6.0296E-01
667.23	6.0974E-01
667.56	6.0339E-01
667.88	6.0662E-01
668.21	6.1103E-01
668.53	6.0796E-01
668.86	6.1558E-01
669.18	6.1083E-01
669.50	6.1940E-01
669.83	6.1355E-01
670.15	6.1810E-01
670.48	6.1980E-01
670.80	6.1820E-01
671.13	6.1891E-01
671.45	6.2267E-01
671.77	6.2230E-01
672.10	6.1939E-01
672.42	6.3484E-01
672.75	6.2818E-01
673.07	6.3282E-01
673.39	6.2729E-01
673.72	6.3142E-01
674.04	6.3560E-01
674.37	6.3514E-01
674.69	6.3409E-01
675.01	6.3839E-01
675.34	6.4500E-01
675.66	6.4312E-01
675.98	6.3842E-01
676.31	6.4754E-01
676.63	6.4470E-01
676.95	6.4668E-01
677.28	6.5390E-01
677.60	6.5460E-01
677.92	6.4920E-01
678.25	6.5742E-01
678.57	6.5797E-01
678.89	6.5432E-01
679.22	6.6395E-01
679.54	6.6107E-01
679.86	6.6340E-01
680.18	6.6856E-01
680.51	6.6147E-01
680.83	6.7731E-01
681.15	6.6887E-01
681.48	6.7268E-01
681.80	6.7229E-01
682.12	6.7016E-01
682.44	6.8210E-01
682.77	6.8496E-01
683.09	6.8845E-01
683.41	6.8295E-01
683.73	6.9144E-01
684.06	6.8784E-01
684.38	6.9069E-01
684.70	6.9380E-01
685.02	6.9546E-01
685.34	7.0181E-01
685.67	6.9892E-01
685.99	7.1282E-01
686.31	7.0348E-01
686.63	7.1210E-01
686.96	7.1651E-01
687.28	7.2021E-01
687.60	7.0790E-01
687.92	7.1594E-01
688.24	7.2476E-01
688.56	7.3136E-01
688.89	7.2414E-01
689.21	7.3342E-01
689.53	7.2943E-01
689.85	7.3780E-01
690.17	7.3364E-01
690.49	7.4661E-01
690.82	7.4599E-01
691.14	7.4539E-01
691.46	7.4930E-01
691.78	7.5228E-01
692.10	7.4943E-01
692.42	7.5967E-01
692.74	7.6477E-01
693.06	7.6238E-01
693.39	7.7280E-01
693.71	7.7732E-01
694.03	7.7818E-01
694.35	7.8203E-01
694.67	7.8263E-01
694.99	7.9525E-01
695.31	7.8927E-01
695.63	7.9415E-01
695.95	8.0031E-01
696.27	8.0028E-01
696.59	8.0283E-01
696.91	8.1140E-01
697.23	8.1695E-01
697.56	8.1775E-01
697.88	8.1646E-01
698.20	8.2155E-01
698.52	8.2656E-01
698.84	8.3341E-01
699.16	8.3677E-01
699.48	8.3331E-01
699.80	8.4097E-01
700.12	8.5216E-01
700.44	8.5214E-01
700.76	8.5627E-01
701.08	8.6473E-01
701.40	8.6279E-01
701.72	8.6775E-01
702.04	8.6948E-01
702.36	8.7832E-01
702.68	8.8481E-01
703.00	8.8734E-01
703.32	8.9232E-01
703.64	8.9948E-01
703.96	8.9007E-01
704.28	8.9476E-01
704.60	9.0325E-01
704.91	9.1205E-01
705.23	9.1020E-01
705.55	9.2509E-01
705.87	9.2230E-01
706.19	9.2230E-01
706.51	9.2791E-01
706.83	9.3323E-01
707.15	9.5178E-01
707.47	9.4267E-01
707.79	9.5748E-01
708.11	9.5357E-01
708.43	9.6172E-01
708.74	9.6857E-01
709.06	9.7728E-01
709.38	9.7602E-01
709.70	9.7735E-01
710.02	9.8659E-01
710.34	9.8156E-01
710.66	9.9847E-01
710.98	1.0047E00
711.29	1.0077E00
711.61	1.0185E00
711.93	1.0206E00
712.25	1.0168E00
712.57	1.0302E00
712.89	1.0394E00
713.20	1.0368E00
713.52	1.0414E00
713.84	1.0608E00
714.16	1.0506E00
714.48	1.0505E00
714.80	1.0708E00
715.11	1.0698E00
715.43	1.0775E00
715.75	1.0781E00
716.07	1.1062E00
716.39	1.0770E00
716.70	1.0940E00
717.02	1.0883E00
717.34	1.1120E00
717.66	1.1099E00
717.97	1.1126E00
718.29	1.1268E00
718.61	1.1309E00
718.93	1.1455E00
719.24	1.1449E00
719.56	1.1513E00
719.88	1.1642E00
720.20	1.1737E00
720.51	1.1841E00
720.83	1.1770E00
721.15	1.2051E00
721.46	1.1988E00
721.78	1.2114E00
722.10	1.2273E00
722.42	1.2262E00
722.73	1.2388E00
723.05	1.2380E00
723.37	1.2487E00
723.68	1.2770E00
724.00	1.2606E00
724.32	1.2813E00
724.63	1.2690E00
724.95	1.2805E00
725.27	1.2847E00
725.58	1.2902E00
725.90	1.2851E00
726.22	1.3068E00
726.53	1.2971E00
726.85	1.3050E00
727.16	1.3130E00
727.48	1.3172E00
727.80	1.3218E00
728.11	1.3328E00
728.43	1.3197E00
728.74	1.3204E00
729.06	1.3488E00
729.38	1.3456E00
729.69	1.3470E00
730.01	1.3581E00
730.32	1.3697E00
730.64	1.3671E00
730.96	1.3501E00
731.27	1.3858E00
731.59	1.3664E00
731.90	1.3637E00
732.22	1.3751E00
732.53	1.3918E00
732.85	1.4068E00
733.16	1.3956E00
733.48	1.3893E00
733.80	1.3860E00
734.11	1.4131E00
734.43	1.4365E00
734.74	1.4223E00
735.06	1.4363E00
735.37	1.4319E00
735.69	1.4381E00
736.00	1.4446E00
736.32	1.4443E00
736.63	1.4591E00
736.95	1.4684E00
737.26	1.4867E00
737.58	1.4746E00
737.89	1.4798E00
738.21	1.4731E00
738.52	1.4858E00
738.83	1.5071E00
739.15	1.4899E00
739.46	1.5152E00
739.78	1.5051E00
740.09	1.5128E00
740.41	1.5157E00
740.72	1.5143E00
741.04	1.5170E00
741.35	1.5255E00
741.66	1.5454E00
741.98	1.5337E00
742.29	1.5412E00
742.61	1.5537E00
742.92	1.5324E00
743.23	1.5451E00
743.55	1.5577E00
743.86	1.5475E00
744.18	1.5549E00
744.49	1.5432E00
744.80	1.5392E00
745.12	1.5431E00
745.43	1.5620E00
745.74	1.5589E00
746.06	1.5489E00
746.37	1.5495E00
746.68	1.5523E00
747.00	1.5567E00
747.31	1.5551E00
747.62	1.5449E00
747.94	1.5534E00
748.25	1.5521E00
748.56	1.5565E00
748.88	1.5469E00
749.19	1.5604E00
749.50	1.5499E00
749.82	1.5601E00
750.13	1.5560E00
750.44	1.5540E00
750.75	1.5421E00
751.07	1.5527E00
751.38	1.5731E00
751.69	1.5535E00
752.01	1.5764E00
752.32	1.5691E00
752.63	1.5539E00
752.94	1.5598E00
753.26	1.5607E00
753.57	1.5621E00
753.88	1.5772E00
754.19	1.5647E00
754.51	1.5803E00
754.82	1.5667E00
755.13	1.5987E00
755.44	1.5818E00
755.75	1.5901E00
756.07	1.6040E00
756.38	1.6140E00
756.69	1.6055E00
757.00	1.6293E00
757.31	1.6335E00
757.63	1.6364E00
757.94	1.6447E00
758.25	1.6619E00
758.56	1.6329E00
758.87	1.6710E00
759.18	1.6717E00
759.50	1.6668E00
759.81	1.6727E00
760.12	1.6869E00
760.43	1.7010E00
760.74	1.7104E00
761.05	1.7309E00
761.36	1.7230E00
761.67	1.7493E00
761.99	1.7489E00
762.30	1.7289E00
762.61	1.7589E00
762.92	1.7813E00
763.23	1.7926E00
763.54	1.7910E00
763.85	1.8260E00
764.16	1.8320E00
764.47	1.8498E00
764.78	1.8488E00
765.10	1.8686E00
765.41	1.8861E00
765.72	1.8698E00
766.03	1.9255E00
766.34	1.9275E00
766.65	1.9395E00
766.96	1.9731E00
767.27	1.9761E00
767.58	1.9666E00
767.89	1.9857E00
768.20	2.0360E00
768.51	2.0392E00
768.82	2.0348E00
769.13	2.0445E00
769.44	2.0983E00
769.75	2.0917E00
770.06	2.0937E00
770.37	2.1032E00
770.68	2.1338E00
770.99	2.1705E00
771.30	2.1887E00
771.61	2.2346E00
771.92	2.2145E00
772.23	2.2298E00
772.54	2.2591E00
772.85	2.2630E00
773.16	2.2985E00
773.47	2.3417E00
773.78	2.3398E00
774.09	2.3487E00
774.39	2.3704E00
774.70	2.3702E00
775.01	2.4366E00
775.32	2.4466E00
775.63	2.4537E00
775.94	2.4722E00
776.25	2.4638E00
776.56	2.5192E00
776.87	2.5676E00
777.18	2.5622E00
777.48	2.6035E00
777.79	2.6260E00
778.10	2.6533E00
778.41	2.6760E00
778.72	2.6847E00
779.03	2.6831E00
779.34	2.7407E00
779.65	2.7460E00
779.95	2.7527E00
780.26	2.8042E00
780.57	2.7998E00
780.88	2.8116E00
781.19	2.8633E00
781.50	2.8478E00
781.80	2.9062E00
782.11	2.9293E00
782.42	2.9400E00
782.73	2.9487E00
783.04	3.0295E00
783.34	3.0443E00
783.65	3.0816E00
783.96	3.0463E00
784.27	3.0721E00
784.57	3.1168E00
784.88	3.1345E00
785.19	3.1814E00
785.50	3.1842E00
785.81	3.2300E00
786.11	3.2027E00
786.42	3.2730E00
786.73	3.3439E00
787.04	3.3366E00
787.34	3.3444E00
787.65	3.3499E00
787.96	3.4616E00
788.26	3.4923E00
788.57	3.4833E00
788.88	3.4560E00
789.19	3.5121E00
789.49	3.5339E00
789.80	3.6240E00
790.11	3.6482E00
790.41	3.6467E00
790.72	3.7022E00
791.03	3.7081E00
791.33	3.7421E00
791.64	3.7331E00
791.95	3.7650E00
792.25	3.8448E00
792.56	3.9108E00
792.87	3.9147E00
793.17	3.9143E00
793.48	3.8940E00
793.79	3.9971E00
794.09	3.9989E00
794.40	3.9739E00
794.70	3.9713E00
795.01	4.0947E00
795.32	4.0740E00
795.62	4.1569E00
795.93	4.1567E00
796.23	4.1911E00
796.54	4.2186E00
796.85	4.2106E00
797.15	4.2546E00
797.46	4.2906E00
797.76	4.3764E00
798.07	4.4036E00
798.37	4.4235E00
798.68	4.5008E00
798.99	4.5585E00
799.29	4.5461E00
799.60	4.6521E00
799.90	4.6359E00
800.21	4.6584E00
800.51	4.6778E00
800.82	4.7497E00
801.12	4.7876E00
801.43	4.8738E00
801.73	4.8443E00
802.04	4.8514E00
802.34	4.8533E00
802.65	4.9826E00
802.95	5.0791E00
803.26	5.0125E00
803.56	4.9854E00
803.87	5.0694E00
804.17	5.0472E00
804.48	5.2017E00
804.78	5.1428E00
805.09	5.2101E00
805.39	5.2056E00
805.70	5.2945E00
806.00	5.2918E00
806.30	5.2823E00
806.61	5.3935E00
806.91	5.4084E00
807.22	5.4232E00
807.52	5.5891E00
807.83	5.4936E00
808.13	5.5334E00
808.43	5.5451E00
808.74	5.6239E00
809.04	5.6900E00
809.35	5.6285E00
809.65	5.8002E00
809.95	5.9023E00
810.26	5.9270E00
810.56	5.8398E00
810.86	5.9999E00
811.17	6.0594E00
811.47	6.1028E00
811.77	6.0007E00
812.08	6.1490E00
812.38	6.2135E00
812.69	6.1185E00
812.99	6.2031E00
813.29	6.2003E00
813.59	6.3217E00
813.90	6.3851E00
814.20	6.4246E00
814.50	6.5551E00
814.81	6.4630E00
815.11	6.6078E00
815.41	6.8096E00
815.72	6.6903E00
816.02	6.7122E00
816.32	6.7718E00
816.62	6.6843E00
816.93	6.7966E00
817.23	6.9352E00
817.53	6.8358E00
817.84	7.1019E00
818.14	7.0217E00
818.44	7.0006E00
818.74	7.0551E00
819.04	7.3909E00
819.35	7.3203E00
819.65	7.2170E00
819.95	7.5467E00
820.25	7.5457E00
820.56	7.5031E00
820.86	7.4932E00
821.16	7.6496E00
821.46	7.6385E00
821.76	7.4651E00
822.07	7.5574E00
822.37	7.8417E00
822.67	7.8389E00
822.97	8.0240E00
823.27	8.0272E00
823.57	7.9414E00
823.88	8.0241E00
824.18	8.1208E00
824.48	7.9668E00
824.78	8.2671E00
825.08	8.2895E00
825.38	8.2265E00
825.69	8.2624E00
825.99	8.3891E00
826.29	8.2783E00
826.59	8.5465E00
826.89	8.6806E00
827.19	8.5378E00
827.49	8.8542E00
827.79	8.7309E00
828.09	8.8995E00
828.39	8.9486E00
828.70	8.7516E00
829.00	9.0170E00
829.30	9.1727E00
829.60	9.0524E00
829.90	9.3006E00
830.20	9.3120E00
830.50	9.3785E00
830.80	9.4142E00
831.10	9.5511E00
831.40	9.5241E00
831.70	9.5473E00
832.00	9.3784E00
832.30	9.8803E00
832.60	9.5766E00
832.90	9.9175E00
833.20	9.9567E00
833.50	9.8777E00
833.80	9.9989E00
834.10	1.0275E01
834.40	1.0045E01
834.70	1.0122E01
835.00	1.0424E01
835.30	1.0416E01
835.60	1.0519E01
835.90	1.0557E01
836.20	1.0614E01
836.50	1.0677E01
836.80	1.0817E01
837.10	1.0673E01
837.40	1.0526E01
837.70	1.1100E01
838.00	1.1114E01
838.30	1.1236E01
838.60	1.1221E01
838.90	1.1059E01
839.19	1.1270E01
839.49	1.1630E01
839.79	1.1437E01
840.09	1.1515E01
840.39	1.1486E01
840.69	1.1534E01
840.99	1.2089E01
841.29	1.1581E01
841.59	1.1934E01
841.88	1.2241E01
842.18	1.1973E01
842.48	1.2227E01
842.78	1.2327E01
843.08	1.2673E01
843.38	1.2658E01
843.68	1.2989E01
843.97	1.2750E01
844.27	1.2754E01
844.57	1.2667E01
844.87	1.2925E01
845.17	1.3092E01
845.47	1.3199E01
845.76	1.3204E01
846.06	1.3463E01
846.36	1.3519E01
846.66	1.3321E01
846.96	1.3357E01
847.25	1.3836E01
847.55	1.3851E01
847.85	1.4164E01
848.15	1.4011E01
848.44	1.3999E01
848.74	1.4442E01
849.04	1.4618E01
849.34	1.4737E01
849.63	1.4465E01
849.93	1.4831E01
850.23	1.5071E01
850.53	1.5051E01
850.82	1.5107E01
851.12	1.5549E01
851.42	1.5345E01
851.71	1.5139E01
852.01	1.5755E01
852.31	1.5763E01
852.61	1.5663E01
852.90	1.6021E01
853.20	1.6184E01
853.50	1.6057E01
853.79	1.6770E01
854.09	1.6306E01
854.39	1.6683E01
854.68	1.6976E01
854.98	1.6866E01
855.28	1.6771E01
855.57	1.7347E01
855.87	1.7465E01
856.17	1.7459E01
856.46	1.7863E01
856.76	1.7780E01
857.05	1.7873E01
857.35	1.7846E01
857.65	1.8058E01
857.94	1.8144E01
858.24	1.7891E01
858.53	1.8671E01
858.83	1.9354E01
859.13	1.9157E01
859.42	1.8963E01
859.72	1.9287E01
860.01	1.9518E01
860.31	1.9713E01
860.60	2.0037E01
860.90	1.9417E01
861.20	2.0528E01
861.49	2.0065E01
861.79	2.0391E01
862.08	2.0578E01
862.38	2.0892E01
862.67	2.1995E01
862.97	2.0832E01
863.26	2.1027E01
863.56	2.1843E01
863.85	2.1787E01
864.15	2.2259E01
864.44	2.1317E01
864.74	2.2264E01
865.03	2.3203E01
865.33	2.2615E01
865.62	2.3572E01
865.92	2.3264E01
866.21	2.4052E01
866.51	2.4117E01
866.80	2.3736E01
867.10	2.4129E01
867.39	2.4745E01
867.69	2.4948E01
867.98	2.4722E01
868.27	2.5895E01
868.57	2.4869E01
868.86	2.6114E01
869.16	2.5782E01
869.45	2.6458E01
869.75	2.6747E01
870.04	2.6279E01
870.33	2.7364E01
870.63	2.7378E01
870.92	2.6598E01
871.22	2.7861E01
871.51	2.8770E01
871.80	2.8330E01
872.10	2.8330E01
>>>>>End Processed Spectral Data<<<<<
