SpectraSuite Data File
++++++++++++++++++++++++++++++++++++
Date: Sat May 16 08:46:25 PDT 2015
User: schluterlab
Dark Spectrum Present: Yes
Reference Spectrum Present: No
Number of Sampled Component Spectra: 1
Spectrometers: USB2E3373
Integration Time (usec): 2300000 (USB2E3373)
Spectra Averaged: 3 (USB2E3373)
Boxcar Smoothing: 0 (USB2E3373)
Correct for Electrical Dark: No (USB2E3373)
Strobe/Lamp Enabled: No (USB2E3373)
Correct for Detector Non-linearity: No (USB2E3373)
Correct for Stray Light: No (USB2E3373)
Number of Pixels in Processed Spectrum: 2048
>>>>>Begin Processed Spectral Data<<<<<
178.53	0.0000E00
178.91	0.0000E00
179.29	0.0000E00
179.67	0.0000E00
180.04	0.0000E00
180.42	0.0000E00
180.80	0.0000E00
181.18	0.0000E00
181.56	0.0000E00
181.94	0.0000E00
182.31	0.0000E00
182.69	0.0000E00
183.07	0.0000E00
183.45	0.0000E00
183.83	0.0000E00
184.20	0.0000E00
184.58	0.0000E00
184.96	0.0000E00
185.34	0.0000E00
185.72	0.0000E00
186.09	0.0000E00
186.47	0.0000E00
186.85	0.0000E00
187.23	0.0000E00
187.61	0.0000E00
187.98	0.0000E00
188.36	0.0000E00
188.74	0.0000E00
189.12	0.0000E00
189.49	0.0000E00
189.87	0.0000E00
190.25	0.0000E00
190.63	0.0000E00
191.00	0.0000E00
191.38	0.0000E00
191.76	0.0000E00
192.14	0.0000E00
192.51	0.0000E00
192.89	0.0000E00
193.27	0.0000E00
193.65	0.0000E00
194.02	0.0000E00
194.40	0.0000E00
194.78	0.0000E00
195.15	0.0000E00
195.53	0.0000E00
195.91	0.0000E00
196.29	0.0000E00
196.66	0.0000E00
197.04	0.0000E00
197.42	0.0000E00
197.79	0.0000E00
198.17	0.0000E00
198.55	0.0000E00
198.92	0.0000E00
199.30	0.0000E00
199.68	0.0000E00
200.05	0.0000E00
200.43	0.0000E00
200.81	0.0000E00
201.18	0.0000E00
201.56	0.0000E00
201.94	0.0000E00
202.31	0.0000E00
202.69	0.0000E00
203.07	0.0000E00
203.44	0.0000E00
203.82	0.0000E00
204.19	0.0000E00
204.57	0.0000E00
204.95	0.0000E00
205.32	0.0000E00
205.70	0.0000E00
206.08	0.0000E00
206.45	0.0000E00
206.83	0.0000E00
207.20	0.0000E00
207.58	0.0000E00
207.96	0.0000E00
208.33	0.0000E00
208.71	0.0000E00
209.08	0.0000E00
209.46	0.0000E00
209.84	0.0000E00
210.21	0.0000E00
210.59	0.0000E00
210.96	0.0000E00
211.34	0.0000E00
211.71	0.0000E00
212.09	0.0000E00
212.46	0.0000E00
212.84	0.0000E00
213.22	-0.0000E00
213.59	0.0000E00
213.97	0.0000E00
214.34	0.0000E00
214.72	0.0000E00
215.09	0.0000E00
215.47	0.0000E00
215.84	0.0000E00
216.22	0.0000E00
216.59	0.0000E00
216.97	0.0000E00
217.34	0.0000E00
217.72	0.0000E00
218.09	0.0000E00
218.47	0.0000E00
218.84	-0.0000E00
219.22	0.0000E00
219.59	0.0000E00
219.97	0.0000E00
220.34	0.0000E00
220.72	0.0000E00
221.09	0.0000E00
221.47	0.0000E00
221.84	0.0000E00
222.22	0.0000E00
222.59	0.0000E00
222.97	0.0000E00
223.34	0.0000E00
223.72	0.0000E00
224.09	0.0000E00
224.46	0.0000E00
224.84	0.0000E00
225.21	0.0000E00
225.59	0.0000E00
225.96	0.0000E00
226.34	0.0000E00
226.71	0.0000E00
227.08	0.0000E00
227.46	0.0000E00
227.83	0.0000E00
228.21	0.0000E00
228.58	0.0000E00
228.95	0.0000E00
229.33	0.0000E00
229.70	0.0000E00
230.08	0.0000E00
230.45	0.0000E00
230.82	0.0000E00
231.20	0.0000E00
231.57	0.0000E00
231.95	0.0000E00
232.32	0.0000E00
232.69	0.0000E00
233.07	0.0000E00
233.44	0.0000E00
233.81	0.0000E00
234.19	0.0000E00
234.56	0.0000E00
234.93	0.0000E00
235.31	0.0000E00
235.68	0.0000E00
236.05	0.0000E00
236.43	0.0000E00
236.80	0.0000E00
237.17	0.0000E00
237.55	0.0000E00
237.92	0.0000E00
238.29	0.0000E00
238.67	0.0000E00
239.04	0.0000E00
239.41	0.0000E00
239.79	0.0000E00
240.16	0.0000E00
240.53	0.0000E00
240.91	0.0000E00
241.28	0.0000E00
241.65	0.0000E00
242.02	0.0000E00
242.40	0.0000E00
242.77	0.0000E00
243.14	0.0000E00
243.51	0.0000E00
243.89	0.0000E00
244.26	0.0000E00
244.63	0.0000E00
245.00	0.0000E00
245.38	0.0000E00
245.75	0.0000E00
246.12	0.0000E00
246.49	0.0000E00
246.87	0.0000E00
247.24	0.0000E00
247.61	0.0000E00
247.98	0.0000E00
248.36	0.0000E00
248.73	0.0000E00
249.10	0.0000E00
249.47	0.0000E00
249.84	0.0000E00
250.22	0.0000E00
250.59	0.0000E00
250.96	0.0000E00
251.33	0.0000E00
251.70	0.0000E00
252.08	0.0000E00
252.45	0.0000E00
252.82	0.0000E00
253.19	0.0000E00
253.56	0.0000E00
253.94	0.0000E00
254.31	0.0000E00
254.68	0.0000E00
255.05	0.0000E00
255.42	0.0000E00
255.79	0.0000E00
256.16	0.0000E00
256.54	0.0000E00
256.91	0.0000E00
257.28	0.0000E00
257.65	0.0000E00
258.02	0.0000E00
258.39	0.0000E00
258.76	0.0000E00
259.14	0.0000E00
259.51	0.0000E00
259.88	0.0000E00
260.25	0.0000E00
260.62	0.0000E00
260.99	0.0000E00
261.36	0.0000E00
261.73	0.0000E00
262.10	0.0000E00
262.47	0.0000E00
262.85	0.0000E00
263.22	0.0000E00
263.59	0.0000E00
263.96	0.0000E00
264.33	0.0000E00
264.70	0.0000E00
265.07	0.0000E00
265.44	0.0000E00
265.81	0.0000E00
266.18	0.0000E00
266.55	0.0000E00
266.92	0.0000E00
267.29	0.0000E00
267.66	0.0000E00
268.03	0.0000E00
268.40	0.0000E00
268.77	0.0000E00
269.14	0.0000E00
269.51	0.0000E00
269.88	0.0000E00
270.25	0.0000E00
270.62	0.0000E00
270.99	0.0000E00
271.36	0.0000E00
271.73	0.0000E00
272.10	0.0000E00
272.47	0.0000E00
272.84	0.0000E00
273.21	0.0000E00
273.58	0.0000E00
273.95	0.0000E00
274.32	0.0000E00
274.69	0.0000E00
275.06	0.0000E00
275.43	0.0000E00
275.80	0.0000E00
276.17	0.0000E00
276.54	0.0000E00
276.91	0.0000E00
277.28	0.0000E00
277.65	0.0000E00
278.02	0.0000E00
278.39	0.0000E00
278.76	0.0000E00
279.13	0.0000E00
279.50	0.0000E00
279.87	0.0000E00
280.23	0.0000E00
280.60	0.0000E00
280.97	0.0000E00
281.34	0.0000E00
281.71	0.0000E00
282.08	0.0000E00
282.45	0.0000E00
282.82	0.0000E00
283.19	0.0000E00
283.56	0.0000E00
283.92	0.0000E00
284.29	0.0000E00
284.66	0.0000E00
285.03	0.0000E00
285.40	0.0000E00
285.77	0.0000E00
286.14	0.0000E00
286.51	0.0000E00
286.87	0.0000E00
287.24	0.0000E00
287.61	0.0000E00
287.98	0.0000E00
288.35	0.0000E00
288.72	0.0000E00
289.08	0.0000E00
289.45	0.0000E00
289.82	0.0000E00
290.19	0.0000E00
290.56	0.0000E00
290.93	0.0000E00
291.29	0.0000E00
291.66	0.0000E00
292.03	0.0000E00
292.40	0.0000E00
292.77	0.0000E00
293.13	0.0000E00
293.50	0.0000E00
293.87	0.0000E00
294.24	0.0000E00
294.60	0.0000E00
294.97	0.0000E00
295.34	0.0000E00
295.71	0.0000E00
296.08	0.0000E00
296.44	0.0000E00
296.81	0.0000E00
297.18	0.0000E00
297.55	0.0000E00
297.91	0.0000E00
298.28	0.0000E00
298.65	0.0000E00
299.02	0.0000E00
299.38	0.0000E00
299.75	0.0000E00
300.12	3.0773E00
300.48	6.0489E-01
300.85	9.8278E-01
301.22	9.0853E-01
301.59	9.2932E-01
301.95	1.3190E00
302.32	1.6660E00
302.69	5.6909E-01
303.05	5.9126E-01
303.42	1.0549E00
303.79	8.8421E-01
304.15	1.6886E00
304.52	1.4939E00
304.89	1.6524E00
305.25	1.0667E00
305.62	1.0980E00
305.99	3.8610E00
306.35	1.1588E00
306.72	1.5914E00
307.09	1.3277E00
307.45	1.2127E00
307.82	1.4298E00
308.19	1.3414E00
308.55	1.5258E00
308.92	3.0481E00
309.29	2.0920E00
309.65	1.2394E00
310.02	1.2860E00
310.38	9.2832E-01
310.75	2.7865E00
311.12	9.0552E-01
311.48	1.6818E00
311.85	1.2966E00
312.22	7.6849E-01
312.58	9.7071E-01
312.95	1.4839E00
313.31	1.4920E00
313.68	1.1491E00
314.05	1.4460E00
314.41	2.0536E00
314.78	9.7536E-01
315.14	1.1781E00
315.51	2.3743E00
315.87	1.1962E00
316.24	1.2050E00
316.61	2.1427E00
316.97	1.8371E00
317.34	1.3717E00
317.70	2.4905E00
318.07	1.8817E00
318.43	1.4608E00
318.80	2.2536E00
319.16	1.9313E00
319.53	2.5991E00
319.89	1.4560E00
320.26	1.2388E00
320.62	2.8529E00
320.99	1.0612E00
321.35	1.6959E00
321.72	1.3669E00
322.08	1.5896E00
322.45	1.0973E00
322.81	2.9997E00
323.18	1.8407E00
323.54	1.2924E00
323.91	1.3431E00
324.27	1.0303E00
324.64	1.9807E00
325.00	1.6873E00
325.37	1.0770E00
325.73	1.7082E00
326.10	1.5390E00
326.46	1.4022E00
326.83	3.2185E00
327.19	2.3858E00
327.56	1.4664E00
327.92	1.9868E00
328.29	1.9914E00
328.65	1.5316E00
329.01	1.5341E00
329.38	1.7089E00
329.74	1.7104E00
330.11	1.1548E00
330.47	1.7782E00
330.84	2.3120E00
331.20	2.7193E00
331.56	2.0082E00
331.93	1.8442E00
332.29	2.5572E00
332.66	1.0214E00
333.02	2.1810E00
333.38	1.3070E00
333.75	1.4270E00
334.11	1.7528E00
334.48	1.4206E00
334.84	1.5646E00
335.20	1.5598E00
335.57	1.6713E00
335.93	4.0951E00
336.29	3.4614E00
336.66	1.4989E00
337.02	2.8078E00
337.38	1.1510E00
337.75	1.3611E00
338.11	1.6033E00
338.47	1.1828E00
338.84	1.3250E00
339.20	1.3284E00
339.56	1.4619E00
339.93	1.3777E00
340.29	1.7564E00
340.65	1.1778E00
341.02	2.2000E00
341.38	1.6602E00
341.74	2.3422E00
342.11	1.6269E00
342.47	1.3219E00
342.83	1.7777E00
343.20	1.2740E00
343.56	1.1621E00
343.92	1.6446E00
344.28	1.4636E00
344.65	2.0102E00
345.01	1.2690E00
345.37	2.1359E00
345.73	1.3989E00
346.10	1.1349E00
346.46	1.3868E00
346.82	1.6123E00
347.19	1.6775E00
347.55	1.4258E00
347.91	1.4376E00
348.27	1.5727E00
348.63	1.7912E00
349.00	1.1660E00
349.36	1.1054E00
349.72	1.2340E00
350.08	1.9048E00
350.45	1.5127E00
350.81	1.5613E00
351.17	1.0949E00
351.53	1.4231E00
351.89	1.5413E00
352.26	1.2795E00
352.62	1.4404E00
352.98	1.1866E00
353.34	1.0446E00
353.70	1.3279E00
354.07	1.1106E00
354.43	1.1130E00
354.79	1.2330E00
355.15	9.4681E-01
355.51	1.4139E00
355.87	1.3288E00
356.24	9.8889E-01
356.60	1.3994E00
356.96	1.2133E00
357.32	1.2434E00
357.68	1.1799E00
358.04	1.1857E00
358.40	1.0902E00
358.77	1.2735E00
359.13	1.1861E00
359.49	1.5010E00
359.85	1.4136E00
360.21	1.0582E00
360.57	1.0325E00
360.93	1.1311E00
361.29	1.1050E00
361.66	1.2607E00
362.02	1.0107E00
362.38	1.1395E00
362.74	1.0815E00
363.10	1.2026E00
363.46	1.2383E00
363.82	1.2973E00
364.18	1.1307E00
364.54	1.1808E00
364.90	9.5369E-01
365.26	1.0026E00
365.62	1.1161E00
365.98	1.0533E00
366.35	1.0521E00
366.71	8.4952E-01
367.07	1.4193E00
367.43	1.2391E00
367.79	1.0743E00
368.15	1.0465E00
368.51	1.1755E00
368.87	1.0842E00
369.23	1.2732E00
369.59	1.0070E00
369.95	1.4253E00
370.31	1.1323E00
370.67	1.1878E00
371.03	1.0254E00
371.39	1.0023E00
371.75	1.2754E00
372.11	1.1324E00
372.47	9.8877E-01
372.83	1.1412E00
373.19	1.1931E00
373.55	1.0732E00
373.91	1.1873E00
374.27	9.1188E-01
374.63	1.0450E00
374.99	9.8295E-01
375.35	1.0863E00
375.71	1.0622E00
376.07	9.9016E-01
376.42	1.0929E00
376.78	1.0072E00
377.14	9.5397E-01
377.50	1.0779E00
377.86	1.0080E00
378.22	1.1803E00
378.58	9.4591E-01
378.94	1.0442E00
379.30	8.5434E-01
379.66	9.5609E-01
380.02	1.0438E00
380.38	8.9089E-01
380.74	9.8282E-01
381.09	9.8302E-01
381.45	9.1051E-01
381.81	9.1858E-01
382.17	9.0608E-01
382.53	8.5802E-01
382.89	8.1492E-01
383.25	9.4817E-01
383.61	9.4248E-01
383.97	9.9628E-01
384.32	1.0055E00
384.68	9.4186E-01
385.04	9.2330E-01
385.40	9.3945E-01
385.76	7.5158E-01
386.12	9.3165E-01
386.48	8.3145E-01
386.83	9.1726E-01
387.19	8.9013E-01
387.55	9.6780E-01
387.91	9.3747E-01
388.27	8.5116E-01
388.62	8.5316E-01
388.98	8.7250E-01
389.34	9.0094E-01
389.70	8.8260E-01
390.06	8.7473E-01
390.42	8.5728E-01
390.77	8.3649E-01
391.13	8.9396E-01
391.49	8.6606E-01
391.85	9.4288E-01
392.20	8.6239E-01
392.56	8.9501E-01
392.92	8.5453E-01
393.28	8.5276E-01
393.64	8.7837E-01
393.99	9.0097E-01
394.35	8.3067E-01
394.71	9.4251E-01
395.07	8.7592E-01
395.42	8.4015E-01
395.78	8.3078E-01
396.14	8.3770E-01
396.50	7.8513E-01
396.85	9.0976E-01
397.21	9.4248E-01
397.57	8.5109E-01
397.92	8.7039E-01
398.28	7.8052E-01
398.64	8.2971E-01
399.00	7.9365E-01
399.35	7.8340E-01
399.71	8.3285E-01
400.07	8.2577E-01
400.42	8.2918E-01
400.78	7.9844E-01
401.14	7.9239E-01
401.49	7.9852E-01
401.85	7.9995E-01
402.21	7.2516E-01
402.57	7.5842E-01
402.92	8.1755E-01
403.28	8.1483E-01
403.63	7.9961E-01
403.99	8.2558E-01
404.35	7.6352E-01
404.70	7.6993E-01
405.06	7.5778E-01
405.42	8.1328E-01
405.77	7.4252E-01
406.13	7.2172E-01
406.49	6.9262E-01
406.84	7.1389E-01
407.20	7.6036E-01
407.55	7.8376E-01
407.91	7.9366E-01
408.27	7.2246E-01
408.62	7.0716E-01
408.98	7.3776E-01
409.34	7.2395E-01
409.69	7.6259E-01
410.05	7.1215E-01
410.40	7.1875E-01
410.76	6.9214E-01
411.11	7.1886E-01
411.47	7.3648E-01
411.83	7.0132E-01
412.18	6.9958E-01
412.54	6.9573E-01
412.89	7.1300E-01
413.25	6.6433E-01
413.60	6.8606E-01
413.96	7.3073E-01
414.31	6.8891E-01
414.67	7.1819E-01
415.03	7.2665E-01
415.38	7.5769E-01
415.74	7.2575E-01
416.09	7.1714E-01
416.45	7.4225E-01
416.80	7.1237E-01
417.16	7.1175E-01
417.51	7.0335E-01
417.87	7.2411E-01
418.22	6.7825E-01
418.58	6.9990E-01
418.93	6.5597E-01
419.29	6.9355E-01
419.64	6.6100E-01
420.00	6.8104E-01
420.35	6.7302E-01
420.71	6.4837E-01
421.06	6.7320E-01
421.42	7.0743E-01
421.77	6.6569E-01
422.12	6.7934E-01
422.48	6.5472E-01
422.83	6.8530E-01
423.19	6.4882E-01
423.54	6.7243E-01
423.90	6.5531E-01
424.25	6.4389E-01
424.61	6.7431E-01
424.96	6.4363E-01
425.31	6.2388E-01
425.67	6.1806E-01
426.02	6.3037E-01
426.38	6.3134E-01
426.73	6.2209E-01
427.09	6.3203E-01
427.44	6.0110E-01
427.79	6.1650E-01
428.15	6.1985E-01
428.50	6.2783E-01
428.85	6.4565E-01
429.21	5.8418E-01
429.56	5.9378E-01
429.92	5.8690E-01
430.27	6.0344E-01
430.62	6.2189E-01
430.98	6.2870E-01
431.33	6.1063E-01
431.68	5.9749E-01
432.04	5.9015E-01
432.39	5.8969E-01
432.74	6.1416E-01
433.10	5.6801E-01
433.45	6.0847E-01
433.80	5.9607E-01
434.16	5.9003E-01
434.51	5.8350E-01
434.86	6.0232E-01
435.22	5.7455E-01
435.57	6.2627E-01
435.92	6.0231E-01
436.28	5.6658E-01
436.63	5.7211E-01
436.98	5.7585E-01
437.34	5.9810E-01
437.69	5.7547E-01
438.04	5.5543E-01
438.39	5.9636E-01
438.75	5.7995E-01
439.10	5.6450E-01
439.45	5.9214E-01
439.81	5.9363E-01
440.16	5.5946E-01
440.51	5.7203E-01
440.86	6.0015E-01
441.22	5.7553E-01
441.57	5.5429E-01
441.92	5.5353E-01
442.27	5.7060E-01
442.63	5.6220E-01
442.98	5.9243E-01
443.33	5.8200E-01
443.68	5.4653E-01
444.03	5.3858E-01
444.39	5.3205E-01
444.74	5.7710E-01
445.09	5.8062E-01
445.44	5.7149E-01
445.79	5.2205E-01
446.15	5.5691E-01
446.50	5.6205E-01
446.85	5.3017E-01
447.20	5.2792E-01
447.55	5.5507E-01
447.91	5.5070E-01
448.26	5.6084E-01
448.61	5.4821E-01
448.96	5.2971E-01
449.31	5.4086E-01
449.66	5.4832E-01
450.02	5.4459E-01
450.37	5.4676E-01
450.72	5.3385E-01
451.07	5.7687E-01
451.42	5.8040E-01
451.77	5.4932E-01
452.12	5.4002E-01
452.47	5.7473E-01
452.83	5.3313E-01
453.18	5.4918E-01
453.53	5.4397E-01
453.88	5.0666E-01
454.23	5.1680E-01
454.58	5.1242E-01
454.93	5.2549E-01
455.28	5.2540E-01
455.63	5.1535E-01
455.98	5.0825E-01
456.34	5.3535E-01
456.69	5.2473E-01
457.04	5.2546E-01
457.39	4.9618E-01
457.74	5.0222E-01
458.09	5.0280E-01
458.44	4.9567E-01
458.79	4.8388E-01
459.14	4.8692E-01
459.49	5.1360E-01
459.84	4.9233E-01
460.19	5.1747E-01
460.54	5.2955E-01
460.89	4.8092E-01
461.24	5.1808E-01
461.59	5.0040E-01
461.94	5.1229E-01
462.29	4.7159E-01
462.64	5.0458E-01
462.99	5.1233E-01
463.34	5.3204E-01
463.69	4.9042E-01
464.04	4.7059E-01
464.39	4.7657E-01
464.74	4.9440E-01
465.09	5.0877E-01
465.44	4.7350E-01
465.79	4.8936E-01
466.14	4.8732E-01
466.49	4.8357E-01
466.84	4.8186E-01
467.19	4.8758E-01
467.54	4.8601E-01
467.89	4.7326E-01
468.24	4.5294E-01
468.59	4.6087E-01
468.94	4.6111E-01
469.29	4.5885E-01
469.64	4.6970E-01
469.99	4.6176E-01
470.34	4.4113E-01
470.68	4.7587E-01
471.03	4.5109E-01
471.38	4.4666E-01
471.73	4.3615E-01
472.08	4.2913E-01
472.43	4.1505E-01
472.78	4.4074E-01
473.13	4.3723E-01
473.48	4.2630E-01
473.83	4.1552E-01
474.17	4.3200E-01
474.52	4.1887E-01
474.87	4.0401E-01
475.22	4.1140E-01
475.57	3.8961E-01
475.92	3.7561E-01
476.27	3.9914E-01
476.61	3.8269E-01
476.96	3.7776E-01
477.31	3.5619E-01
477.66	3.6875E-01
478.01	3.6158E-01
478.36	3.6184E-01
478.70	3.5412E-01
479.05	3.5634E-01
479.40	3.4832E-01
479.75	3.4943E-01
480.10	3.4099E-01
480.45	3.3637E-01
480.79	3.3429E-01
481.14	3.4015E-01
481.49	3.3448E-01
481.84	3.2478E-01
482.19	3.1774E-01
482.53	3.2407E-01
482.88	3.1816E-01
483.23	3.1386E-01
483.58	3.0996E-01
483.92	3.1717E-01
484.27	3.0412E-01
484.62	3.0423E-01
484.97	2.9812E-01
485.31	2.9422E-01
485.66	2.9958E-01
486.01	3.0043E-01
486.36	2.8993E-01
486.70	2.9480E-01
487.05	2.9363E-01
487.40	2.9011E-01
487.75	2.8534E-01
488.09	2.8477E-01
488.44	2.8819E-01
488.79	2.8605E-01
489.13	2.8181E-01
489.48	2.8215E-01
489.83	2.8468E-01
490.17	2.7643E-01
490.52	2.7562E-01
490.87	2.7666E-01
491.22	2.7999E-01
491.56	2.7913E-01
491.91	2.8138E-01
492.26	2.7902E-01
492.60	2.7798E-01
492.95	2.8011E-01
493.30	2.7931E-01
493.64	2.7593E-01
493.99	2.8055E-01
494.34	2.7634E-01
494.68	2.7235E-01
495.03	2.7768E-01
495.37	2.7371E-01
495.72	2.7810E-01
496.07	2.7157E-01
496.41	2.7495E-01
496.76	2.7440E-01
497.11	2.7571E-01
497.45	2.7525E-01
497.80	2.7641E-01
498.14	2.7271E-01
498.49	2.7722E-01
498.84	2.7489E-01
499.18	2.7565E-01
499.53	2.7498E-01
499.87	2.7060E-01
500.22	2.7786E-01
500.56	2.7477E-01
500.91	2.7575E-01
501.26	2.7322E-01
501.60	2.7511E-01
501.95	2.7272E-01
502.29	2.7422E-01
502.64	2.7230E-01
502.98	2.7663E-01
503.33	2.7203E-01
503.67	2.7505E-01
504.02	2.7364E-01
504.36	2.7237E-01
504.71	2.7393E-01
505.06	2.7221E-01
505.40	2.7028E-01
505.75	2.7156E-01
506.09	2.7112E-01
506.44	2.7057E-01
506.78	2.7223E-01
507.13	2.7303E-01
507.47	2.7014E-01
507.82	2.6988E-01
508.16	2.7028E-01
508.51	2.6954E-01
508.85	2.6600E-01
509.19	2.6705E-01
509.54	2.6899E-01
509.88	2.6867E-01
510.23	2.6383E-01
510.57	2.6474E-01
510.92	2.6650E-01
511.26	2.6633E-01
511.61	2.6665E-01
511.95	2.6428E-01
512.30	2.6410E-01
512.64	2.6500E-01
512.98	2.6394E-01
513.33	2.6483E-01
513.67	2.6274E-01
514.02	2.6402E-01
514.36	2.6098E-01
514.70	2.6162E-01
515.05	2.6040E-01
515.39	2.6109E-01
515.74	2.6191E-01
516.08	2.6280E-01
516.42	2.5906E-01
516.77	2.6105E-01
517.11	2.5893E-01
517.46	2.5967E-01
517.80	2.5904E-01
518.14	2.5817E-01
518.49	2.5785E-01
518.83	2.5719E-01
519.17	2.6082E-01
519.52	2.5830E-01
519.86	2.5910E-01
520.20	2.5656E-01
520.55	2.5794E-01
520.89	2.5663E-01
521.23	2.5792E-01
521.58	2.5923E-01
521.92	2.5822E-01
522.26	2.6177E-01
522.61	2.5750E-01
522.95	2.5933E-01
523.29	2.5600E-01
523.64	2.5733E-01
523.98	2.5942E-01
524.32	2.5924E-01
524.66	2.5974E-01
525.01	2.5972E-01
525.35	2.6144E-01
525.69	2.6122E-01
526.04	2.6298E-01
526.38	2.5733E-01
526.72	2.6364E-01
527.06	2.6064E-01
527.41	2.6390E-01
527.75	2.6481E-01
528.09	2.6184E-01
528.43	2.6629E-01
528.78	2.6455E-01
529.12	2.6890E-01
529.46	2.6718E-01
529.80	2.6801E-01
530.15	2.6788E-01
530.49	2.6922E-01
530.83	2.7151E-01
531.17	2.7070E-01
531.51	2.7257E-01
531.86	2.7066E-01
532.20	2.7421E-01
532.54	2.7378E-01
532.88	2.7561E-01
533.22	2.7817E-01
533.57	2.8179E-01
533.91	2.7693E-01
534.25	2.7876E-01
534.59	2.7924E-01
534.93	2.7854E-01
535.27	2.7918E-01
535.62	2.8447E-01
535.96	2.8345E-01
536.30	2.8286E-01
536.64	2.8455E-01
536.98	2.8868E-01
537.32	2.8544E-01
537.66	2.8841E-01
538.01	2.8783E-01
538.35	2.9122E-01
538.69	2.9013E-01
539.03	2.9405E-01
539.37	2.9222E-01
539.71	2.9426E-01
540.05	2.9286E-01
540.39	2.9357E-01
540.73	2.9484E-01
541.07	2.9391E-01
541.42	2.9402E-01
541.76	2.9583E-01
542.10	2.9776E-01
542.44	2.9805E-01
542.78	3.0094E-01
543.12	2.9546E-01
543.46	3.0179E-01
543.80	2.9716E-01
544.14	2.9923E-01
544.48	2.9720E-01
544.82	3.0206E-01
545.16	3.0094E-01
545.50	3.0055E-01
545.84	3.0523E-01
546.18	3.0197E-01
546.52	3.0326E-01
546.86	3.0173E-01
547.20	3.0727E-01
547.54	3.0953E-01
547.88	3.0482E-01
548.22	3.0526E-01
548.56	3.0840E-01
548.90	3.0833E-01
549.24	3.0853E-01
549.58	3.0935E-01
549.92	3.0932E-01
550.26	3.1069E-01
550.60	3.0983E-01
550.94	3.0845E-01
551.28	3.1298E-01
551.62	3.0913E-01
551.96	3.1147E-01
552.30	3.1318E-01
552.64	3.1286E-01
552.98	3.1318E-01
553.32	3.1380E-01
553.66	3.1366E-01
554.00	3.1022E-01
554.34	3.1298E-01
554.68	3.1274E-01
555.02	3.1156E-01
555.36	3.1555E-01
555.69	3.1700E-01
556.03	3.1265E-01
556.37	3.1542E-01
556.71	3.1316E-01
557.05	3.1341E-01
557.39	3.1540E-01
557.73	3.1307E-01
558.07	3.1561E-01
558.41	3.1549E-01
558.75	3.1667E-01
559.08	3.1499E-01
559.42	3.1399E-01
559.76	3.1666E-01
560.10	3.1702E-01
560.44	3.1749E-01
560.78	3.1345E-01
561.12	3.1791E-01
561.45	3.1811E-01
561.79	3.1643E-01
562.13	3.1599E-01
562.47	3.1654E-01
562.81	3.1814E-01
563.15	3.1878E-01
563.48	3.1901E-01
563.82	3.1487E-01
564.16	3.1784E-01
564.50	3.2036E-01
564.84	3.1661E-01
565.17	3.1754E-01
565.51	3.1580E-01
565.85	3.1989E-01
566.19	3.1578E-01
566.52	3.2019E-01
566.86	3.1761E-01
567.20	3.2205E-01
567.54	3.2057E-01
567.88	3.2083E-01
568.21	3.2164E-01
568.55	3.2051E-01
568.89	3.2121E-01
569.23	3.2148E-01
569.56	3.2052E-01
569.90	3.2095E-01
570.24	3.2481E-01
570.57	3.2200E-01
570.91	3.2385E-01
571.25	3.2252E-01
571.59	3.2329E-01
571.92	3.2402E-01
572.26	3.2438E-01
572.60	3.2639E-01
572.93	3.2454E-01
573.27	3.3027E-01
573.61	3.3001E-01
573.95	3.2244E-01
574.28	3.3062E-01
574.62	3.2986E-01
574.96	3.3274E-01
575.29	3.3159E-01
575.63	3.3573E-01
575.97	3.3338E-01
576.30	3.3875E-01
576.64	3.3479E-01
576.98	3.3750E-01
577.31	3.3908E-01
577.65	3.4196E-01
577.98	3.3642E-01
578.32	3.4323E-01
578.66	3.4590E-01
578.99	3.4449E-01
579.33	3.4709E-01
579.67	3.4584E-01
580.00	3.4708E-01
580.34	3.4764E-01
580.67	3.5058E-01
581.01	3.4919E-01
581.35	3.5150E-01
581.68	3.5272E-01
582.02	3.5436E-01
582.35	3.5315E-01
582.69	3.5586E-01
583.02	3.6105E-01
583.36	3.6069E-01
583.70	3.5990E-01
584.03	3.6057E-01
584.37	3.6021E-01
584.70	3.6349E-01
585.04	3.6649E-01
585.37	3.6493E-01
585.71	3.6928E-01
586.04	3.6879E-01
586.38	3.6663E-01
586.72	3.7439E-01
587.05	3.6911E-01
587.39	3.7269E-01
587.72	3.7053E-01
588.06	3.7582E-01
588.39	3.7070E-01
588.73	3.7840E-01
589.06	3.7647E-01
589.40	3.7958E-01
589.73	3.8210E-01
590.07	3.8240E-01
590.40	3.8433E-01
590.73	3.8657E-01
591.07	3.8528E-01
591.40	3.8846E-01
591.74	3.8245E-01
592.07	3.8878E-01
592.41	3.9039E-01
592.74	3.9109E-01
593.08	3.8755E-01
593.41	3.9046E-01
593.75	3.9256E-01
594.08	3.9672E-01
594.41	3.9545E-01
594.75	3.9725E-01
595.08	3.9528E-01
595.42	3.9206E-01
595.75	3.9520E-01
596.09	3.9905E-01
596.42	3.9639E-01
596.75	3.9774E-01
597.09	4.0346E-01
597.42	3.9610E-01
597.75	4.0470E-01
598.09	4.0361E-01
598.42	4.0121E-01
598.76	4.0123E-01
599.09	4.0532E-01
599.42	4.0680E-01
599.76	4.0472E-01
600.09	4.0679E-01
600.42	4.1068E-01
600.76	4.0137E-01
601.09	4.0466E-01
601.42	4.1431E-01
601.76	4.1097E-01
602.09	4.0930E-01
602.42	4.0790E-01
602.76	4.0794E-01
603.09	4.0886E-01
603.42	4.1205E-01
603.76	4.0931E-01
604.09	4.1116E-01
604.42	4.1131E-01
604.76	4.0873E-01
605.09	4.1427E-01
605.42	4.1069E-01
605.75	4.1323E-01
606.09	4.1570E-01
606.42	4.1457E-01
606.75	4.1762E-01
607.09	4.1453E-01
607.42	4.1375E-01
607.75	4.1533E-01
608.08	4.1654E-01
608.42	4.1894E-01
608.75	4.1632E-01
609.08	4.1984E-01
609.41	4.1811E-01
609.75	4.1613E-01
610.08	4.1977E-01
610.41	4.1982E-01
610.74	4.1983E-01
611.07	4.2082E-01
611.41	4.1565E-01
611.74	4.2018E-01
612.07	4.1867E-01
612.40	4.1626E-01
612.73	4.2038E-01
613.07	4.2549E-01
613.40	4.1890E-01
613.73	4.1904E-01
614.06	4.2344E-01
614.39	4.2061E-01
614.72	4.2593E-01
615.06	4.2356E-01
615.39	4.2796E-01
615.72	4.2368E-01
616.05	4.2903E-01
616.38	4.2918E-01
616.71	4.2720E-01
617.05	4.2424E-01
617.38	4.2921E-01
617.71	4.2812E-01
618.04	4.2784E-01
618.37	4.2366E-01
618.70	4.2779E-01
619.03	4.2797E-01
619.36	4.2100E-01
619.69	4.2959E-01
620.03	4.2668E-01
620.36	4.2678E-01
620.69	4.2651E-01
621.02	4.2522E-01
621.35	4.2556E-01
621.68	4.2380E-01
622.01	4.2687E-01
622.34	4.2578E-01
622.67	4.2599E-01
623.00	4.2579E-01
623.33	4.2414E-01
623.66	4.2638E-01
623.99	4.2810E-01
624.32	4.2180E-01
624.65	4.2429E-01
624.99	4.2443E-01
625.32	4.2904E-01
625.65	4.2638E-01
625.98	4.2219E-01
626.31	4.2535E-01
626.64	4.2881E-01
626.97	4.2724E-01
627.30	4.2362E-01
627.63	4.2248E-01
627.96	4.2154E-01
628.29	4.2323E-01
628.62	4.2632E-01
628.95	4.2580E-01
629.28	4.2123E-01
629.61	4.3142E-01
629.94	4.2801E-01
630.26	4.2984E-01
630.59	4.3016E-01
630.92	4.2857E-01
631.25	4.2829E-01
631.58	4.3624E-01
631.91	4.3080E-01
632.24	4.3551E-01
632.57	4.3438E-01
632.90	4.3580E-01
633.23	4.3314E-01
633.56	4.3714E-01
633.89	4.3674E-01
634.22	4.3838E-01
634.55	4.3901E-01
634.88	4.4243E-01
635.20	4.4342E-01
635.53	4.4802E-01
635.86	4.4494E-01
636.19	4.5158E-01
636.52	4.5139E-01
636.85	4.5191E-01
637.18	4.5620E-01
637.51	4.5485E-01
637.83	4.5869E-01
638.16	4.5710E-01
638.49	4.6487E-01
638.82	4.5943E-01
639.15	4.6723E-01
639.48	4.6724E-01
639.81	4.7423E-01
640.13	4.6909E-01
640.46	4.7771E-01
640.79	4.7444E-01
641.12	4.8012E-01
641.45	4.7626E-01
641.77	4.7671E-01
642.10	4.8869E-01
642.43	4.9002E-01
642.76	4.9412E-01
643.09	4.8906E-01
643.41	4.9372E-01
643.74	4.9332E-01
644.07	4.9633E-01
644.40	4.9576E-01
644.73	5.0356E-01
645.05	5.0372E-01
645.38	5.0226E-01
645.71	5.1025E-01
646.04	5.0901E-01
646.36	5.0862E-01
646.69	5.1747E-01
647.02	5.1921E-01
647.35	5.1415E-01
647.67	5.2271E-01
648.00	5.2014E-01
648.33	5.2471E-01
648.66	5.2234E-01
648.98	5.2936E-01
649.31	5.2646E-01
649.64	5.2891E-01
649.96	5.3292E-01
650.29	5.4065E-01
650.62	5.3653E-01
650.94	5.3691E-01
651.27	5.3967E-01
651.60	5.3718E-01
651.92	5.4773E-01
652.25	5.5140E-01
652.58	5.4949E-01
652.90	5.4889E-01
653.23	5.5017E-01
653.56	5.5285E-01
653.88	5.5717E-01
654.21	5.5503E-01
654.54	5.5938E-01
654.86	5.6541E-01
655.19	5.6240E-01
655.52	5.6776E-01
655.84	5.6167E-01
656.17	5.6984E-01
656.49	5.6964E-01
656.82	5.6669E-01
657.15	5.7316E-01
657.47	5.7495E-01
657.80	5.7683E-01
658.13	5.7562E-01
658.45	5.7821E-01
658.78	5.7919E-01
659.10	5.8407E-01
659.43	5.8177E-01
659.75	5.8411E-01
660.08	5.8205E-01
660.41	5.9343E-01
660.73	5.9030E-01
661.06	5.9033E-01
661.38	5.9380E-01
661.71	5.9739E-01
662.03	5.9405E-01
662.36	6.0177E-01
662.68	5.9756E-01
663.01	5.9256E-01
663.33	6.0144E-01
663.66	6.0370E-01
663.98	6.0232E-01
664.31	6.0383E-01
664.63	6.1674E-01
664.96	6.0142E-01
665.28	6.0925E-01
665.61	6.1087E-01
665.93	6.1152E-01
666.26	6.1096E-01
666.58	6.1528E-01
666.91	6.1696E-01
667.23	6.2339E-01
667.56	6.1749E-01
667.88	6.2053E-01
668.21	6.2493E-01
668.53	6.2180E-01
668.86	6.2948E-01
669.18	6.2472E-01
669.50	6.3350E-01
669.83	6.2768E-01
670.15	6.3265E-01
670.48	6.3433E-01
670.80	6.3255E-01
671.13	6.3326E-01
671.45	6.3701E-01
671.77	6.3637E-01
672.10	6.3431E-01
672.42	6.4980E-01
672.75	6.4270E-01
673.07	6.4779E-01
673.39	6.4195E-01
673.72	6.4612E-01
674.04	6.5063E-01
674.37	6.5010E-01
674.69	6.4875E-01
675.01	6.5309E-01
675.34	6.5944E-01
675.66	6.5838E-01
675.98	6.5284E-01
676.31	6.6256E-01
676.63	6.5988E-01
676.95	6.6190E-01
677.28	6.6919E-01
677.60	6.6980E-01
677.92	6.6422E-01
678.25	6.7278E-01
678.57	6.7306E-01
678.89	6.6881E-01
679.22	6.7971E-01
679.54	6.7630E-01
679.86	6.7873E-01
680.18	6.8444E-01
680.51	6.7711E-01
680.83	6.9320E-01
681.15	6.8415E-01
681.48	6.8811E-01
681.80	6.8819E-01
682.12	6.8571E-01
682.44	6.9859E-01
682.77	7.0093E-01
683.09	7.0396E-01
683.41	6.9867E-01
683.73	7.0725E-01
684.06	7.0375E-01
684.38	7.0672E-01
684.70	7.0995E-01
685.02	7.1179E-01
685.34	7.1810E-01
685.67	7.1464E-01
685.99	7.2943E-01
686.31	7.1961E-01
686.63	7.2837E-01
686.96	7.3275E-01
687.28	7.3705E-01
687.60	7.2464E-01
687.92	7.3225E-01
688.24	7.4107E-01
688.56	7.4802E-01
688.89	7.4102E-01
689.21	7.5025E-01
689.53	7.4622E-01
689.85	7.5519E-01
690.17	7.4994E-01
690.49	7.6361E-01
690.82	7.6318E-01
691.14	7.6237E-01
691.46	7.6608E-01
691.78	7.6967E-01
692.10	7.6676E-01
692.42	7.7715E-01
692.74	7.8248E-01
693.06	7.7962E-01
693.39	7.9019E-01
693.71	7.9536E-01
694.03	7.9609E-01
694.35	8.0009E-01
694.67	8.0073E-01
694.99	8.1365E-01
695.31	8.0697E-01
695.63	8.1168E-01
695.95	8.1889E-01
696.27	8.1900E-01
696.59	8.2096E-01
696.91	8.2951E-01
697.23	8.3532E-01
697.56	8.3650E-01
697.88	8.3534E-01
698.20	8.4061E-01
698.52	8.4552E-01
698.84	8.5267E-01
699.16	8.5633E-01
699.48	8.5243E-01
699.80	8.6084E-01
700.12	8.7192E-01
700.44	8.7176E-01
700.76	8.7659E-01
701.08	8.8527E-01
701.40	8.8288E-01
701.72	8.8782E-01
702.04	8.9036E-01
702.36	8.9924E-01
702.68	9.0557E-01
703.00	9.0763E-01
703.32	9.1325E-01
703.64	9.2051E-01
703.96	9.1095E-01
704.28	9.1530E-01
704.60	9.2437E-01
704.91	9.3306E-01
705.23	9.3190E-01
705.55	9.4656E-01
705.87	9.4297E-01
706.19	9.4354E-01
706.51	9.5027E-01
706.83	9.5413E-01
707.15	9.7354E-01
707.47	9.6489E-01
707.79	9.7970E-01
708.11	9.7648E-01
708.43	9.8369E-01
708.74	9.9087E-01
709.06	9.9952E-01
709.38	9.9893E-01
709.70	1.0006E00
710.02	1.0099E00
710.34	1.0049E00
710.66	1.0215E00
710.98	1.0273E00
711.29	1.0312E00
711.61	1.0429E00
711.93	1.0441E00
712.25	1.0402E00
712.57	1.0544E00
712.89	1.0627E00
713.20	1.0611E00
713.52	1.0647E00
713.84	1.0853E00
714.16	1.0751E00
714.48	1.0753E00
714.80	1.0965E00
715.11	1.0939E00
715.43	1.1031E00
715.75	1.1025E00
716.07	1.1320E00
716.39	1.1019E00
716.70	1.1188E00
717.02	1.1123E00
717.34	1.1377E00
717.66	1.1359E00
717.97	1.1383E00
718.29	1.1529E00
718.61	1.1557E00
718.93	1.1730E00
719.24	1.1714E00
719.56	1.1783E00
719.88	1.1916E00
720.20	1.2010E00
720.51	1.2115E00
720.83	1.2046E00
721.15	1.2324E00
721.46	1.2263E00
721.78	1.2394E00
722.10	1.2552E00
722.42	1.2542E00
722.73	1.2675E00
723.05	1.2660E00
723.37	1.2772E00
723.68	1.3065E00
724.00	1.2895E00
724.32	1.3119E00
724.63	1.2972E00
724.95	1.3089E00
725.27	1.3147E00
725.58	1.3207E00
725.90	1.3139E00
726.22	1.3370E00
726.53	1.3267E00
726.85	1.3350E00
727.16	1.3436E00
727.48	1.3486E00
727.80	1.3526E00
728.11	1.3638E00
728.43	1.3502E00
728.74	1.3510E00
729.06	1.3799E00
729.38	1.3768E00
729.69	1.3793E00
730.01	1.3890E00
730.32	1.4006E00
730.64	1.3982E00
730.96	1.3805E00
731.27	1.4178E00
731.59	1.3973E00
731.90	1.3943E00
732.22	1.4069E00
732.53	1.4243E00
732.85	1.4399E00
733.16	1.4272E00
733.48	1.4221E00
733.80	1.4184E00
734.11	1.4464E00
734.43	1.4692E00
734.74	1.4549E00
735.06	1.4696E00
735.37	1.4640E00
735.69	1.4699E00
736.00	1.4782E00
736.32	1.4764E00
736.63	1.4919E00
736.95	1.5009E00
737.26	1.5199E00
737.58	1.5085E00
737.89	1.5158E00
738.21	1.5078E00
738.52	1.5189E00
738.83	1.5414E00
739.15	1.5247E00
739.46	1.5501E00
739.78	1.5386E00
740.09	1.5489E00
740.41	1.5494E00
740.72	1.5482E00
741.04	1.5521E00
741.35	1.5605E00
741.66	1.5798E00
741.98	1.5688E00
742.29	1.5758E00
742.61	1.5887E00
742.92	1.5665E00
743.23	1.5799E00
743.55	1.5927E00
743.86	1.5826E00
744.18	1.5906E00
744.49	1.5797E00
744.80	1.5742E00
745.12	1.5781E00
745.43	1.5968E00
745.74	1.5950E00
746.06	1.5840E00
746.37	1.5843E00
746.68	1.5883E00
747.00	1.5927E00
747.31	1.5889E00
747.62	1.5799E00
747.94	1.5886E00
748.25	1.5873E00
748.56	1.5919E00
748.88	1.5819E00
749.19	1.5969E00
749.50	1.5842E00
749.82	1.5960E00
750.13	1.5909E00
750.44	1.5891E00
750.75	1.5774E00
751.07	1.5863E00
751.38	1.6094E00
751.69	1.5895E00
752.01	1.6118E00
752.32	1.6045E00
752.63	1.5903E00
752.94	1.5951E00
753.26	1.5965E00
753.57	1.5967E00
753.88	1.6141E00
754.19	1.6012E00
754.51	1.6151E00
754.82	1.6039E00
755.13	1.6346E00
755.44	1.6177E00
755.75	1.6253E00
756.07	1.6399E00
756.38	1.6503E00
756.69	1.6420E00
757.00	1.6655E00
757.31	1.6719E00
757.63	1.6723E00
757.94	1.6816E00
758.25	1.6993E00
758.56	1.6694E00
758.87	1.7084E00
759.18	1.7105E00
759.50	1.7036E00
759.81	1.7100E00
760.12	1.7253E00
760.43	1.7405E00
760.74	1.7486E00
761.05	1.7694E00
761.36	1.7630E00
761.67	1.7891E00
761.99	1.7885E00
762.30	1.7689E00
762.61	1.7993E00
762.92	1.8210E00
763.23	1.8331E00
763.54	1.8319E00
763.85	1.8666E00
764.16	1.8734E00
764.47	1.8901E00
764.78	1.8910E00
765.10	1.9116E00
765.41	1.9277E00
765.72	1.9119E00
766.03	1.9678E00
766.34	1.9703E00
766.65	1.9824E00
766.96	2.0170E00
767.27	2.0201E00
767.58	2.0114E00
767.89	2.0316E00
768.20	2.0816E00
768.51	2.0860E00
768.82	2.0827E00
769.13	2.0908E00
769.44	2.1450E00
769.75	2.1397E00
770.06	2.1414E00
770.37	2.1492E00
770.68	2.1823E00
770.99	2.2186E00
771.30	2.2374E00
771.61	2.2857E00
771.92	2.2637E00
772.23	2.2786E00
772.54	2.3119E00
772.85	2.3137E00
773.16	2.3512E00
773.47	2.3909E00
773.78	2.3927E00
774.09	2.4011E00
774.39	2.4229E00
774.70	2.4247E00
775.01	2.4905E00
775.32	2.5000E00
775.63	2.5095E00
775.94	2.5285E00
776.25	2.5190E00
776.56	2.5772E00
776.87	2.6263E00
777.18	2.6198E00
777.48	2.6630E00
777.79	2.6865E00
778.10	2.7094E00
778.41	2.7357E00
778.72	2.7472E00
779.03	2.7420E00
779.34	2.8026E00
779.65	2.8075E00
779.95	2.8161E00
780.26	2.8662E00
780.57	2.8630E00
780.88	2.8739E00
781.19	2.9269E00
781.50	2.9116E00
781.80	2.9726E00
782.11	2.9978E00
782.42	3.0064E00
782.73	3.0185E00
783.04	3.0969E00
783.34	3.1090E00
783.65	3.1526E00
783.96	3.1142E00
784.27	3.1410E00
784.57	3.1855E00
784.88	3.2041E00
785.19	3.2527E00
785.50	3.2555E00
785.81	3.3012E00
786.11	3.2714E00
786.42	3.3473E00
786.73	3.4198E00
787.04	3.4129E00
787.34	3.4191E00
787.65	3.4270E00
787.96	3.5403E00
788.26	3.5707E00
788.57	3.5620E00
788.88	3.5335E00
789.19	3.5926E00
789.49	3.6124E00
789.80	3.7052E00
790.11	3.7296E00
790.41	3.7297E00
790.72	3.7858E00
791.03	3.7924E00
791.33	3.8265E00
791.64	3.8177E00
791.95	3.8537E00
792.25	3.9333E00
792.56	3.9988E00
792.87	4.0011E00
793.17	3.9985E00
793.48	3.9815E00
793.79	4.0874E00
794.09	4.0867E00
794.40	4.0639E00
794.70	4.0589E00
795.01	4.1867E00
795.32	4.1678E00
795.62	4.2482E00
795.93	4.2509E00
796.23	4.2843E00
796.54	4.3166E00
796.85	4.3039E00
797.15	4.3518E00
797.46	4.3894E00
797.76	4.4764E00
798.07	4.5043E00
798.37	4.5245E00
798.68	4.6037E00
798.99	4.6607E00
799.29	4.6467E00
799.60	4.7535E00
799.90	4.7389E00
800.21	4.7628E00
800.51	4.7856E00
800.82	4.8587E00
801.12	4.8952E00
801.43	4.9852E00
801.73	4.9523E00
802.04	4.9588E00
802.34	4.9617E00
802.65	5.0929E00
802.95	5.1965E00
803.26	5.1260E00
803.56	5.0979E00
803.87	5.1873E00
804.17	5.1599E00
804.48	5.3181E00
804.78	5.2593E00
805.09	5.3269E00
805.39	5.3249E00
805.70	5.4132E00
806.00	5.4089E00
806.30	5.4039E00
806.61	5.5181E00
806.91	5.5352E00
807.22	5.5434E00
807.52	5.7132E00
807.83	5.6176E00
808.13	5.6589E00
808.43	5.6688E00
808.74	5.7549E00
809.04	5.8205E00
809.35	5.7590E00
809.65	5.9334E00
809.95	6.0360E00
810.26	6.0593E00
810.56	5.9737E00
810.86	6.1354E00
811.17	6.1941E00
811.47	6.2483E00
811.77	6.1383E00
812.08	6.2890E00
812.38	6.3504E00
812.69	6.2540E00
812.99	6.3442E00
813.29	6.3377E00
813.59	6.4671E00
813.90	6.5282E00
814.20	6.5640E00
814.50	6.6996E00
814.81	6.6101E00
815.11	6.7593E00
815.41	6.9646E00
815.72	6.8449E00
816.02	6.8643E00
816.32	6.9318E00
816.62	6.8316E00
816.93	6.9550E00
817.23	7.0947E00
817.53	6.9914E00
817.84	7.2603E00
818.14	7.1815E00
818.44	7.1636E00
818.74	7.2156E00
819.04	7.5519E00
819.35	7.4783E00
819.65	7.3831E00
819.95	7.7130E00
820.25	7.7127E00
820.56	7.6750E00
820.86	7.6642E00
821.16	7.8183E00
821.46	7.8122E00
821.76	7.6317E00
822.07	7.7241E00
822.37	8.0152E00
822.67	8.0144E00
822.97	8.2093E00
823.27	8.2078E00
823.57	8.1180E00
823.88	8.2059E00
824.18	8.3057E00
824.48	8.1454E00
824.78	8.4560E00
825.08	8.4781E00
825.38	8.4144E00
825.69	8.4520E00
825.99	8.5791E00
826.29	8.4696E00
826.59	8.7454E00
826.89	8.8859E00
827.19	8.7282E00
827.49	9.0525E00
827.79	8.9273E00
828.09	9.0997E00
828.39	9.1515E00
828.70	8.9454E00
829.00	9.2222E00
829.30	9.3805E00
829.60	9.2535E00
829.90	9.5063E00
830.20	9.5207E00
830.50	9.5844E00
830.80	9.6316E00
831.10	9.7642E00
831.40	9.7401E00
831.70	9.7653E00
832.00	9.5893E00
832.30	1.0108E01
832.60	9.7939E00
832.90	1.0147E01
833.20	1.0178E01
833.50	1.0097E01
833.80	1.0218E01
834.10	1.0510E01
834.40	1.0275E01
834.70	1.0351E01
835.00	1.0663E01
835.30	1.0642E01
835.60	1.0749E01
835.90	1.0795E01
836.20	1.0853E01
836.50	1.0924E01
836.80	1.1068E01
837.10	1.0912E01
837.40	1.0766E01
837.70	1.1360E01
838.00	1.1364E01
838.30	1.1487E01
838.60	1.1477E01
838.90	1.1311E01
839.19	1.1525E01
839.49	1.1903E01
839.79	1.1697E01
840.09	1.1779E01
840.39	1.1744E01
840.69	1.1797E01
840.99	1.2359E01
841.29	1.1837E01
841.59	1.2204E01
841.88	1.2520E01
842.18	1.2251E01
842.48	1.2510E01
842.78	1.2604E01
843.08	1.2972E01
843.38	1.2945E01
843.68	1.3278E01
843.97	1.3032E01
844.27	1.3048E01
844.57	1.2958E01
844.87	1.3215E01
845.17	1.3384E01
845.47	1.3495E01
845.76	1.3496E01
846.06	1.3758E01
846.36	1.3826E01
846.66	1.3621E01
846.96	1.3658E01
847.25	1.4145E01
847.55	1.4169E01
847.85	1.4492E01
848.15	1.4328E01
848.44	1.4310E01
848.74	1.4776E01
849.04	1.4939E01
849.34	1.5069E01
849.63	1.4782E01
849.93	1.5159E01
850.23	1.5414E01
850.53	1.5391E01
850.82	1.5453E01
851.12	1.5911E01
851.42	1.5702E01
851.71	1.5474E01
852.01	1.6106E01
852.31	1.6118E01
852.61	1.6012E01
852.90	1.6393E01
853.20	1.6551E01
853.50	1.6416E01
853.79	1.7146E01
854.09	1.6670E01
854.39	1.7050E01
854.68	1.7357E01
854.98	1.7244E01
855.28	1.7158E01
855.57	1.7731E01
855.87	1.7844E01
856.17	1.7864E01
856.46	1.8272E01
856.76	1.8187E01
857.05	1.8263E01
857.35	1.8258E01
857.65	1.8473E01
857.94	1.8566E01
858.24	1.8283E01
858.53	1.9099E01
858.83	1.9791E01
859.13	1.9585E01
859.42	1.9401E01
859.72	1.9726E01
860.01	1.9967E01
860.31	2.0168E01
860.60	2.0495E01
860.90	1.9855E01
861.20	2.0993E01
861.49	2.0516E01
861.79	2.0864E01
862.08	2.1053E01
862.38	2.1367E01
862.67	2.2502E01
862.97	2.1295E01
863.26	2.1516E01
863.56	2.2353E01
863.85	2.2292E01
864.15	2.2779E01
864.44	2.1808E01
864.74	2.2771E01
865.03	2.3735E01
865.33	2.3147E01
865.62	2.4135E01
865.92	2.3801E01
866.21	2.4610E01
866.51	2.4700E01
866.80	2.4303E01
867.10	2.4682E01
867.39	2.5310E01
867.69	2.5520E01
867.98	2.5297E01
868.27	2.6477E01
868.57	2.5423E01
868.86	2.6708E01
869.16	2.6393E01
869.45	2.7087E01
869.75	2.7363E01
870.04	2.6881E01
870.33	2.7999E01
870.63	2.8001E01
870.92	2.7203E01
871.22	2.8532E01
871.51	2.9409E01
871.80	2.8979E01
872.10	2.8979E01
>>>>>End Processed Spectral Data<<<<<
