SpectraSuite Data File
++++++++++++++++++++++++++++++++++++
Date: Sat May 16 08:55:25 PDT 2015
User: schluterlab
Dark Spectrum Present: Yes
Reference Spectrum Present: No
Number of Sampled Component Spectra: 1
Spectrometers: USB2E3373
Integration Time (usec): 2300000 (USB2E3373)
Spectra Averaged: 3 (USB2E3373)
Boxcar Smoothing: 0 (USB2E3373)
Correct for Electrical Dark: No (USB2E3373)
Strobe/Lamp Enabled: No (USB2E3373)
Correct for Detector Non-linearity: No (USB2E3373)
Correct for Stray Light: No (USB2E3373)
Number of Pixels in Processed Spectrum: 2048
>>>>>Begin Processed Spectral Data<<<<<
178.53	0.0000E00
178.91	0.0000E00
179.29	0.0000E00
179.67	0.0000E00
180.04	0.0000E00
180.42	0.0000E00
180.80	0.0000E00
181.18	0.0000E00
181.56	0.0000E00
181.94	0.0000E00
182.31	0.0000E00
182.69	0.0000E00
183.07	0.0000E00
183.45	0.0000E00
183.83	0.0000E00
184.20	0.0000E00
184.58	0.0000E00
184.96	0.0000E00
185.34	0.0000E00
185.72	0.0000E00
186.09	0.0000E00
186.47	0.0000E00
186.85	0.0000E00
187.23	0.0000E00
187.61	0.0000E00
187.98	0.0000E00
188.36	0.0000E00
188.74	0.0000E00
189.12	0.0000E00
189.49	0.0000E00
189.87	0.0000E00
190.25	0.0000E00
190.63	0.0000E00
191.00	0.0000E00
191.38	0.0000E00
191.76	0.0000E00
192.14	0.0000E00
192.51	0.0000E00
192.89	0.0000E00
193.27	0.0000E00
193.65	0.0000E00
194.02	0.0000E00
194.40	0.0000E00
194.78	0.0000E00
195.15	0.0000E00
195.53	0.0000E00
195.91	0.0000E00
196.29	0.0000E00
196.66	0.0000E00
197.04	0.0000E00
197.42	0.0000E00
197.79	0.0000E00
198.17	0.0000E00
198.55	0.0000E00
198.92	0.0000E00
199.30	0.0000E00
199.68	0.0000E00
200.05	0.0000E00
200.43	0.0000E00
200.81	0.0000E00
201.18	0.0000E00
201.56	0.0000E00
201.94	0.0000E00
202.31	0.0000E00
202.69	0.0000E00
203.07	0.0000E00
203.44	0.0000E00
203.82	0.0000E00
204.19	0.0000E00
204.57	0.0000E00
204.95	0.0000E00
205.32	0.0000E00
205.70	0.0000E00
206.08	0.0000E00
206.45	0.0000E00
206.83	0.0000E00
207.20	0.0000E00
207.58	0.0000E00
207.96	0.0000E00
208.33	0.0000E00
208.71	0.0000E00
209.08	0.0000E00
209.46	0.0000E00
209.84	0.0000E00
210.21	0.0000E00
210.59	0.0000E00
210.96	0.0000E00
211.34	0.0000E00
211.71	0.0000E00
212.09	0.0000E00
212.46	0.0000E00
212.84	0.0000E00
213.22	-0.0000E00
213.59	0.0000E00
213.97	0.0000E00
214.34	0.0000E00
214.72	0.0000E00
215.09	0.0000E00
215.47	0.0000E00
215.84	0.0000E00
216.22	0.0000E00
216.59	0.0000E00
216.97	0.0000E00
217.34	0.0000E00
217.72	0.0000E00
218.09	0.0000E00
218.47	0.0000E00
218.84	-0.0000E00
219.22	0.0000E00
219.59	0.0000E00
219.97	0.0000E00
220.34	0.0000E00
220.72	0.0000E00
221.09	0.0000E00
221.47	0.0000E00
221.84	0.0000E00
222.22	0.0000E00
222.59	0.0000E00
222.97	0.0000E00
223.34	0.0000E00
223.72	0.0000E00
224.09	0.0000E00
224.46	0.0000E00
224.84	0.0000E00
225.21	0.0000E00
225.59	0.0000E00
225.96	0.0000E00
226.34	0.0000E00
226.71	0.0000E00
227.08	0.0000E00
227.46	0.0000E00
227.83	0.0000E00
228.21	0.0000E00
228.58	0.0000E00
228.95	0.0000E00
229.33	0.0000E00
229.70	0.0000E00
230.08	0.0000E00
230.45	0.0000E00
230.82	0.0000E00
231.20	0.0000E00
231.57	0.0000E00
231.95	0.0000E00
232.32	0.0000E00
232.69	0.0000E00
233.07	0.0000E00
233.44	0.0000E00
233.81	0.0000E00
234.19	0.0000E00
234.56	0.0000E00
234.93	0.0000E00
235.31	0.0000E00
235.68	0.0000E00
236.05	0.0000E00
236.43	0.0000E00
236.80	0.0000E00
237.17	0.0000E00
237.55	0.0000E00
237.92	0.0000E00
238.29	0.0000E00
238.67	0.0000E00
239.04	0.0000E00
239.41	0.0000E00
239.79	0.0000E00
240.16	0.0000E00
240.53	0.0000E00
240.91	0.0000E00
241.28	0.0000E00
241.65	0.0000E00
242.02	0.0000E00
242.40	0.0000E00
242.77	0.0000E00
243.14	0.0000E00
243.51	0.0000E00
243.89	0.0000E00
244.26	0.0000E00
244.63	0.0000E00
245.00	0.0000E00
245.38	0.0000E00
245.75	0.0000E00
246.12	0.0000E00
246.49	0.0000E00
246.87	0.0000E00
247.24	0.0000E00
247.61	0.0000E00
247.98	0.0000E00
248.36	0.0000E00
248.73	0.0000E00
249.10	0.0000E00
249.47	0.0000E00
249.84	0.0000E00
250.22	0.0000E00
250.59	0.0000E00
250.96	0.0000E00
251.33	0.0000E00
251.70	0.0000E00
252.08	0.0000E00
252.45	0.0000E00
252.82	0.0000E00
253.19	0.0000E00
253.56	0.0000E00
253.94	0.0000E00
254.31	0.0000E00
254.68	0.0000E00
255.05	0.0000E00
255.42	0.0000E00
255.79	0.0000E00
256.16	0.0000E00
256.54	0.0000E00
256.91	0.0000E00
257.28	0.0000E00
257.65	0.0000E00
258.02	0.0000E00
258.39	0.0000E00
258.76	0.0000E00
259.14	0.0000E00
259.51	0.0000E00
259.88	0.0000E00
260.25	0.0000E00
260.62	0.0000E00
260.99	0.0000E00
261.36	0.0000E00
261.73	0.0000E00
262.10	0.0000E00
262.47	0.0000E00
262.85	0.0000E00
263.22	0.0000E00
263.59	0.0000E00
263.96	0.0000E00
264.33	0.0000E00
264.70	0.0000E00
265.07	0.0000E00
265.44	0.0000E00
265.81	0.0000E00
266.18	0.0000E00
266.55	0.0000E00
266.92	0.0000E00
267.29	0.0000E00
267.66	0.0000E00
268.03	0.0000E00
268.40	0.0000E00
268.77	0.0000E00
269.14	0.0000E00
269.51	0.0000E00
269.88	0.0000E00
270.25	0.0000E00
270.62	0.0000E00
270.99	0.0000E00
271.36	0.0000E00
271.73	0.0000E00
272.10	0.0000E00
272.47	0.0000E00
272.84	0.0000E00
273.21	0.0000E00
273.58	0.0000E00
273.95	0.0000E00
274.32	0.0000E00
274.69	0.0000E00
275.06	0.0000E00
275.43	0.0000E00
275.80	0.0000E00
276.17	0.0000E00
276.54	0.0000E00
276.91	0.0000E00
277.28	0.0000E00
277.65	0.0000E00
278.02	0.0000E00
278.39	0.0000E00
278.76	0.0000E00
279.13	0.0000E00
279.50	0.0000E00
279.87	0.0000E00
280.23	0.0000E00
280.60	0.0000E00
280.97	0.0000E00
281.34	0.0000E00
281.71	0.0000E00
282.08	0.0000E00
282.45	0.0000E00
282.82	0.0000E00
283.19	0.0000E00
283.56	0.0000E00
283.92	0.0000E00
284.29	0.0000E00
284.66	0.0000E00
285.03	0.0000E00
285.40	0.0000E00
285.77	0.0000E00
286.14	0.0000E00
286.51	0.0000E00
286.87	0.0000E00
287.24	0.0000E00
287.61	0.0000E00
287.98	0.0000E00
288.35	0.0000E00
288.72	0.0000E00
289.08	0.0000E00
289.45	0.0000E00
289.82	0.0000E00
290.19	0.0000E00
290.56	0.0000E00
290.93	0.0000E00
291.29	0.0000E00
291.66	0.0000E00
292.03	0.0000E00
292.40	0.0000E00
292.77	0.0000E00
293.13	0.0000E00
293.50	0.0000E00
293.87	0.0000E00
294.24	0.0000E00
294.60	0.0000E00
294.97	0.0000E00
295.34	0.0000E00
295.71	0.0000E00
296.08	0.0000E00
296.44	0.0000E00
296.81	0.0000E00
297.18	0.0000E00
297.55	0.0000E00
297.91	0.0000E00
298.28	0.0000E00
298.65	0.0000E00
299.02	0.0000E00
299.38	0.0000E00
299.75	0.0000E00
300.12	1.2376E00
300.48	2.4796E-01
300.85	3.9030E-01
301.22	3.5914E-01
301.59	3.6697E-01
301.95	5.1975E-01
302.32	6.2885E-01
302.69	2.1405E-01
303.05	2.1612E-01
303.42	3.7460E-01
303.79	3.1375E-01
304.15	5.9659E-01
304.52	5.0905E-01
304.89	5.6051E-01
305.25	3.5874E-01
305.62	3.5010E-01
305.99	1.2591E00
306.35	3.5968E-01
306.72	4.8712E-01
307.09	4.3457E-01
307.45	3.7649E-01
307.82	4.2846E-01
308.19	3.9847E-01
308.55	4.5593E-01
308.92	9.4135E-01
309.29	6.3378E-01
309.65	4.6300E-01
310.02	4.1847E-01
310.38	3.0543E-01
310.75	9.7403E-01
311.12	3.3696E-01
311.48	6.5613E-01
311.85	5.2105E-01
312.22	3.2223E-01
312.58	3.9988E-01
312.95	6.2645E-01
313.31	6.4648E-01
313.68	5.1154E-01
314.05	6.6666E-01
314.41	9.5749E-01
314.78	4.6624E-01
315.14	6.3491E-01
315.51	1.1468E00
315.87	5.9241E-01
316.24	5.9324E-01
316.61	1.0803E00
316.97	9.7926E-01
317.34	7.9662E-01
317.70	1.4859E00
318.07	1.1383E00
318.43	8.8280E-01
318.80	1.3694E00
319.16	1.2052E00
319.53	1.6547E00
319.89	9.3978E-01
320.26	8.1353E-01
320.62	1.9315E00
320.99	7.2405E-01
321.35	1.1577E00
321.72	9.4421E-01
322.08	1.0932E00
322.45	8.0900E-01
322.81	2.0985E00
323.18	1.3196E00
323.54	9.3656E-01
323.91	9.7805E-01
324.27	7.9268E-01
324.64	1.6442E00
325.00	1.4788E00
325.37	9.7133E-01
325.73	1.6074E00
326.10	1.5176E00
326.46	1.3960E00
326.83	3.2149E00
327.19	2.3758E00
327.56	1.4562E00
327.92	1.9686E00
328.29	1.9710E00
328.65	1.5157E00
329.01	1.5156E00
329.38	1.6869E00
329.74	1.6884E00
330.11	1.1401E00
330.47	1.7561E00
330.84	2.2831E00
331.20	2.6841E00
331.56	1.9835E00
331.93	1.8195E00
332.29	2.5246E00
332.66	1.0075E00
333.02	2.1544E00
333.38	1.2901E00
333.75	1.4089E00
334.11	1.7294E00
334.48	1.4015E00
334.84	1.5440E00
335.20	1.5411E00
335.57	1.6501E00
335.93	4.0421E00
336.29	3.4169E00
336.66	1.4799E00
337.02	2.7696E00
337.38	1.1358E00
337.75	1.3429E00
338.11	1.5812E00
338.47	1.1680E00
338.84	1.3076E00
339.20	1.3112E00
339.56	1.4434E00
339.93	1.3603E00
340.29	1.7340E00
340.65	1.1632E00
341.02	2.1712E00
341.38	1.6385E00
341.74	2.3121E00
342.11	1.6047E00
342.47	1.3039E00
342.83	1.7542E00
343.20	1.2572E00
343.56	1.1473E00
343.92	1.6219E00
344.28	1.4448E00
344.65	1.9842E00
345.01	1.2516E00
345.37	2.1070E00
345.73	1.3806E00
346.10	1.1198E00
346.46	1.3684E00
346.82	1.5918E00
347.19	1.6556E00
347.55	1.4063E00
347.91	1.4183E00
348.27	1.5519E00
348.63	1.7672E00
349.00	1.1506E00
349.36	1.0904E00
349.72	1.2175E00
350.08	1.8788E00
350.45	1.4921E00
350.81	1.5403E00
351.17	1.0809E00
351.53	1.4040E00
351.89	1.5208E00
352.26	1.2617E00
352.62	1.4225E00
352.98	1.1708E00
353.34	1.0316E00
353.70	1.3103E00
354.07	1.0960E00
354.43	1.0997E00
354.79	1.2173E00
355.15	9.3439E-01
355.51	1.3960E00
355.87	1.3117E00
356.24	9.7634E-01
356.60	1.3820E00
356.96	1.1984E00
357.32	1.2278E00
357.68	1.1644E00
358.04	1.1711E00
358.40	1.0762E00
358.77	1.2569E00
359.13	1.1711E00
359.49	1.4819E00
359.85	1.3949E00
360.21	1.0450E00
360.57	1.0206E00
360.93	1.1176E00
361.29	1.0906E00
361.66	1.2457E00
362.02	9.9833E-01
362.38	1.1262E00
362.74	1.0678E00
363.10	1.1882E00
363.46	1.2232E00
363.82	1.2815E00
364.18	1.1170E00
364.54	1.1666E00
364.90	9.4192E-01
365.26	9.9056E-01
365.62	1.1033E00
365.98	1.0413E00
366.35	1.0393E00
366.71	8.3967E-01
367.07	1.4018E00
367.43	1.2241E00
367.79	1.0614E00
368.15	1.0342E00
368.51	1.1615E00
368.87	1.0707E00
369.23	1.2575E00
369.59	9.9496E-01
369.95	1.4089E00
370.31	1.1185E00
370.67	1.1738E00
371.03	1.0134E00
371.39	9.8996E-01
371.75	1.2594E00
372.11	1.1183E00
372.47	9.7689E-01
372.83	1.1270E00
373.19	1.1781E00
373.55	1.0600E00
373.91	1.1733E00
374.27	9.0108E-01
374.63	1.0327E00
374.99	9.7056E-01
375.35	1.0738E00
375.71	1.0502E00
376.07	9.7835E-01
376.42	1.0800E00
376.78	9.9632E-01
377.14	9.4309E-01
377.50	1.0655E00
377.86	9.9630E-01
378.22	1.1658E00
378.58	9.3495E-01
378.94	1.0315E00
379.30	8.4422E-01
379.66	9.4533E-01
380.02	1.0317E00
380.38	8.8124E-01
380.74	9.7160E-01
381.09	9.7228E-01
381.45	8.9981E-01
381.81	9.0825E-01
382.17	8.9596E-01
382.53	8.4786E-01
382.89	8.0464E-01
383.25	9.3695E-01
383.61	9.3108E-01
383.97	9.8380E-01
384.32	9.9348E-01
384.68	9.3127E-01
385.04	9.1314E-01
385.40	9.2872E-01
385.76	7.4249E-01
386.12	9.2093E-01
386.48	8.2260E-01
386.83	9.0694E-01
387.19	8.8042E-01
387.55	9.5634E-01
387.91	9.2692E-01
388.27	8.4152E-01
388.62	8.4305E-01
388.98	8.6196E-01
389.34	8.9080E-01
389.70	8.7305E-01
390.06	8.6511E-01
390.42	8.4778E-01
390.77	8.2729E-01
391.13	8.8375E-01
391.49	8.5631E-01
391.85	9.3292E-01
392.20	8.5218E-01
392.56	8.8488E-01
392.92	8.4427E-01
393.28	8.4303E-01
393.64	8.6804E-01
393.99	8.9061E-01
394.35	8.2139E-01
394.71	9.3103E-01
395.07	8.6659E-01
395.42	8.3149E-01
395.78	8.2179E-01
396.14	8.2877E-01
396.50	7.7617E-01
396.85	8.9945E-01
397.21	9.3196E-01
397.57	8.4202E-01
397.92	8.6112E-01
398.28	7.7234E-01
398.64	8.2150E-01
399.00	7.8472E-01
399.35	7.7478E-01
399.71	8.2306E-01
400.07	8.1628E-01
400.42	8.1972E-01
400.78	7.8905E-01
401.14	7.8341E-01
401.49	7.9015E-01
401.85	7.9007E-01
402.21	7.1639E-01
402.57	7.4931E-01
402.92	8.0752E-01
403.28	8.0519E-01
403.63	7.8953E-01
403.99	8.1573E-01
404.35	7.5415E-01
404.70	7.6048E-01
405.06	7.4873E-01
405.42	8.0323E-01
405.77	7.3335E-01
406.13	7.1335E-01
406.49	6.8430E-01
406.84	7.0465E-01
407.20	7.5148E-01
407.55	7.7462E-01
407.91	7.8440E-01
408.27	7.1408E-01
408.62	6.9812E-01
408.98	7.2915E-01
409.34	7.1531E-01
409.69	7.5388E-01
410.05	7.0377E-01
410.40	7.1067E-01
410.76	6.8428E-01
411.11	7.1003E-01
411.47	7.2733E-01
411.83	6.9230E-01
412.18	6.9099E-01
412.54	6.8725E-01
412.89	7.0449E-01
413.25	6.5685E-01
413.60	6.7764E-01
413.96	7.2196E-01
414.31	6.8045E-01
414.67	7.0936E-01
415.03	7.1767E-01
415.38	7.4801E-01
415.74	7.1641E-01
416.09	7.0877E-01
416.45	7.3258E-01
416.80	7.0369E-01
417.16	7.0320E-01
417.51	6.9429E-01
417.87	7.1535E-01
418.22	6.6947E-01
418.58	6.9119E-01
418.93	6.4803E-01
419.29	6.8498E-01
419.64	6.5267E-01
420.00	6.7250E-01
420.35	6.6504E-01
420.71	6.4069E-01
421.06	6.6557E-01
421.42	6.9929E-01
421.77	6.5763E-01
422.12	6.7135E-01
422.48	6.4702E-01
422.83	6.7690E-01
423.19	6.4076E-01
423.54	6.6383E-01
423.90	6.4688E-01
424.25	6.3610E-01
424.61	6.6557E-01
424.96	6.3546E-01
425.31	6.1611E-01
425.67	6.1037E-01
426.02	6.2317E-01
426.38	6.2359E-01
426.73	6.1441E-01
427.09	6.2422E-01
427.44	5.9377E-01
427.79	6.0915E-01
428.15	6.1230E-01
428.50	6.1997E-01
428.85	6.3789E-01
429.21	5.7726E-01
429.56	5.8660E-01
429.92	5.7961E-01
430.27	5.9603E-01
430.62	6.1388E-01
430.98	6.2093E-01
431.33	6.0283E-01
431.68	5.9032E-01
432.04	5.8276E-01
432.39	5.8235E-01
432.74	6.0699E-01
433.10	5.6085E-01
433.45	6.0064E-01
433.80	5.8846E-01
434.16	5.8289E-01
434.51	5.7658E-01
434.86	5.9493E-01
435.22	5.6759E-01
435.57	6.1885E-01
435.92	5.9472E-01
436.28	5.5933E-01
436.63	5.6518E-01
436.98	5.6873E-01
437.34	5.9106E-01
437.69	5.6841E-01
438.04	5.4833E-01
438.39	5.8914E-01
438.75	5.7277E-01
439.10	5.5748E-01
439.45	5.8488E-01
439.81	5.8639E-01
440.16	5.5260E-01
440.51	5.6472E-01
440.86	5.9253E-01
441.22	5.6827E-01
441.57	5.4673E-01
441.92	5.4679E-01
442.27	5.6379E-01
442.63	5.5545E-01
442.98	5.8531E-01
443.33	5.7495E-01
443.68	5.3978E-01
444.03	5.3183E-01
444.39	5.2530E-01
444.74	5.7021E-01
445.09	5.7374E-01
445.44	5.6428E-01
445.79	5.1524E-01
446.15	5.5007E-01
446.50	5.5539E-01
446.85	5.2353E-01
447.20	5.2140E-01
447.55	5.4836E-01
447.91	5.4380E-01
448.26	5.5391E-01
448.61	5.4126E-01
448.96	5.2329E-01
449.31	5.3408E-01
449.66	5.4173E-01
450.02	5.3795E-01
450.37	5.4029E-01
450.72	5.2725E-01
451.07	5.6984E-01
451.42	5.7293E-01
451.77	5.4254E-01
452.12	5.3335E-01
452.47	5.6807E-01
452.83	5.2654E-01
453.18	5.4189E-01
453.53	5.3721E-01
453.88	5.0032E-01
454.23	5.1103E-01
454.58	5.0591E-01
454.93	5.1881E-01
455.28	5.1868E-01
455.63	5.0934E-01
455.98	5.0210E-01
456.34	5.2883E-01
456.69	5.1802E-01
457.04	5.1920E-01
457.39	4.9025E-01
457.74	4.9589E-01
458.09	4.9671E-01
458.44	4.8950E-01
458.79	4.7839E-01
459.14	4.8139E-01
459.49	5.0735E-01
459.84	4.8674E-01
460.19	5.1111E-01
460.54	5.2337E-01
460.89	4.7485E-01
461.24	5.1191E-01
461.59	4.9405E-01
461.94	5.0601E-01
462.29	4.6581E-01
462.64	4.9852E-01
462.99	5.0582E-01
463.34	5.2565E-01
463.69	4.8420E-01
464.04	4.6474E-01
464.39	4.7076E-01
464.74	4.8841E-01
465.09	5.0244E-01
465.44	4.6769E-01
465.79	4.8315E-01
466.14	4.8147E-01
466.49	4.7744E-01
466.84	4.7570E-01
467.19	4.8159E-01
467.54	4.8013E-01
467.89	4.6729E-01
468.24	4.4741E-01
468.59	4.5498E-01
468.94	4.5560E-01
469.29	4.5295E-01
469.64	4.6417E-01
469.99	4.5606E-01
470.34	4.3561E-01
470.68	4.6955E-01
471.03	4.4548E-01
471.38	4.4118E-01
471.73	4.3076E-01
472.08	4.2368E-01
472.43	4.1024E-01
472.78	4.3495E-01
473.13	4.3194E-01
473.48	4.2099E-01
473.83	4.1004E-01
474.17	4.2696E-01
474.52	4.1399E-01
474.87	3.9905E-01
475.22	4.0618E-01
475.57	3.8476E-01
475.92	3.7083E-01
476.27	3.9413E-01
476.61	3.7809E-01
476.96	3.7315E-01
477.31	3.5194E-01
477.66	3.6423E-01
478.01	3.5723E-01
478.36	3.5728E-01
478.70	3.4986E-01
479.05	3.5215E-01
479.40	3.4404E-01
479.75	3.4520E-01
480.10	3.3692E-01
480.45	3.3221E-01
480.79	3.3019E-01
481.14	3.3589E-01
481.49	3.3035E-01
481.84	3.2085E-01
482.19	3.1392E-01
482.53	3.1995E-01
482.88	3.1431E-01
483.23	3.1001E-01
483.58	3.0602E-01
483.92	3.1333E-01
484.27	3.0044E-01
484.62	3.0070E-01
484.97	2.9452E-01
485.31	2.9086E-01
485.66	2.9588E-01
486.01	2.9690E-01
486.36	2.8620E-01
486.70	2.9105E-01
487.05	2.9000E-01
487.40	2.8680E-01
487.75	2.8179E-01
488.09	2.8137E-01
488.44	2.8463E-01
488.79	2.8254E-01
489.13	2.7826E-01
489.48	2.7854E-01
489.83	2.8138E-01
490.17	2.7306E-01
490.52	2.7224E-01
490.87	2.7338E-01
491.22	2.7639E-01
491.56	2.7580E-01
491.91	2.7807E-01
492.26	2.7567E-01
492.60	2.7467E-01
492.95	2.7672E-01
493.30	2.7590E-01
493.64	2.7268E-01
493.99	2.7729E-01
494.34	2.7297E-01
494.68	2.6917E-01
495.03	2.7435E-01
495.37	2.7056E-01
495.72	2.7490E-01
496.07	2.6828E-01
496.41	2.7139E-01
496.76	2.7107E-01
497.11	2.7216E-01
497.45	2.7197E-01
497.80	2.7302E-01
498.14	2.6932E-01
498.49	2.7387E-01
498.84	2.7163E-01
499.18	2.7243E-01
499.53	2.7149E-01
499.87	2.6728E-01
500.22	2.7437E-01
500.56	2.7163E-01
500.91	2.7241E-01
501.26	2.6998E-01
501.60	2.7187E-01
501.95	2.6941E-01
502.29	2.7109E-01
502.64	2.6900E-01
502.98	2.7328E-01
503.33	2.6893E-01
503.67	2.7172E-01
504.02	2.7003E-01
504.36	2.6907E-01
504.71	2.7056E-01
505.06	2.6869E-01
505.40	2.6701E-01
505.75	2.6812E-01
506.09	2.6775E-01
506.44	2.6729E-01
506.78	2.6896E-01
507.13	2.6970E-01
507.47	2.6699E-01
507.82	2.6659E-01
508.16	2.6705E-01
508.51	2.6619E-01
508.85	2.6305E-01
509.19	2.6384E-01
509.54	2.6592E-01
509.88	2.6517E-01
510.23	2.6075E-01
510.57	2.6156E-01
510.92	2.6341E-01
511.26	2.6313E-01
511.61	2.6348E-01
511.95	2.6108E-01
512.30	2.6089E-01
512.64	2.6164E-01
512.98	2.6041E-01
513.33	2.6163E-01
513.67	2.5954E-01
514.02	2.6087E-01
514.36	2.5768E-01
514.70	2.5855E-01
515.05	2.5725E-01
515.39	2.5798E-01
515.74	2.5876E-01
516.08	2.5947E-01
516.42	2.5590E-01
516.77	2.5797E-01
517.11	2.5573E-01
517.46	2.5648E-01
517.80	2.5570E-01
518.14	2.5522E-01
518.49	2.5466E-01
518.83	2.5397E-01
519.17	2.5766E-01
519.52	2.5518E-01
519.86	2.5603E-01
520.20	2.5347E-01
520.55	2.5469E-01
520.89	2.5350E-01
521.23	2.5471E-01
521.58	2.5622E-01
521.92	2.5501E-01
522.26	2.5831E-01
522.61	2.5432E-01
522.95	2.5595E-01
523.29	2.5296E-01
523.64	2.5404E-01
523.98	2.5619E-01
524.32	2.5617E-01
524.66	2.5647E-01
525.01	2.5642E-01
525.35	2.5827E-01
525.69	2.5777E-01
526.04	2.5977E-01
526.38	2.5418E-01
526.72	2.6022E-01
527.06	2.5745E-01
527.41	2.6077E-01
527.75	2.6154E-01
528.09	2.5874E-01
528.43	2.6295E-01
528.78	2.6112E-01
529.12	2.6573E-01
529.46	2.6397E-01
529.80	2.6490E-01
530.15	2.6448E-01
530.49	2.6589E-01
530.83	2.6820E-01
531.17	2.6740E-01
531.51	2.6952E-01
531.86	2.6746E-01
532.20	2.7087E-01
532.54	2.7021E-01
532.88	2.7225E-01
533.22	2.7445E-01
533.57	2.7814E-01
533.91	2.7370E-01
534.25	2.7539E-01
534.59	2.7583E-01
534.93	2.7524E-01
535.27	2.7573E-01
535.62	2.8125E-01
535.96	2.7985E-01
536.30	2.7941E-01
536.64	2.8088E-01
536.98	2.8484E-01
537.32	2.8196E-01
537.66	2.8501E-01
538.01	2.8433E-01
538.35	2.8774E-01
538.69	2.8655E-01
539.03	2.9057E-01
539.37	2.8858E-01
539.71	2.9070E-01
540.05	2.8934E-01
540.39	2.8984E-01
540.73	2.9117E-01
541.07	2.9053E-01
541.42	2.9042E-01
541.76	2.9200E-01
542.10	2.9396E-01
542.44	2.9442E-01
542.78	2.9694E-01
543.12	2.9176E-01
543.46	2.9803E-01
543.80	2.9372E-01
544.14	2.9548E-01
544.48	2.9350E-01
544.82	2.9833E-01
545.16	2.9701E-01
545.50	2.9668E-01
545.84	3.0154E-01
546.18	2.9817E-01
546.52	2.9941E-01
546.86	2.9797E-01
547.20	3.0334E-01
547.54	3.0566E-01
547.88	3.0101E-01
548.22	3.0151E-01
548.56	3.0456E-01
548.90	3.0432E-01
549.24	3.0472E-01
549.58	3.0550E-01
549.92	3.0561E-01
550.26	3.0677E-01
550.60	3.0595E-01
550.94	3.0464E-01
551.28	3.0937E-01
551.62	3.0523E-01
551.96	3.0773E-01
552.30	3.0915E-01
552.64	3.0913E-01
552.98	3.0926E-01
553.32	3.1016E-01
553.66	3.1024E-01
554.00	3.0665E-01
554.34	3.0912E-01
554.68	3.0912E-01
555.02	3.0782E-01
555.36	3.1179E-01
555.69	3.1300E-01
556.03	3.0860E-01
556.37	3.1163E-01
556.71	3.0945E-01
557.05	3.0938E-01
557.39	3.1153E-01
557.73	3.0918E-01
558.07	3.1171E-01
558.41	3.1154E-01
558.75	3.1283E-01
559.08	3.1104E-01
559.42	3.1006E-01
559.76	3.1264E-01
560.10	3.1342E-01
560.44	3.1368E-01
560.78	3.0971E-01
561.12	3.1414E-01
561.45	3.1445E-01
561.79	3.1274E-01
562.13	3.1205E-01
562.47	3.1266E-01
562.81	3.1424E-01
563.15	3.1482E-01
563.48	3.1523E-01
563.82	3.1137E-01
564.16	3.1397E-01
564.50	3.1654E-01
564.84	3.1256E-01
565.17	3.1345E-01
565.51	3.1187E-01
565.85	3.1602E-01
566.19	3.1215E-01
566.52	3.1634E-01
566.86	3.1399E-01
567.20	3.1820E-01
567.54	3.1666E-01
567.88	3.1681E-01
568.21	3.1764E-01
568.55	3.1681E-01
568.89	3.1740E-01
569.23	3.1772E-01
569.56	3.1659E-01
569.90	3.1707E-01
570.24	3.2090E-01
570.57	3.1802E-01
570.91	3.2006E-01
571.25	3.1842E-01
571.59	3.1941E-01
571.92	3.2015E-01
572.26	3.2073E-01
572.60	3.2230E-01
572.93	3.2086E-01
573.27	3.2610E-01
573.61	3.2593E-01
573.95	3.1849E-01
574.28	3.2628E-01
574.62	3.2598E-01
574.96	3.2857E-01
575.29	3.2766E-01
575.63	3.3173E-01
575.97	3.2943E-01
576.30	3.3465E-01
576.64	3.3105E-01
576.98	3.3332E-01
577.31	3.3483E-01
577.65	3.3799E-01
577.98	3.3220E-01
578.32	3.3916E-01
578.66	3.4159E-01
578.99	3.4023E-01
579.33	3.4251E-01
579.67	3.4168E-01
580.00	3.4314E-01
580.34	3.4326E-01
580.67	3.4631E-01
581.01	3.4508E-01
581.35	3.4716E-01
581.68	3.4830E-01
582.02	3.4998E-01
582.35	3.4876E-01
582.69	3.5113E-01
583.02	3.5638E-01
583.36	3.5630E-01
583.70	3.5542E-01
584.03	3.5602E-01
584.37	3.5601E-01
584.70	3.5896E-01
585.04	3.6221E-01
585.37	3.6024E-01
585.71	3.6456E-01
586.04	3.6401E-01
586.38	3.6189E-01
586.72	3.6970E-01
587.05	3.6474E-01
587.39	3.6828E-01
587.72	3.6621E-01
588.06	3.7137E-01
588.39	3.6621E-01
588.73	3.7337E-01
589.06	3.7172E-01
589.40	3.7486E-01
589.73	3.7741E-01
590.07	3.7755E-01
590.40	3.7977E-01
590.73	3.8185E-01
591.07	3.8065E-01
591.40	3.8379E-01
591.74	3.7779E-01
592.07	3.8420E-01
592.41	3.8563E-01
592.74	3.8656E-01
593.08	3.8270E-01
593.41	3.8560E-01
593.75	3.8737E-01
594.08	3.9198E-01
594.41	3.9067E-01
594.75	3.9267E-01
595.08	3.9016E-01
595.42	3.8715E-01
595.75	3.8994E-01
596.09	3.9409E-01
596.42	3.9129E-01
596.75	3.9280E-01
597.09	3.9871E-01
597.42	3.9107E-01
597.75	3.9991E-01
598.09	3.9866E-01
598.42	3.9635E-01
598.76	3.9631E-01
599.09	4.0052E-01
599.42	4.0170E-01
599.76	3.9955E-01
600.09	4.0190E-01
600.42	4.0539E-01
600.76	3.9634E-01
601.09	3.9959E-01
601.42	4.0927E-01
601.76	4.0607E-01
602.09	4.0415E-01
602.42	4.0317E-01
602.76	4.0321E-01
603.09	4.0401E-01
603.42	4.0699E-01
603.76	4.0429E-01
604.09	4.0625E-01
604.42	4.0626E-01
604.76	4.0392E-01
605.09	4.0929E-01
605.42	4.0562E-01
605.75	4.0805E-01
606.09	4.1046E-01
606.42	4.0959E-01
606.75	4.1271E-01
607.09	4.0973E-01
607.42	4.0884E-01
607.75	4.1034E-01
608.08	4.1151E-01
608.42	4.1408E-01
608.75	4.1122E-01
609.08	4.1519E-01
609.41	4.1340E-01
609.75	4.1113E-01
610.08	4.1497E-01
610.41	4.1481E-01
610.74	4.1514E-01
611.07	4.1569E-01
611.41	4.1093E-01
611.74	4.1530E-01
612.07	4.1417E-01
612.40	4.1129E-01
612.73	4.1539E-01
613.07	4.2048E-01
613.40	4.1419E-01
613.73	4.1379E-01
614.06	4.1839E-01
614.39	4.1598E-01
614.72	4.2096E-01
615.06	4.1876E-01
615.39	4.2267E-01
615.72	4.1866E-01
616.05	4.2373E-01
616.38	4.2402E-01
616.71	4.2193E-01
617.05	4.1936E-01
617.38	4.2417E-01
617.71	4.2301E-01
618.04	4.2307E-01
618.37	4.1882E-01
618.70	4.2258E-01
619.03	4.2311E-01
619.36	4.1601E-01
619.69	4.2464E-01
620.03	4.2159E-01
620.36	4.2212E-01
620.69	4.2123E-01
621.02	4.2011E-01
621.35	4.2055E-01
621.68	4.1871E-01
622.01	4.2196E-01
622.34	4.2067E-01
622.67	4.2102E-01
623.00	4.2071E-01
623.33	4.1929E-01
623.66	4.2132E-01
623.99	4.2321E-01
624.32	4.1687E-01
624.65	4.1937E-01
624.99	4.1951E-01
625.32	4.2421E-01
625.65	4.2147E-01
625.98	4.1722E-01
626.31	4.2003E-01
626.64	4.2399E-01
626.97	4.2240E-01
627.30	4.1857E-01
627.63	4.1758E-01
627.96	4.1672E-01
628.29	4.1829E-01
628.62	4.2106E-01
628.95	4.2057E-01
629.28	4.1649E-01
629.61	4.2619E-01
629.94	4.2294E-01
630.26	4.2504E-01
630.59	4.2524E-01
630.92	4.2372E-01
631.25	4.2322E-01
631.58	4.3114E-01
631.91	4.2559E-01
632.24	4.3057E-01
632.57	4.2938E-01
632.90	4.3052E-01
633.23	4.2842E-01
633.56	4.3162E-01
633.89	4.3138E-01
634.22	4.3337E-01
634.55	4.3381E-01
634.88	4.3730E-01
635.20	4.3847E-01
635.53	4.4287E-01
635.86	4.3928E-01
636.19	4.4622E-01
636.52	4.4635E-01
636.85	4.4675E-01
637.18	4.5056E-01
637.51	4.4938E-01
637.83	4.5345E-01
638.16	4.5152E-01
638.49	4.5992E-01
638.82	4.5398E-01
639.15	4.6178E-01
639.48	4.6155E-01
639.81	4.6865E-01
640.13	4.6377E-01
640.46	4.7213E-01
640.79	4.6882E-01
641.12	4.7483E-01
641.45	4.7065E-01
641.77	4.7090E-01
642.10	4.8264E-01
642.43	4.8471E-01
642.76	4.8805E-01
643.09	4.8327E-01
643.41	4.8745E-01
643.74	4.8764E-01
644.07	4.9041E-01
644.40	4.9018E-01
644.73	4.9767E-01
645.05	4.9766E-01
645.38	4.9648E-01
645.71	5.0408E-01
646.04	5.0306E-01
646.36	5.0254E-01
646.69	5.1156E-01
647.02	5.1345E-01
647.35	5.0814E-01
647.67	5.1648E-01
648.00	5.1420E-01
648.33	5.1836E-01
648.66	5.1638E-01
648.98	5.2295E-01
649.31	5.2026E-01
649.64	5.2265E-01
649.96	5.2646E-01
650.29	5.3443E-01
650.62	5.3012E-01
650.94	5.3064E-01
651.27	5.3323E-01
651.60	5.3055E-01
651.92	5.4166E-01
652.25	5.4496E-01
652.58	5.4363E-01
652.90	5.4252E-01
653.23	5.4333E-01
653.56	5.4663E-01
653.88	5.5029E-01
654.21	5.4868E-01
654.54	5.5265E-01
654.86	5.5910E-01
655.19	5.5555E-01
655.52	5.6156E-01
655.84	5.5530E-01
656.17	5.6357E-01
656.49	5.6309E-01
656.82	5.5992E-01
657.15	5.6632E-01
657.47	5.6848E-01
657.80	5.7033E-01
658.13	5.6860E-01
658.45	5.7156E-01
658.78	5.7267E-01
659.10	5.7699E-01
659.43	5.7483E-01
659.75	5.7724E-01
660.08	5.7565E-01
660.41	5.8655E-01
660.73	5.8346E-01
661.06	5.8308E-01
661.38	5.8671E-01
661.71	5.9051E-01
662.03	5.8717E-01
662.36	5.9500E-01
662.68	5.9083E-01
663.01	5.8574E-01
663.33	5.9452E-01
663.66	5.9644E-01
663.98	5.9533E-01
664.31	5.9642E-01
664.63	6.0954E-01
664.96	5.9450E-01
665.28	6.0213E-01
665.61	6.0426E-01
665.93	6.0463E-01
666.26	6.0377E-01
666.58	6.0888E-01
666.91	6.1017E-01
667.23	6.1643E-01
667.56	6.1012E-01
667.88	6.1323E-01
668.21	6.1801E-01
668.53	6.1480E-01
668.86	6.2224E-01
669.18	6.1748E-01
669.50	6.2588E-01
669.83	6.2045E-01
670.15	6.2521E-01
670.48	6.2623E-01
670.80	6.2532E-01
671.13	6.2555E-01
671.45	6.2914E-01
671.77	6.2953E-01
672.10	6.2669E-01
672.42	6.4265E-01
672.75	6.3563E-01
673.07	6.3995E-01
673.39	6.3429E-01
673.72	6.3852E-01
674.04	6.4270E-01
674.37	6.4246E-01
674.69	6.4106E-01
675.01	6.4563E-01
675.34	6.5213E-01
675.66	6.5036E-01
675.98	6.4477E-01
676.31	6.5517E-01
676.63	6.5190E-01
676.95	6.5378E-01
677.28	6.6126E-01
677.60	6.6197E-01
677.92	6.5657E-01
678.25	6.6481E-01
678.57	6.6526E-01
678.89	6.6128E-01
679.22	6.7172E-01
679.54	6.6851E-01
679.86	6.7052E-01
680.18	6.7615E-01
680.51	6.6897E-01
680.83	6.8481E-01
681.15	6.7616E-01
681.48	6.8007E-01
681.80	6.8021E-01
682.12	6.7735E-01
682.44	6.9026E-01
682.77	6.9244E-01
683.09	6.9602E-01
683.41	6.9051E-01
683.73	6.9922E-01
684.06	6.9546E-01
684.38	6.9847E-01
684.70	7.0172E-01
685.02	7.0366E-01
685.34	7.0983E-01
685.67	7.0654E-01
685.99	7.2097E-01
686.31	7.1108E-01
686.63	7.2029E-01
686.96	7.2413E-01
687.28	7.2825E-01
687.60	7.1617E-01
687.92	7.2300E-01
688.24	7.3298E-01
688.56	7.3972E-01
688.89	7.3267E-01
689.21	7.4130E-01
689.53	7.3694E-01
689.85	7.4630E-01
690.17	7.4189E-01
690.49	7.5469E-01
690.82	7.5406E-01
691.14	7.5346E-01
691.46	7.5688E-01
691.78	7.6133E-01
692.10	7.5845E-01
692.42	7.6868E-01
692.74	7.7406E-01
693.06	7.7103E-01
693.39	7.8149E-01
693.71	7.8614E-01
694.03	7.8679E-01
694.35	7.9021E-01
694.67	7.9124E-01
694.99	8.0420E-01
695.31	7.9822E-01
695.63	8.0302E-01
695.95	8.0876E-01
696.27	8.0964E-01
696.59	8.1109E-01
696.91	8.2010E-01
697.23	8.2635E-01
697.56	8.2702E-01
697.88	8.2544E-01
698.20	8.3015E-01
698.52	8.3586E-01
698.84	8.4250E-01
699.16	8.4582E-01
699.48	8.4283E-01
699.80	8.5043E-01
700.12	8.6145E-01
700.44	8.6143E-01
700.76	8.6621E-01
701.08	8.7447E-01
701.40	8.7219E-01
701.72	8.7790E-01
702.04	8.7966E-01
702.36	8.8805E-01
702.68	8.9484E-01
703.00	8.9757E-01
703.32	9.0197E-01
703.64	9.0921E-01
703.96	9.0039E-01
704.28	9.0546E-01
704.60	9.1294E-01
704.91	9.2216E-01
705.23	9.2101E-01
705.55	9.3623E-01
705.87	9.3179E-01
706.19	9.3179E-01
706.51	9.3860E-01
706.83	9.4283E-01
707.15	9.6241E-01
707.47	9.5271E-01
707.79	9.6825E-01
708.11	9.6507E-01
708.43	9.7229E-01
708.74	9.7939E-01
709.06	9.8759E-01
709.38	9.8701E-01
709.70	9.8767E-01
710.02	9.9873E-01
710.34	9.9304E-01
710.66	1.0096E00
710.98	1.0159E00
711.29	1.0191E00
711.61	1.0303E00
711.93	1.0317E00
712.25	1.0281E00
712.57	1.0413E00
712.89	1.0505E00
713.20	1.0485E00
713.52	1.0533E00
713.84	1.0725E00
714.16	1.0625E00
714.48	1.0627E00
714.80	1.0836E00
715.11	1.0809E00
715.43	1.0907E00
715.75	1.0897E00
716.07	1.1185E00
716.39	1.0890E00
716.70	1.1064E00
717.02	1.0996E00
717.34	1.1247E00
717.66	1.1224E00
717.97	1.1250E00
718.29	1.1395E00
718.61	1.1426E00
718.93	1.1598E00
719.24	1.1580E00
719.56	1.1650E00
719.88	1.1774E00
720.20	1.1872E00
720.51	1.1970E00
720.83	1.1898E00
721.15	1.2193E00
721.46	1.2118E00
721.78	1.2241E00
722.10	1.2409E00
722.42	1.2398E00
722.73	1.2521E00
723.05	1.2512E00
723.37	1.2620E00
723.68	1.2906E00
724.00	1.2752E00
724.32	1.2963E00
724.63	1.2832E00
724.95	1.2938E00
725.27	1.3000E00
725.58	1.3049E00
725.90	1.2995E00
726.22	1.3212E00
726.53	1.3114E00
726.85	1.3191E00
727.16	1.3276E00
727.48	1.3325E00
727.80	1.3372E00
728.11	1.3486E00
728.43	1.3341E00
728.74	1.3355E00
729.06	1.3638E00
729.38	1.3609E00
729.69	1.3628E00
730.01	1.3729E00
730.32	1.3852E00
730.64	1.3826E00
730.96	1.3646E00
731.27	1.4014E00
731.59	1.3809E00
731.90	1.3783E00
732.22	1.3914E00
732.53	1.4082E00
732.85	1.4232E00
733.16	1.4104E00
733.48	1.4051E00
733.80	1.4018E00
734.11	1.4294E00
734.43	1.4521E00
734.74	1.4376E00
735.06	1.4526E00
735.37	1.4480E00
735.69	1.4544E00
736.00	1.4610E00
736.32	1.4598E00
736.63	1.4748E00
736.95	1.4843E00
737.26	1.5031E00
737.58	1.4912E00
737.89	1.4977E00
738.21	1.4900E00
738.52	1.5015E00
738.83	1.5221E00
739.15	1.5060E00
739.46	1.5332E00
739.78	1.5215E00
740.09	1.5301E00
740.41	1.5318E00
740.72	1.5282E00
741.04	1.5336E00
741.35	1.5416E00
741.66	1.5617E00
741.98	1.5500E00
742.29	1.5582E00
742.61	1.5699E00
742.92	1.5472E00
743.23	1.5612E00
743.55	1.5743E00
743.86	1.5631E00
744.18	1.5716E00
744.49	1.5603E00
744.80	1.5565E00
745.12	1.5606E00
745.43	1.5789E00
745.74	1.5763E00
746.06	1.5651E00
746.37	1.5663E00
746.68	1.5690E00
747.00	1.5740E00
747.31	1.5714E00
747.62	1.5609E00
747.94	1.5703E00
748.25	1.5679E00
748.56	1.5733E00
748.88	1.5632E00
749.19	1.5768E00
749.50	1.5665E00
749.82	1.5771E00
750.13	1.5717E00
750.44	1.5700E00
750.75	1.5585E00
751.07	1.5684E00
751.38	1.5901E00
751.69	1.5698E00
752.01	1.5931E00
752.32	1.5856E00
752.63	1.5710E00
752.94	1.5766E00
753.26	1.5785E00
753.57	1.5776E00
753.88	1.5945E00
754.19	1.5834E00
754.51	1.5964E00
754.82	1.5846E00
755.13	1.6169E00
755.44	1.5981E00
755.75	1.6071E00
756.07	1.6209E00
756.38	1.6308E00
756.69	1.6223E00
757.00	1.6462E00
757.31	1.6522E00
757.63	1.6531E00
757.94	1.6619E00
758.25	1.6800E00
758.56	1.6509E00
758.87	1.6888E00
759.18	1.6907E00
759.50	1.6833E00
759.81	1.6906E00
760.12	1.7056E00
760.43	1.7197E00
760.74	1.7295E00
761.05	1.7490E00
761.36	1.7411E00
761.67	1.7674E00
761.99	1.7676E00
762.30	1.7482E00
762.61	1.7763E00
762.92	1.7994E00
763.23	1.8128E00
763.54	1.8107E00
763.85	1.8454E00
764.16	1.8513E00
764.47	1.8689E00
764.78	1.8690E00
765.10	1.8882E00
765.41	1.9077E00
765.72	1.8902E00
766.03	1.9443E00
766.34	1.9475E00
766.65	1.9598E00
766.96	1.9939E00
767.27	1.9955E00
767.58	1.9885E00
767.89	2.0079E00
768.20	2.0581E00
768.51	2.0602E00
768.82	2.0589E00
769.13	2.0664E00
769.44	2.1201E00
769.75	2.1151E00
770.06	2.1180E00
770.37	2.1268E00
770.68	2.1567E00
770.99	2.1938E00
771.30	2.2109E00
771.61	2.2586E00
771.92	2.2379E00
772.23	2.2531E00
772.54	2.2843E00
772.85	2.2867E00
773.16	2.3240E00
773.47	2.3660E00
773.78	2.3667E00
774.09	2.3743E00
774.39	2.3962E00
774.70	2.3976E00
775.01	2.4606E00
775.32	2.4726E00
775.63	2.4813E00
775.94	2.5005E00
776.25	2.4898E00
776.56	2.5471E00
776.87	2.5958E00
777.18	2.5890E00
777.48	2.6332E00
777.79	2.6539E00
778.10	2.6789E00
778.41	2.7031E00
778.72	2.7135E00
779.03	2.7105E00
779.34	2.7708E00
779.65	2.7761E00
779.95	2.7808E00
780.26	2.8337E00
780.57	2.8306E00
780.88	2.8423E00
781.19	2.8927E00
781.50	2.8764E00
781.80	2.9359E00
782.11	2.9597E00
782.42	2.9715E00
782.73	2.9817E00
783.04	3.0623E00
783.34	3.0759E00
783.65	3.1171E00
783.96	3.0784E00
784.27	3.1053E00
784.57	3.1494E00
784.88	3.1683E00
785.19	3.2166E00
785.50	3.2183E00
785.81	3.2623E00
786.11	3.2334E00
786.42	3.3118E00
786.73	3.3813E00
787.04	3.3733E00
787.34	3.3806E00
787.65	3.3887E00
787.96	3.4984E00
788.26	3.5291E00
788.57	3.5191E00
788.88	3.4922E00
789.19	3.5485E00
789.49	3.5718E00
789.80	3.6629E00
790.11	3.6886E00
790.41	3.6877E00
790.72	3.7393E00
791.03	3.7462E00
791.33	3.7815E00
791.64	3.7721E00
791.95	3.8047E00
792.25	3.8871E00
792.56	3.9497E00
792.87	3.9554E00
793.17	3.9535E00
793.48	3.9361E00
793.79	4.0400E00
794.09	4.0425E00
794.40	4.0148E00
794.70	4.0112E00
795.01	4.1371E00
795.32	4.1174E00
795.62	4.2015E00
795.93	4.2027E00
796.23	4.2357E00
796.54	4.2636E00
796.85	4.2543E00
797.15	4.3024E00
797.46	4.3370E00
797.76	4.4215E00
798.07	4.4497E00
798.37	4.4701E00
798.68	4.5487E00
798.99	4.6070E00
799.29	4.5952E00
799.60	4.7028E00
799.90	4.6856E00
800.21	4.7075E00
800.51	4.7293E00
800.82	4.7998E00
801.12	4.8377E00
801.43	4.9286E00
801.73	4.8958E00
802.04	4.9055E00
802.34	4.9037E00
802.65	5.0330E00
802.95	5.1358E00
803.26	5.0688E00
803.56	5.0384E00
803.87	5.1268E00
804.17	5.1005E00
804.48	5.2561E00
804.78	5.1948E00
805.09	5.2656E00
805.39	5.2618E00
805.70	5.3499E00
806.00	5.3471E00
806.30	5.3394E00
806.61	5.4555E00
806.91	5.4664E00
807.22	5.4805E00
807.52	5.6495E00
807.83	5.5501E00
808.13	5.5957E00
808.43	5.6026E00
808.74	5.6882E00
809.04	5.7540E00
809.35	5.6908E00
809.65	5.8681E00
809.95	5.9676E00
810.26	5.9916E00
810.56	5.9045E00
810.86	6.0684E00
811.17	6.1222E00
811.47	6.1731E00
811.77	6.0656E00
812.08	6.2182E00
812.38	6.2785E00
812.69	6.1830E00
812.99	6.2690E00
813.29	6.2679E00
813.59	6.3955E00
813.90	6.4536E00
814.20	6.4912E00
814.50	6.6219E00
814.81	6.5323E00
815.11	6.6833E00
815.41	6.8821E00
815.72	6.7685E00
816.02	6.7847E00
816.32	6.8444E00
816.62	6.7553E00
816.93	6.8702E00
817.23	7.0113E00
817.53	6.9103E00
817.84	7.1774E00
818.14	7.0964E00
818.44	7.0781E00
818.74	7.1252E00
819.04	7.4637E00
819.35	7.3936E00
819.65	7.2988E00
819.95	7.6256E00
820.25	7.6252E00
820.56	7.5861E00
820.86	7.5755E00
821.16	7.7303E00
821.46	7.7223E00
821.76	7.5380E00
822.07	7.6358E00
822.37	7.9223E00
822.67	7.9215E00
822.97	8.1107E00
823.27	8.1175E00
823.57	8.0286E00
823.88	8.1080E00
824.18	8.2157E00
824.48	8.0481E00
824.78	8.3558E00
825.08	8.3784E00
825.38	8.3147E00
825.69	8.3540E00
825.99	8.4834E00
826.29	8.3678E00
826.59	8.6419E00
826.89	8.7738E00
827.19	8.6286E00
827.49	8.9553E00
827.79	8.8253E00
828.09	9.0011E00
828.39	9.0501E00
828.70	8.8454E00
829.00	9.1145E00
829.30	9.2742E00
829.60	9.1478E00
829.90	9.4027E00
830.20	9.4118E00
830.50	9.4765E00
830.80	9.5250E00
831.10	9.6493E00
831.40	9.6280E00
831.70	9.6471E00
832.00	9.4757E00
832.30	9.9862E00
832.60	9.6819E00
832.90	1.0033E01
833.20	1.0057E01
833.50	9.9765E00
833.80	1.0097E01
834.10	1.0385E01
834.40	1.0155E01
834.70	1.0231E01
835.00	1.0535E01
835.30	1.0525E01
835.60	1.0623E01
835.90	1.0664E01
836.20	1.0729E01
836.50	1.0800E01
836.80	1.0930E01
837.10	1.0782E01
837.40	1.0645E01
837.70	1.1221E01
838.00	1.1235E01
838.30	1.1355E01
838.60	1.1342E01
838.90	1.1177E01
839.19	1.1389E01
839.49	1.1757E01
839.79	1.1557E01
840.09	1.1638E01
840.39	1.1606E01
840.69	1.1661E01
840.99	1.2218E01
841.29	1.1697E01
841.59	1.2059E01
841.88	1.2377E01
842.18	1.2104E01
842.48	1.2356E01
842.78	1.2462E01
843.08	1.2815E01
843.38	1.2797E01
843.68	1.3131E01
843.97	1.2885E01
844.27	1.2890E01
844.57	1.2808E01
844.87	1.3062E01
845.17	1.3224E01
845.47	1.3343E01
845.76	1.3344E01
846.06	1.3603E01
846.36	1.3658E01
846.66	1.3464E01
846.96	1.3496E01
847.25	1.3977E01
847.55	1.4001E01
847.85	1.4315E01
848.15	1.4155E01
848.44	1.4145E01
848.74	1.4592E01
849.04	1.4770E01
849.34	1.4889E01
849.63	1.4607E01
849.93	1.4978E01
850.23	1.5238E01
850.53	1.5230E01
850.82	1.5292E01
851.12	1.5786E01
851.42	1.5599E01
851.71	1.5387E01
852.01	1.5769E01
852.31	1.5339E01
852.61	1.5016E01
852.90	1.4780E01
853.20	1.4793E01
853.50	1.4848E01
853.79	1.5328E01
854.09	1.4624E01
854.39	1.4103E01
854.68	1.3482E01
854.98	1.3089E01
855.28	1.2876E01
855.57	1.3369E01
855.87	1.3459E01
856.17	1.3508E01
856.46	1.3616E01
856.76	1.3598E01
857.05	1.4014E01
857.35	1.3874E01
857.65	1.4378E01
857.94	1.4344E01
858.24	1.4302E01
858.53	1.4662E01
858.83	1.5462E01
859.13	1.4951E01
859.42	1.4593E01
859.72	1.4801E01
860.01	1.4660E01
860.31	1.4769E01
860.60	1.4845E01
860.90	1.4607E01
861.20	1.4935E01
861.49	1.4560E01
861.79	1.4712E01
862.08	1.5694E01
862.38	1.4924E01
862.67	1.5380E01
862.97	1.4548E01
863.26	1.4574E01
863.56	1.5054E01
863.85	1.4994E01
864.15	1.4924E01
864.44	1.4210E01
864.74	1.4858E01
865.03	1.5442E01
865.33	1.4818E01
865.62	1.5245E01
865.92	1.4617E01
866.21	1.4913E01
866.51	1.4629E01
866.80	1.4387E01
867.10	1.4274E01
867.39	1.4046E01
867.69	1.4073E01
867.98	1.3591E01
868.27	1.4059E01
868.57	1.3511E01
868.86	1.4323E01
869.16	1.3950E01
869.45	1.4100E01
869.75	1.4462E01
870.04	1.4094E01
870.33	1.4760E01
870.63	1.4540E01
870.92	1.4242E01
871.22	1.5567E01
871.51	1.4963E01
871.80	1.4639E01
872.10	1.4639E01
>>>>>End Processed Spectral Data<<<<<
