SpectraSuite Data File
++++++++++++++++++++++++++++++++++++
Date: Sat May 16 09:17:32 PDT 2015
User: schluterlab
Dark Spectrum Present: Yes
Reference Spectrum Present: No
Number of Sampled Component Spectra: 1
Spectrometers: USB2E3373
Integration Time (usec): 2300000 (USB2E3373)
Spectra Averaged: 3 (USB2E3373)
Boxcar Smoothing: 0 (USB2E3373)
Correct for Electrical Dark: No (USB2E3373)
Strobe/Lamp Enabled: No (USB2E3373)
Correct for Detector Non-linearity: No (USB2E3373)
Correct for Stray Light: No (USB2E3373)
Number of Pixels in Processed Spectrum: 2048
>>>>>Begin Processed Spectral Data<<<<<
178.53	0.0000E00
178.91	0.0000E00
179.29	0.0000E00
179.67	0.0000E00
180.04	0.0000E00
180.42	0.0000E00
180.80	0.0000E00
181.18	0.0000E00
181.56	0.0000E00
181.94	0.0000E00
182.31	0.0000E00
182.69	0.0000E00
183.07	0.0000E00
183.45	0.0000E00
183.83	0.0000E00
184.20	0.0000E00
184.58	0.0000E00
184.96	0.0000E00
185.34	0.0000E00
185.72	0.0000E00
186.09	0.0000E00
186.47	0.0000E00
186.85	0.0000E00
187.23	0.0000E00
187.61	0.0000E00
187.98	0.0000E00
188.36	0.0000E00
188.74	0.0000E00
189.12	0.0000E00
189.49	0.0000E00
189.87	0.0000E00
190.25	0.0000E00
190.63	0.0000E00
191.00	0.0000E00
191.38	0.0000E00
191.76	0.0000E00
192.14	0.0000E00
192.51	0.0000E00
192.89	0.0000E00
193.27	0.0000E00
193.65	0.0000E00
194.02	0.0000E00
194.40	0.0000E00
194.78	0.0000E00
195.15	0.0000E00
195.53	0.0000E00
195.91	0.0000E00
196.29	0.0000E00
196.66	0.0000E00
197.04	0.0000E00
197.42	0.0000E00
197.79	0.0000E00
198.17	0.0000E00
198.55	0.0000E00
198.92	0.0000E00
199.30	0.0000E00
199.68	0.0000E00
200.05	0.0000E00
200.43	0.0000E00
200.81	0.0000E00
201.18	0.0000E00
201.56	0.0000E00
201.94	0.0000E00
202.31	0.0000E00
202.69	0.0000E00
203.07	0.0000E00
203.44	0.0000E00
203.82	0.0000E00
204.19	0.0000E00
204.57	0.0000E00
204.95	0.0000E00
205.32	0.0000E00
205.70	0.0000E00
206.08	0.0000E00
206.45	0.0000E00
206.83	0.0000E00
207.20	0.0000E00
207.58	0.0000E00
207.96	0.0000E00
208.33	0.0000E00
208.71	0.0000E00
209.08	0.0000E00
209.46	0.0000E00
209.84	0.0000E00
210.21	0.0000E00
210.59	0.0000E00
210.96	0.0000E00
211.34	0.0000E00
211.71	0.0000E00
212.09	0.0000E00
212.46	0.0000E00
212.84	0.0000E00
213.22	-0.0000E00
213.59	0.0000E00
213.97	0.0000E00
214.34	0.0000E00
214.72	0.0000E00
215.09	0.0000E00
215.47	0.0000E00
215.84	0.0000E00
216.22	0.0000E00
216.59	0.0000E00
216.97	0.0000E00
217.34	0.0000E00
217.72	0.0000E00
218.09	0.0000E00
218.47	0.0000E00
218.84	-0.0000E00
219.22	0.0000E00
219.59	0.0000E00
219.97	0.0000E00
220.34	0.0000E00
220.72	0.0000E00
221.09	0.0000E00
221.47	0.0000E00
221.84	0.0000E00
222.22	0.0000E00
222.59	0.0000E00
222.97	0.0000E00
223.34	0.0000E00
223.72	0.0000E00
224.09	0.0000E00
224.46	0.0000E00
224.84	0.0000E00
225.21	0.0000E00
225.59	0.0000E00
225.96	0.0000E00
226.34	0.0000E00
226.71	0.0000E00
227.08	0.0000E00
227.46	0.0000E00
227.83	0.0000E00
228.21	0.0000E00
228.58	0.0000E00
228.95	0.0000E00
229.33	0.0000E00
229.70	0.0000E00
230.08	0.0000E00
230.45	0.0000E00
230.82	0.0000E00
231.20	0.0000E00
231.57	0.0000E00
231.95	0.0000E00
232.32	0.0000E00
232.69	0.0000E00
233.07	0.0000E00
233.44	0.0000E00
233.81	0.0000E00
234.19	0.0000E00
234.56	0.0000E00
234.93	0.0000E00
235.31	0.0000E00
235.68	0.0000E00
236.05	0.0000E00
236.43	0.0000E00
236.80	0.0000E00
237.17	0.0000E00
237.55	0.0000E00
237.92	0.0000E00
238.29	0.0000E00
238.67	0.0000E00
239.04	0.0000E00
239.41	0.0000E00
239.79	0.0000E00
240.16	0.0000E00
240.53	0.0000E00
240.91	0.0000E00
241.28	0.0000E00
241.65	0.0000E00
242.02	0.0000E00
242.40	0.0000E00
242.77	0.0000E00
243.14	0.0000E00
243.51	0.0000E00
243.89	0.0000E00
244.26	0.0000E00
244.63	0.0000E00
245.00	0.0000E00
245.38	0.0000E00
245.75	0.0000E00
246.12	0.0000E00
246.49	0.0000E00
246.87	0.0000E00
247.24	0.0000E00
247.61	0.0000E00
247.98	0.0000E00
248.36	0.0000E00
248.73	0.0000E00
249.10	0.0000E00
249.47	0.0000E00
249.84	0.0000E00
250.22	0.0000E00
250.59	0.0000E00
250.96	0.0000E00
251.33	0.0000E00
251.70	0.0000E00
252.08	0.0000E00
252.45	0.0000E00
252.82	0.0000E00
253.19	0.0000E00
253.56	0.0000E00
253.94	0.0000E00
254.31	0.0000E00
254.68	0.0000E00
255.05	0.0000E00
255.42	0.0000E00
255.79	0.0000E00
256.16	0.0000E00
256.54	0.0000E00
256.91	0.0000E00
257.28	0.0000E00
257.65	0.0000E00
258.02	0.0000E00
258.39	0.0000E00
258.76	0.0000E00
259.14	0.0000E00
259.51	0.0000E00
259.88	0.0000E00
260.25	0.0000E00
260.62	0.0000E00
260.99	0.0000E00
261.36	0.0000E00
261.73	0.0000E00
262.10	0.0000E00
262.47	0.0000E00
262.85	0.0000E00
263.22	0.0000E00
263.59	0.0000E00
263.96	0.0000E00
264.33	0.0000E00
264.70	0.0000E00
265.07	0.0000E00
265.44	0.0000E00
265.81	0.0000E00
266.18	0.0000E00
266.55	0.0000E00
266.92	0.0000E00
267.29	0.0000E00
267.66	0.0000E00
268.03	0.0000E00
268.40	0.0000E00
268.77	0.0000E00
269.14	0.0000E00
269.51	0.0000E00
269.88	0.0000E00
270.25	0.0000E00
270.62	0.0000E00
270.99	0.0000E00
271.36	0.0000E00
271.73	0.0000E00
272.10	0.0000E00
272.47	0.0000E00
272.84	0.0000E00
273.21	0.0000E00
273.58	0.0000E00
273.95	0.0000E00
274.32	0.0000E00
274.69	0.0000E00
275.06	0.0000E00
275.43	0.0000E00
275.80	0.0000E00
276.17	0.0000E00
276.54	0.0000E00
276.91	0.0000E00
277.28	0.0000E00
277.65	0.0000E00
278.02	0.0000E00
278.39	0.0000E00
278.76	0.0000E00
279.13	0.0000E00
279.50	0.0000E00
279.87	0.0000E00
280.23	0.0000E00
280.60	0.0000E00
280.97	0.0000E00
281.34	0.0000E00
281.71	0.0000E00
282.08	0.0000E00
282.45	0.0000E00
282.82	0.0000E00
283.19	0.0000E00
283.56	0.0000E00
283.92	0.0000E00
284.29	0.0000E00
284.66	0.0000E00
285.03	0.0000E00
285.40	0.0000E00
285.77	0.0000E00
286.14	0.0000E00
286.51	0.0000E00
286.87	0.0000E00
287.24	0.0000E00
287.61	0.0000E00
287.98	0.0000E00
288.35	0.0000E00
288.72	0.0000E00
289.08	0.0000E00
289.45	0.0000E00
289.82	0.0000E00
290.19	0.0000E00
290.56	0.0000E00
290.93	0.0000E00
291.29	0.0000E00
291.66	0.0000E00
292.03	0.0000E00
292.40	0.0000E00
292.77	0.0000E00
293.13	0.0000E00
293.50	0.0000E00
293.87	0.0000E00
294.24	0.0000E00
294.60	0.0000E00
294.97	0.0000E00
295.34	0.0000E00
295.71	0.0000E00
296.08	0.0000E00
296.44	0.0000E00
296.81	0.0000E00
297.18	0.0000E00
297.55	0.0000E00
297.91	0.0000E00
298.28	0.0000E00
298.65	0.0000E00
299.02	0.0000E00
299.38	0.0000E00
299.75	0.0000E00
300.12	3.0119E00
300.48	5.9725E-01
300.85	9.4964E-01
301.22	8.7120E-01
301.59	8.9027E-01
301.95	1.2470E00
302.32	1.5623E00
302.69	5.1906E-01
303.05	5.3303E-01
303.42	9.3511E-01
303.79	7.7489E-01
304.15	1.4666E00
304.52	1.2624E00
304.89	1.3869E00
305.25	8.8643E-01
305.62	9.0185E-01
305.99	3.1468E00
306.35	9.2693E-01
306.72	1.2627E00
307.09	1.0608E00
307.45	9.4571E-01
307.82	1.0934E00
308.19	1.0312E00
308.55	1.1948E00
308.92	2.4492E00
309.29	1.6788E00
309.65	1.1088E00
310.02	1.0805E00
310.38	8.0727E-01
310.75	2.6083E00
311.12	8.8414E-01
311.48	1.6625E00
311.85	1.2827E00
312.22	7.5906E-01
312.58	9.5575E-01
312.95	1.4561E00
313.31	1.4590E00
313.68	1.1226E00
314.05	1.4130E00
314.41	2.0063E00
314.78	9.5242E-01
315.14	1.1523E00
315.51	2.3195E00
315.87	1.1687E00
316.24	1.1775E00
316.61	2.0945E00
316.97	1.7944E00
317.34	1.3405E00
317.70	2.4324E00
318.07	1.8383E00
318.43	1.4270E00
318.80	2.2025E00
319.16	1.8868E00
319.53	2.5405E00
319.89	1.4229E00
320.26	1.2103E00
320.62	2.7891E00
320.99	1.0369E00
321.35	1.6562E00
321.72	1.3349E00
322.08	1.5540E00
322.45	1.0720E00
322.81	2.9312E00
323.18	1.8006E00
323.54	1.2628E00
323.91	1.3126E00
324.27	1.0075E00
324.64	1.9351E00
325.00	1.6487E00
325.37	1.0523E00
325.73	1.6680E00
326.10	1.5047E00
326.46	1.3702E00
326.83	3.1466E00
327.19	2.3310E00
327.56	1.4325E00
327.92	1.9412E00
328.29	1.9449E00
328.65	1.4963E00
329.01	1.4982E00
329.38	1.6687E00
329.74	1.6715E00
330.11	1.1285E00
330.47	1.7370E00
330.84	2.2589E00
331.20	2.6566E00
331.56	1.9628E00
331.93	1.8013E00
332.29	2.4993E00
332.66	9.9754E-01
333.02	2.1318E00
333.38	1.2776E00
333.75	1.3936E00
334.11	1.7121E00
334.48	1.3869E00
334.84	1.5284E00
335.20	1.5254E00
335.57	1.6332E00
335.93	3.9999E00
336.29	3.3809E00
336.66	1.4646E00
337.02	2.7416E00
337.38	1.1244E00
337.75	1.3298E00
338.11	1.5667E00
338.47	1.1556E00
338.84	1.2940E00
339.20	1.2979E00
339.56	1.4275E00
339.93	1.3463E00
340.29	1.7153E00
340.65	1.1511E00
341.02	2.1499E00
341.38	1.6221E00
341.74	2.2884E00
342.11	1.5885E00
342.47	1.2911E00
342.83	1.7362E00
343.20	1.2444E00
343.56	1.1363E00
343.92	1.6053E00
344.28	1.4299E00
344.65	1.9643E00
345.01	1.2392E00
345.37	2.0863E00
345.73	1.3663E00
346.10	1.1091E00
346.46	1.3546E00
346.82	1.5758E00
347.19	1.6389E00
347.55	1.3922E00
347.91	1.4045E00
348.27	1.5374E00
348.63	1.7515E00
349.00	1.1386E00
349.36	1.0801E00
349.72	1.2050E00
350.08	1.8596E00
350.45	1.4778E00
350.81	1.5259E00
351.17	1.0699E00
351.53	1.3904E00
351.89	1.5072E00
352.26	1.2491E00
352.62	1.4079E00
352.98	1.1590E00
353.34	1.0206E00
353.70	1.2984E00
354.07	1.0856E00
354.43	1.0894E00
354.79	1.2059E00
355.15	9.2593E-01
355.51	1.3831E00
355.87	1.2987E00
356.24	9.6749E-01
356.60	1.3688E00
356.96	1.1864E00
357.32	1.2164E00
357.68	1.1529E00
358.04	1.1596E00
358.40	1.0654E00
358.77	1.2449E00
359.13	1.1605E00
359.49	1.4679E00
359.85	1.3818E00
360.21	1.0351E00
360.57	1.0093E00
360.93	1.1067E00
361.29	1.0800E00
361.66	1.2333E00
362.02	9.8903E-01
362.38	1.1140E00
362.74	1.0578E00
363.10	1.1765E00
363.46	1.2104E00
363.82	1.2678E00
364.18	1.1051E00
364.54	1.1545E00
364.90	9.3226E-01
365.26	9.8074E-01
365.62	1.0904E00
365.98	1.0301E00
366.35	1.0284E00
366.71	8.3069E-01
367.07	1.3866E00
367.43	1.2109E00
367.79	1.0501E00
368.15	1.0231E00
368.51	1.1485E00
368.87	1.0593E00
369.23	1.2443E00
369.59	9.8450E-01
369.95	1.3933E00
370.31	1.1062E00
370.67	1.1613E00
371.03	1.0022E00
371.39	9.7963E-01
371.75	1.2454E00
372.11	1.1066E00
372.47	9.6678E-01
372.83	1.1155E00
373.19	1.1660E00
373.55	1.0485E00
373.91	1.1604E00
374.27	8.9106E-01
374.63	1.0211E00
374.99	9.6001E-01
375.35	1.0611E00
375.71	1.0388E00
376.07	9.6755E-01
376.42	1.0680E00
376.78	9.8516E-01
377.14	9.3228E-01
377.50	1.0529E00
377.86	9.8446E-01
378.22	1.1524E00
378.58	9.2431E-01
378.94	1.0195E00
379.30	8.3469E-01
379.66	9.3458E-01
380.02	1.0203E00
380.38	8.7076E-01
380.74	9.6079E-01
381.09	9.6088E-01
381.45	8.8926E-01
381.81	8.9752E-01
382.17	8.8560E-01
382.53	8.3923E-01
382.89	7.9596E-01
383.25	9.2605E-01
383.61	9.2064E-01
383.97	9.7319E-01
384.32	9.8200E-01
384.68	9.2060E-01
385.04	9.0283E-01
385.40	9.1791E-01
385.76	7.3462E-01
386.12	9.1030E-01
386.48	8.1254E-01
386.83	8.9591E-01
387.19	8.7010E-01
387.55	9.4530E-01
387.91	9.1598E-01
388.27	8.3145E-01
388.62	8.3396E-01
388.98	8.5215E-01
389.34	8.8051E-01
389.70	8.6327E-01
390.06	8.5452E-01
390.42	8.3813E-01
390.77	8.1766E-01
391.13	8.7279E-01
391.49	8.4635E-01
391.85	9.2176E-01
392.20	8.4255E-01
392.56	8.7489E-01
392.92	8.3459E-01
393.28	8.3373E-01
393.64	8.5846E-01
393.99	8.8102E-01
394.35	8.1218E-01
394.71	9.2028E-01
395.07	8.5569E-01
395.42	8.2125E-01
395.78	8.1187E-01
396.14	8.1869E-01
396.50	7.6734E-01
396.85	8.8937E-01
397.21	9.2097E-01
397.57	8.3180E-01
397.92	8.5081E-01
398.28	7.6283E-01
398.64	8.1139E-01
399.00	7.7552E-01
399.35	7.6550E-01
399.71	8.1404E-01
400.07	8.0643E-01
400.42	8.1075E-01
400.78	7.7987E-01
401.14	7.7457E-01
401.49	7.8055E-01
401.85	7.8128E-01
402.21	7.0873E-01
402.57	7.4110E-01
402.92	7.9916E-01
403.28	7.9588E-01
403.63	7.8095E-01
403.99	8.0687E-01
404.35	7.4653E-01
404.70	7.5194E-01
405.06	7.4066E-01
405.42	7.9401E-01
405.77	7.2519E-01
406.13	7.0529E-01
406.49	6.7687E-01
406.84	6.9723E-01
407.20	7.4331E-01
407.55	7.6587E-01
407.91	7.7575E-01
408.27	7.0589E-01
408.62	6.9035E-01
408.98	7.2091E-01
409.34	7.0723E-01
409.69	7.4563E-01
410.05	6.9623E-01
410.40	7.0258E-01
410.76	6.7655E-01
411.11	7.0219E-01
411.47	7.1962E-01
411.83	6.8513E-01
412.18	6.8313E-01
412.54	6.7990E-01
412.89	6.9701E-01
413.25	6.4921E-01
413.60	6.7056E-01
413.96	7.1363E-01
414.31	6.7300E-01
414.67	7.0232E-01
415.03	7.1011E-01
415.38	7.4001E-01
415.74	7.0880E-01
416.09	7.0113E-01
416.45	7.2518E-01
416.80	6.9646E-01
417.16	6.9587E-01
417.51	6.8709E-01
417.87	7.0752E-01
418.22	6.6231E-01
418.58	6.8339E-01
418.93	6.4093E-01
419.29	6.7748E-01
419.64	6.4607E-01
420.00	6.6554E-01
420.35	6.5775E-01
420.71	6.3373E-01
421.06	6.5789E-01
421.42	6.9176E-01
421.77	6.5014E-01
422.12	6.6370E-01
422.48	6.3987E-01
422.83	6.6995E-01
423.19	6.3379E-01
423.54	6.5753E-01
423.90	6.4007E-01
424.25	6.2885E-01
424.61	6.5843E-01
424.96	6.2905E-01
425.31	6.0957E-01
425.67	6.0411E-01
426.02	6.1645E-01
426.38	6.1676E-01
426.73	6.0805E-01
427.09	6.1776E-01
427.44	5.8721E-01
427.79	6.0253E-01
428.15	6.0585E-01
428.50	6.1392E-01
428.85	6.3062E-01
429.21	5.7133E-01
429.56	5.8007E-01
429.92	5.7316E-01
430.27	5.8996E-01
430.62	6.0773E-01
430.98	6.1434E-01
431.33	5.9638E-01
431.68	5.8360E-01
432.04	5.7652E-01
432.39	5.7627E-01
432.74	6.0028E-01
433.10	5.5523E-01
433.45	5.9421E-01
433.80	5.8257E-01
434.16	5.7635E-01
434.51	5.7031E-01
434.86	5.8872E-01
435.22	5.6137E-01
435.57	6.1223E-01
435.92	5.8820E-01
436.28	5.5368E-01
436.63	5.5918E-01
436.98	5.6260E-01
437.34	5.8454E-01
437.69	5.6228E-01
438.04	5.4256E-01
438.39	5.8294E-01
438.75	5.6704E-01
439.10	5.5152E-01
439.45	5.7842E-01
439.81	5.8027E-01
440.16	5.4654E-01
440.51	5.5877E-01
440.86	5.8670E-01
441.22	5.6224E-01
441.57	5.4154E-01
441.92	5.4061E-01
442.27	5.5777E-01
442.63	5.4922E-01
442.98	5.7890E-01
443.33	5.6885E-01
443.68	5.3373E-01
444.03	5.2628E-01
444.39	5.1995E-01
444.74	5.6396E-01
445.09	5.6815E-01
445.44	5.5848E-01
445.79	5.1012E-01
446.15	5.4409E-01
446.50	5.4912E-01
446.85	5.1803E-01
447.20	5.1587E-01
447.55	5.4249E-01
447.91	5.3788E-01
448.26	5.4785E-01
448.61	5.3561E-01
448.96	5.1783E-01
449.31	5.2878E-01
449.66	5.3598E-01
450.02	5.3201E-01
450.37	5.3395E-01
450.72	5.2193E-01
451.07	5.6385E-01
451.42	5.6738E-01
451.77	5.3664E-01
452.12	5.2736E-01
452.47	5.6204E-01
452.83	5.2086E-01
453.18	5.3646E-01
453.53	5.3178E-01
453.88	4.9509E-01
454.23	5.0543E-01
454.58	5.0076E-01
454.93	5.1330E-01
455.28	5.1331E-01
455.63	5.0372E-01
455.98	4.9694E-01
456.34	5.2318E-01
456.69	5.1252E-01
457.04	5.1338E-01
457.39	4.8522E-01
457.74	4.9085E-01
458.09	4.9127E-01
458.44	4.8418E-01
458.79	4.7332E-01
459.14	4.7575E-01
459.49	5.0183E-01
459.84	4.8112E-01
460.19	5.0608E-01
460.54	5.1709E-01
460.89	4.7018E-01
461.24	5.0630E-01
461.59	4.8893E-01
461.94	5.0016E-01
462.29	4.6059E-01
462.64	4.9310E-01
462.99	5.0054E-01
463.34	5.2025E-01
463.69	4.7902E-01
464.04	4.5973E-01
464.39	4.6556E-01
464.74	4.8294E-01
465.09	4.9733E-01
465.44	4.6276E-01
465.79	4.7778E-01
466.14	4.7628E-01
466.49	4.7237E-01
466.84	4.7102E-01
467.19	4.7669E-01
467.54	4.7511E-01
467.89	4.6249E-01
468.24	4.4266E-01
468.59	4.5042E-01
468.94	4.5034E-01
469.29	4.4823E-01
469.64	4.5944E-01
469.99	4.5118E-01
470.34	4.3087E-01
470.68	4.6497E-01
471.03	4.4067E-01
471.38	4.3677E-01
471.73	4.2637E-01
472.08	4.1900E-01
472.43	4.0578E-01
472.78	4.3052E-01
473.13	4.2731E-01
473.48	4.1670E-01
473.83	4.0611E-01
474.17	4.2224E-01
474.52	4.0945E-01
474.87	3.9478E-01
475.22	4.0190E-01
475.57	3.8094E-01
475.92	3.6690E-01
476.27	3.8978E-01
476.61	3.7372E-01
476.96	3.6926E-01
477.31	3.4818E-01
477.66	3.6024E-01
478.01	3.5369E-01
478.36	3.5358E-01
478.70	3.4599E-01
479.05	3.4832E-01
479.40	3.4048E-01
479.75	3.4162E-01
480.10	3.3335E-01
480.45	3.2877E-01
480.79	3.2643E-01
481.14	3.3201E-01
481.49	3.2679E-01
481.84	3.1712E-01
482.19	3.1045E-01
482.53	3.1648E-01
482.88	3.1087E-01
483.23	3.0672E-01
483.58	3.0285E-01
483.92	3.1011E-01
484.27	2.9704E-01
484.62	2.9733E-01
484.97	2.9149E-01
485.31	2.8775E-01
485.66	2.9254E-01
486.01	2.9349E-01
486.36	2.8326E-01
486.70	2.8796E-01
487.05	2.8687E-01
487.40	2.8363E-01
487.75	2.7860E-01
488.09	2.7807E-01
488.44	2.8176E-01
488.79	2.7946E-01
489.13	2.7545E-01
489.48	2.7564E-01
489.83	2.7839E-01
490.17	2.7011E-01
490.52	2.6923E-01
490.87	2.7036E-01
491.22	2.7367E-01
491.56	2.7261E-01
491.91	2.7490E-01
492.26	2.7268E-01
492.60	2.7159E-01
492.95	2.7374E-01
493.30	2.7302E-01
493.64	2.6965E-01
493.99	2.7416E-01
494.34	2.7005E-01
494.68	2.6622E-01
495.03	2.7136E-01
495.37	2.6767E-01
495.72	2.7170E-01
496.07	2.6548E-01
496.41	2.6861E-01
496.76	2.6819E-01
497.11	2.6953E-01
497.45	2.6878E-01
497.80	2.7003E-01
498.14	2.6641E-01
498.49	2.7098E-01
498.84	2.6872E-01
499.18	2.6940E-01
499.53	2.6872E-01
499.87	2.6440E-01
500.22	2.7155E-01
500.56	2.6852E-01
500.91	2.6938E-01
501.26	2.6691E-01
501.60	2.6878E-01
501.95	2.6669E-01
502.29	2.6807E-01
502.64	2.6615E-01
502.98	2.7024E-01
503.33	2.6586E-01
503.67	2.6874E-01
504.02	2.6721E-01
504.36	2.6617E-01
504.71	2.6785E-01
505.06	2.6584E-01
505.40	2.6422E-01
505.75	2.6516E-01
506.09	2.6484E-01
506.44	2.6441E-01
506.78	2.6617E-01
507.13	2.6686E-01
507.47	2.6381E-01
507.82	2.6361E-01
508.16	2.6401E-01
508.51	2.6337E-01
508.85	2.6007E-01
509.19	2.6099E-01
509.54	2.6307E-01
509.88	2.6231E-01
510.23	2.5783E-01
510.57	2.5888E-01
510.92	2.6045E-01
511.26	2.6031E-01
511.61	2.6060E-01
511.95	2.5825E-01
512.30	2.5801E-01
512.64	2.5888E-01
512.98	2.5787E-01
513.33	2.5872E-01
513.67	2.5680E-01
514.02	2.5808E-01
514.36	2.5499E-01
514.70	2.5565E-01
515.05	2.5452E-01
515.39	2.5519E-01
515.74	2.5575E-01
516.08	2.5656E-01
516.42	2.5312E-01
516.77	2.5517E-01
517.11	2.5293E-01
517.46	2.5382E-01
517.80	2.5321E-01
518.14	2.5247E-01
518.49	2.5215E-01
518.83	2.5121E-01
519.17	2.5500E-01
519.52	2.5236E-01
519.86	2.5305E-01
520.20	2.5072E-01
520.55	2.5207E-01
520.89	2.5070E-01
521.23	2.5213E-01
521.58	2.5337E-01
521.92	2.5228E-01
522.26	2.5574E-01
522.61	2.5140E-01
522.95	2.5337E-01
523.29	2.5013E-01
523.64	2.5139E-01
523.98	2.5350E-01
524.32	2.5327E-01
524.66	2.5368E-01
525.01	2.5383E-01
525.35	2.5544E-01
525.69	2.5519E-01
526.04	2.5700E-01
526.38	2.5144E-01
526.72	2.5768E-01
527.06	2.5474E-01
527.41	2.5789E-01
527.75	2.5867E-01
528.09	2.5599E-01
528.43	2.6009E-01
528.78	2.5844E-01
529.12	2.6289E-01
529.46	2.6121E-01
529.80	2.6189E-01
530.15	2.6192E-01
530.49	2.6321E-01
530.83	2.6542E-01
531.17	2.6444E-01
531.51	2.6655E-01
531.86	2.6446E-01
532.20	2.6802E-01
532.54	2.6732E-01
532.88	2.6920E-01
533.22	2.7156E-01
533.57	2.7510E-01
533.91	2.7072E-01
534.25	2.7221E-01
534.59	2.7276E-01
534.93	2.7225E-01
535.27	2.7276E-01
535.62	2.7814E-01
535.96	2.7705E-01
536.30	2.7657E-01
536.64	2.7807E-01
536.98	2.8187E-01
537.32	2.7889E-01
537.66	2.8191E-01
538.01	2.8129E-01
538.35	2.8479E-01
538.69	2.8341E-01
539.03	2.8739E-01
539.37	2.8554E-01
539.71	2.8741E-01
540.05	2.8634E-01
540.39	2.8689E-01
540.73	2.8790E-01
541.07	2.8725E-01
541.42	2.8726E-01
541.76	2.8892E-01
542.10	2.9109E-01
542.44	2.9120E-01
542.78	2.9395E-01
543.12	2.8858E-01
543.46	2.9492E-01
543.80	2.9045E-01
544.14	2.9227E-01
544.48	2.9044E-01
544.82	2.9514E-01
545.16	2.9393E-01
545.50	2.9356E-01
545.84	2.9829E-01
546.18	2.9490E-01
546.52	2.9631E-01
546.86	2.9506E-01
547.20	3.0038E-01
547.54	3.0236E-01
547.88	2.9786E-01
548.22	2.9831E-01
548.56	3.0136E-01
548.90	3.0138E-01
549.24	3.0139E-01
549.58	3.0223E-01
549.92	3.0252E-01
550.26	3.0346E-01
550.60	3.0271E-01
550.94	3.0120E-01
551.28	3.0607E-01
551.62	3.0204E-01
551.96	3.0428E-01
552.30	3.0611E-01
552.64	3.0575E-01
552.98	3.0579E-01
553.32	3.0650E-01
553.66	3.0644E-01
554.00	3.0316E-01
554.34	3.0570E-01
554.68	3.0549E-01
555.02	3.0439E-01
555.36	3.0830E-01
555.69	3.0970E-01
556.03	3.0543E-01
556.37	3.0838E-01
556.71	3.0593E-01
557.05	3.0612E-01
557.39	3.0833E-01
557.73	3.0595E-01
558.07	3.0835E-01
558.41	3.0802E-01
558.75	3.0943E-01
559.08	3.0772E-01
559.42	3.0661E-01
559.76	3.0932E-01
560.10	3.0986E-01
560.44	3.1027E-01
560.78	3.0635E-01
561.12	3.1094E-01
561.45	3.1097E-01
561.79	3.0936E-01
562.13	3.0858E-01
562.47	3.0923E-01
562.81	3.1093E-01
563.15	3.1151E-01
563.48	3.1159E-01
563.82	3.0796E-01
564.16	3.1053E-01
564.50	3.1326E-01
564.84	3.0927E-01
565.17	3.1023E-01
565.51	3.0878E-01
565.85	3.1239E-01
566.19	3.0884E-01
566.52	3.1296E-01
566.86	3.1063E-01
567.20	3.1480E-01
567.54	3.1338E-01
567.88	3.1356E-01
568.21	3.1430E-01
568.55	3.1329E-01
568.89	3.1414E-01
569.23	3.1424E-01
569.56	3.1323E-01
569.90	3.1346E-01
570.24	3.1727E-01
570.57	3.1451E-01
570.91	3.1661E-01
571.25	3.1529E-01
571.59	3.1585E-01
571.92	3.1654E-01
572.26	3.1710E-01
572.60	3.1894E-01
572.93	3.1698E-01
573.27	3.2269E-01
573.61	3.2236E-01
573.95	3.1524E-01
574.28	3.2264E-01
574.62	3.2257E-01
574.96	3.2531E-01
575.29	3.2429E-01
575.63	3.2823E-01
575.97	3.2574E-01
576.30	3.3101E-01
576.64	3.2737E-01
576.98	3.2978E-01
577.31	3.3142E-01
577.65	3.3415E-01
577.98	3.2836E-01
578.32	3.3539E-01
578.66	3.3811E-01
578.99	3.3659E-01
579.33	3.3925E-01
579.67	3.3809E-01
580.00	3.3947E-01
580.34	3.3962E-01
580.67	3.4264E-01
581.01	3.4118E-01
581.35	3.4371E-01
581.68	3.4454E-01
582.02	3.4666E-01
582.35	3.4506E-01
582.69	3.4746E-01
583.02	3.5299E-01
583.36	3.5231E-01
583.70	3.5156E-01
584.03	3.5227E-01
584.37	3.5205E-01
584.70	3.5506E-01
585.04	3.5821E-01
585.37	3.5625E-01
585.71	3.6047E-01
586.04	3.6046E-01
586.38	3.5811E-01
586.72	3.6575E-01
587.05	3.6086E-01
587.39	3.6403E-01
587.72	3.6210E-01
588.06	3.6726E-01
588.39	3.6226E-01
588.73	3.6976E-01
589.06	3.6796E-01
589.40	3.7104E-01
589.73	3.7327E-01
590.07	3.7344E-01
590.40	3.7558E-01
590.73	3.7796E-01
591.07	3.7641E-01
591.40	3.7958E-01
591.74	3.7391E-01
592.07	3.7986E-01
592.41	3.8127E-01
592.74	3.8236E-01
593.08	3.7854E-01
593.41	3.8134E-01
593.75	3.8356E-01
594.08	3.8742E-01
594.41	3.8635E-01
594.75	3.8848E-01
595.08	3.8608E-01
595.42	3.8310E-01
595.75	3.8620E-01
596.09	3.8991E-01
596.42	3.8720E-01
596.75	3.8832E-01
597.09	3.9452E-01
597.42	3.8671E-01
597.75	3.9552E-01
598.09	3.9446E-01
598.42	3.9218E-01
598.76	3.9203E-01
599.09	3.9596E-01
599.42	3.9757E-01
599.76	3.9548E-01
600.09	3.9760E-01
600.42	4.0120E-01
600.76	3.9224E-01
601.09	3.9558E-01
601.42	4.0496E-01
601.76	4.0169E-01
602.09	3.9989E-01
602.42	3.9879E-01
602.76	3.9876E-01
603.09	3.9966E-01
603.42	4.0263E-01
603.76	3.9975E-01
604.09	4.0215E-01
604.42	4.0177E-01
604.76	3.9967E-01
605.09	4.0473E-01
605.42	4.0117E-01
605.75	4.0355E-01
606.09	4.0597E-01
606.42	4.0510E-01
606.75	4.0765E-01
607.09	4.0514E-01
607.42	4.0430E-01
607.75	4.0557E-01
608.08	4.0704E-01
608.42	4.0937E-01
608.75	4.0675E-01
609.08	4.1021E-01
609.41	4.0852E-01
609.75	4.0655E-01
610.08	4.1046E-01
610.41	4.1030E-01
610.74	4.1034E-01
611.07	4.1135E-01
611.41	4.0622E-01
611.74	4.1046E-01
612.07	4.0946E-01
612.40	4.0664E-01
612.73	4.1099E-01
613.07	4.1577E-01
613.40	4.0973E-01
613.73	4.0933E-01
614.06	4.1352E-01
614.39	4.1124E-01
614.72	4.1599E-01
615.06	4.1381E-01
615.39	4.1810E-01
615.72	4.1382E-01
616.05	4.1898E-01
616.38	4.1933E-01
616.71	4.1720E-01
617.05	4.1470E-01
617.38	4.1941E-01
617.71	4.1831E-01
618.04	4.1814E-01
618.37	4.1405E-01
618.70	4.1788E-01
619.03	4.1833E-01
619.36	4.1159E-01
619.69	4.2018E-01
620.03	4.1671E-01
620.36	4.1714E-01
620.69	4.1672E-01
621.02	4.1543E-01
621.35	4.1584E-01
621.68	4.1430E-01
622.01	4.1716E-01
622.34	4.1605E-01
622.67	4.1615E-01
623.00	4.1585E-01
623.33	4.1470E-01
623.66	4.1674E-01
623.99	4.1839E-01
624.32	4.1235E-01
624.65	4.1502E-01
624.99	4.1467E-01
625.32	4.1927E-01
625.65	4.1679E-01
625.98	4.1244E-01
626.31	4.1550E-01
626.64	4.1912E-01
626.97	4.1756E-01
627.30	4.1399E-01
627.63	4.1294E-01
627.96	4.1226E-01
628.29	4.1345E-01
628.62	4.1681E-01
628.95	4.1597E-01
629.28	4.1192E-01
629.61	4.2153E-01
629.94	4.1841E-01
630.26	4.2020E-01
630.59	4.2040E-01
630.92	4.1904E-01
631.25	4.1869E-01
631.58	4.2634E-01
631.91	4.2093E-01
632.24	4.2549E-01
632.57	4.2463E-01
632.90	4.2588E-01
633.23	4.2376E-01
633.56	4.2693E-01
633.89	4.2665E-01
634.22	4.2859E-01
634.55	4.2902E-01
634.88	4.3217E-01
635.20	4.3337E-01
635.53	4.3801E-01
635.86	4.3446E-01
636.19	4.4133E-01
636.52	4.4147E-01
636.85	4.4197E-01
637.18	4.4559E-01
637.51	4.4469E-01
637.83	4.4806E-01
638.16	4.4642E-01
638.49	4.5429E-01
638.82	4.4882E-01
639.15	4.5636E-01
639.48	4.5660E-01
639.81	4.6344E-01
640.13	4.5861E-01
640.46	4.6683E-01
640.79	4.6356E-01
641.12	4.6930E-01
641.45	4.6533E-01
641.77	4.6562E-01
642.10	4.7719E-01
642.43	4.7902E-01
642.76	4.8287E-01
643.09	4.7785E-01
643.41	4.8224E-01
643.74	4.8214E-01
644.07	4.8479E-01
644.40	4.8439E-01
644.73	4.9209E-01
645.05	4.9226E-01
645.38	4.9086E-01
645.71	4.9881E-01
646.04	4.9724E-01
646.36	4.9716E-01
646.69	5.0586E-01
647.02	5.0765E-01
647.35	5.0209E-01
647.67	5.1043E-01
648.00	5.0830E-01
648.33	5.1254E-01
648.66	5.1072E-01
648.98	5.1704E-01
649.31	5.1469E-01
649.64	5.1674E-01
649.96	5.2083E-01
650.29	5.2816E-01
650.62	5.2413E-01
650.94	5.2460E-01
651.27	5.2730E-01
651.60	5.2460E-01
651.92	5.3512E-01
652.25	5.3918E-01
652.58	5.3694E-01
652.90	5.3649E-01
653.23	5.3743E-01
653.56	5.4022E-01
653.88	5.4402E-01
654.21	5.4243E-01
654.54	5.4645E-01
654.86	5.5274E-01
655.19	5.4951E-01
655.52	5.5502E-01
655.84	5.4926E-01
656.17	5.5681E-01
656.49	5.5639E-01
656.82	5.5326E-01
657.15	5.6017E-01
657.47	5.6197E-01
657.80	5.6418E-01
658.13	5.6212E-01
658.45	5.6500E-01
658.78	5.6635E-01
659.10	5.7047E-01
659.43	5.6887E-01
659.75	5.7062E-01
660.08	5.6915E-01
660.41	5.8037E-01
660.73	5.7656E-01
661.06	5.7685E-01
661.38	5.8019E-01
661.71	5.8369E-01
662.03	5.8023E-01
662.36	5.8817E-01
662.68	5.8441E-01
663.01	5.7916E-01
663.33	5.8801E-01
663.66	5.9016E-01
663.98	5.8854E-01
664.31	5.8988E-01
664.63	6.0244E-01
664.96	5.8783E-01
665.28	5.9517E-01
665.61	5.9743E-01
665.93	5.9743E-01
666.26	5.9663E-01
666.58	6.0185E-01
666.91	6.0328E-01
667.23	6.0931E-01
667.56	6.0323E-01
667.88	6.0656E-01
668.21	6.1109E-01
668.53	6.0759E-01
668.86	6.1505E-01
669.18	6.1109E-01
669.50	6.1918E-01
669.83	6.1339E-01
670.15	6.1831E-01
670.48	6.1964E-01
670.80	6.1841E-01
671.13	6.1870E-01
671.45	6.2256E-01
671.77	6.2230E-01
672.10	6.1955E-01
672.42	6.3484E-01
672.75	6.2829E-01
673.07	6.3238E-01
673.39	6.2696E-01
673.72	6.3114E-01
674.04	6.3566E-01
674.37	6.3509E-01
674.69	6.3420E-01
675.01	6.3811E-01
675.34	6.4455E-01
675.66	6.4307E-01
675.98	6.3776E-01
676.31	6.4732E-01
676.63	6.4492E-01
676.95	6.4668E-01
677.28	6.5368E-01
677.60	6.5472E-01
677.92	6.4869E-01
678.25	6.5748E-01
678.57	6.5814E-01
678.89	6.5352E-01
679.22	6.6418E-01
679.54	6.6107E-01
679.86	6.6363E-01
680.18	6.6839E-01
680.51	6.6153E-01
680.83	6.7737E-01
681.15	6.6852E-01
681.48	6.7262E-01
681.80	6.7305E-01
682.12	6.6963E-01
682.44	6.8281E-01
682.77	6.8502E-01
683.09	6.8779E-01
683.41	6.8212E-01
683.73	6.9132E-01
684.06	6.8814E-01
684.38	6.9069E-01
684.70	6.9361E-01
685.02	6.9576E-01
685.34	7.0206E-01
685.67	6.9868E-01
685.99	7.1294E-01
686.31	7.0286E-01
686.63	7.1160E-01
686.96	7.1576E-01
687.28	7.1971E-01
687.60	7.0783E-01
687.92	7.1532E-01
688.24	7.2432E-01
688.56	7.3117E-01
688.89	7.2427E-01
689.21	7.3336E-01
689.53	7.2905E-01
689.85	7.3818E-01
690.17	7.3293E-01
690.49	7.4674E-01
690.82	7.4567E-01
691.14	7.4533E-01
691.46	7.4852E-01
691.78	7.5221E-01
692.10	7.4917E-01
692.42	7.5967E-01
692.74	7.6497E-01
693.06	7.6265E-01
693.39	7.7239E-01
693.71	7.7712E-01
694.03	7.7750E-01
694.35	7.8168E-01
694.67	7.8277E-01
694.99	7.9525E-01
695.31	7.8920E-01
695.63	7.9353E-01
695.95	8.0038E-01
696.27	8.0076E-01
696.59	8.0206E-01
696.91	8.1069E-01
697.23	8.1659E-01
697.56	8.1754E-01
697.88	8.1632E-01
698.20	8.2105E-01
698.52	8.2627E-01
698.84	8.3319E-01
699.16	8.3640E-01
699.48	8.3345E-01
699.80	8.4104E-01
700.12	8.5186E-01
700.44	8.5177E-01
700.76	8.5627E-01
701.08	8.6481E-01
701.40	8.6256E-01
701.72	8.6798E-01
702.04	8.7024E-01
702.36	8.7855E-01
702.68	8.8434E-01
703.00	8.8719E-01
703.32	8.9216E-01
703.64	8.9948E-01
703.96	8.8999E-01
704.28	8.9469E-01
704.60	9.0302E-01
704.91	9.1205E-01
705.23	9.1020E-01
705.55	9.2541E-01
705.87	9.2150E-01
706.19	9.2174E-01
706.51	9.2824E-01
706.83	9.3298E-01
707.15	9.5128E-01
707.47	9.4258E-01
707.79	9.5706E-01
708.11	9.5390E-01
708.43	9.6122E-01
708.74	9.6815E-01
709.06	9.7737E-01
709.38	9.7645E-01
709.70	9.7675E-01
710.02	9.8711E-01
710.34	9.8216E-01
710.66	9.9882E-01
710.98	1.0039E00
711.29	1.0076E00
711.61	1.0190E00
711.93	1.0204E00
712.25	1.0159E00
712.57	1.0295E00
712.89	1.0387E00
713.20	1.0373E00
713.52	1.0405E00
713.84	1.0602E00
714.16	1.0510E00
714.48	1.0498E00
714.80	1.0713E00
715.11	1.0695E00
715.43	1.0776E00
715.75	1.0773E00
716.07	1.1054E00
716.39	1.0768E00
716.70	1.0937E00
717.02	1.0872E00
717.34	1.1123E00
717.66	1.1094E00
717.97	1.1128E00
718.29	1.1269E00
718.61	1.1300E00
718.93	1.1465E00
719.24	1.1448E00
719.56	1.1513E00
719.88	1.1650E00
720.20	1.1731E00
720.51	1.1839E00
720.83	1.1766E00
721.15	1.2061E00
721.46	1.1982E00
721.78	1.2104E00
722.10	1.2264E00
722.42	1.2257E00
722.73	1.2382E00
723.05	1.2377E00
723.37	1.2490E00
723.68	1.2772E00
724.00	1.2598E00
724.32	1.2806E00
724.63	1.2671E00
724.95	1.2789E00
725.27	1.2851E00
725.58	1.2902E00
725.90	1.2850E00
726.22	1.3055E00
726.53	1.2974E00
726.85	1.3040E00
727.16	1.3138E00
727.48	1.3172E00
727.80	1.3211E00
728.11	1.3328E00
728.43	1.3192E00
728.74	1.3198E00
729.06	1.3480E00
729.38	1.3457E00
729.69	1.3464E00
730.01	1.3574E00
730.32	1.3691E00
730.64	1.3665E00
730.96	1.3498E00
731.27	1.3854E00
731.59	1.3660E00
731.90	1.3635E00
732.22	1.3753E00
732.53	1.3920E00
732.85	1.4075E00
733.16	1.3946E00
733.48	1.3899E00
733.80	1.3859E00
734.11	1.4128E00
734.43	1.4362E00
734.74	1.4227E00
735.06	1.4363E00
735.37	1.4322E00
735.69	1.4372E00
736.00	1.4447E00
736.32	1.4443E00
736.63	1.4583E00
736.95	1.4672E00
737.26	1.4859E00
737.58	1.4742E00
737.89	1.4807E00
738.21	1.4740E00
738.52	1.4848E00
738.83	1.5059E00
739.15	1.4899E00
739.46	1.5151E00
739.78	1.5036E00
740.09	1.5126E00
740.41	1.5148E00
740.72	1.5135E00
741.04	1.5170E00
741.35	1.5246E00
741.66	1.5440E00
741.98	1.5318E00
742.29	1.5409E00
742.61	1.5525E00
742.92	1.5308E00
743.23	1.5443E00
743.55	1.5569E00
743.86	1.5461E00
744.18	1.5541E00
744.49	1.5419E00
744.80	1.5388E00
745.12	1.5422E00
745.43	1.5615E00
745.74	1.5587E00
746.06	1.5492E00
746.37	1.5486E00
746.68	1.5509E00
747.00	1.5564E00
747.31	1.5539E00
747.62	1.5429E00
747.94	1.5526E00
748.25	1.5513E00
748.56	1.5556E00
748.88	1.5452E00
749.19	1.5595E00
749.50	1.5491E00
749.82	1.5593E00
750.13	1.5550E00
750.44	1.5525E00
750.75	1.5400E00
751.07	1.5505E00
751.38	1.5723E00
751.69	1.5530E00
752.01	1.5753E00
752.32	1.5670E00
752.63	1.5535E00
752.94	1.5583E00
753.26	1.5590E00
753.57	1.5611E00
753.88	1.5760E00
754.19	1.5649E00
754.51	1.5788E00
754.82	1.5670E00
755.13	1.5979E00
755.44	1.5816E00
755.75	1.5900E00
756.07	1.6024E00
756.38	1.6117E00
756.69	1.6046E00
757.00	1.6279E00
757.31	1.6329E00
757.63	1.6338E00
757.94	1.6440E00
758.25	1.6602E00
758.56	1.6315E00
758.87	1.6697E00
759.18	1.6700E00
759.50	1.6650E00
759.81	1.6708E00
760.12	1.6856E00
760.43	1.7002E00
760.74	1.7096E00
761.05	1.7293E00
761.36	1.7220E00
761.67	1.7482E00
761.99	1.7469E00
762.30	1.7292E00
762.61	1.7582E00
762.92	1.7792E00
763.23	1.7929E00
763.54	1.7899E00
763.85	1.8241E00
764.16	1.8301E00
764.47	1.8469E00
764.78	1.8478E00
765.10	1.8670E00
765.41	1.8840E00
765.72	1.8688E00
766.03	1.9233E00
766.34	1.9249E00
766.65	1.9375E00
766.96	1.9731E00
767.27	1.9747E00
767.58	1.9657E00
767.89	1.9852E00
768.20	2.0344E00
768.51	2.0379E00
768.82	2.0346E00
769.13	2.0430E00
769.44	2.0965E00
769.75	2.0913E00
770.06	2.0930E00
770.37	2.1028E00
770.68	2.1325E00
770.99	2.1696E00
771.30	2.1868E00
771.61	2.2325E00
771.92	2.2128E00
772.23	2.2294E00
772.54	2.2585E00
772.85	2.2616E00
773.16	2.2987E00
773.47	2.3385E00
773.78	2.3386E00
774.09	2.3477E00
774.39	2.3690E00
774.70	2.3689E00
775.01	2.4351E00
775.32	2.4453E00
775.63	2.4533E00
775.94	2.4713E00
776.25	2.4617E00
776.56	2.5168E00
776.87	2.5663E00
777.18	2.5615E00
777.48	2.6026E00
777.79	2.6255E00
778.10	2.6502E00
778.41	2.6739E00
778.72	2.6844E00
779.03	2.6794E00
779.34	2.7397E00
779.65	2.7431E00
779.95	2.7505E00
780.26	2.8022E00
780.57	2.7998E00
780.88	2.8104E00
781.19	2.8596E00
781.50	2.8463E00
781.80	2.9037E00
782.11	2.9298E00
782.42	2.9387E00
782.73	2.9498E00
783.04	3.0269E00
783.34	3.0427E00
783.65	3.0792E00
783.96	3.0447E00
784.27	3.0689E00
784.57	3.1149E00
784.88	3.1317E00
785.19	3.1820E00
785.50	3.1828E00
785.81	3.2283E00
786.11	3.1997E00
786.42	3.2727E00
786.73	3.3431E00
787.04	3.3346E00
787.34	3.3424E00
787.65	3.3484E00
787.96	3.4610E00
788.26	3.4904E00
788.57	3.4827E00
788.88	3.4563E00
789.19	3.5100E00
789.49	3.5333E00
789.80	3.6231E00
790.11	3.6463E00
790.41	3.6467E00
790.72	3.7009E00
791.03	3.7061E00
791.33	3.7414E00
791.64	3.7328E00
791.95	3.7627E00
792.25	3.8445E00
792.56	3.9085E00
792.87	3.9110E00
793.17	3.9106E00
793.48	3.8940E00
793.79	3.9964E00
794.09	3.9982E00
794.40	3.9722E00
794.70	3.9700E00
795.01	4.0901E00
795.32	4.0747E00
795.62	4.1536E00
795.93	4.1578E00
796.23	4.1904E00
796.54	4.2186E00
796.85	4.2103E00
797.15	4.2553E00
797.46	4.2917E00
797.76	4.3776E00
798.07	4.4048E00
798.37	4.4235E00
798.68	4.5032E00
798.99	4.5585E00
799.29	4.5441E00
799.60	4.6501E00
799.90	4.6359E00
800.21	4.6568E00
800.51	4.6811E00
800.82	4.7501E00
801.12	4.7872E00
801.43	4.8755E00
801.73	4.8464E00
802.04	4.8492E00
802.34	4.8525E00
802.65	4.9796E00
802.95	5.0831E00
803.26	5.0116E00
803.56	4.9819E00
803.87	5.0668E00
804.17	5.0477E00
804.48	5.2012E00
804.78	5.1459E00
805.09	5.2078E00
805.39	5.2065E00
805.70	5.2922E00
806.00	5.2913E00
806.30	5.2814E00
806.61	5.3939E00
806.91	5.4079E00
807.22	5.4195E00
807.52	5.5862E00
807.83	5.4912E00
808.13	5.5320E00
808.43	5.5417E00
808.74	5.6259E00
809.04	5.6920E00
809.35	5.6309E00
809.65	5.8018E00
809.95	5.9003E00
810.26	5.9306E00
810.56	5.8393E00
810.86	5.9988E00
811.17	6.0536E00
811.47	6.1055E00
811.77	5.9997E00
812.08	6.1501E00
812.38	6.2097E00
812.69	6.1131E00
812.99	6.2036E00
813.29	6.2020E00
813.59	6.3201E00
813.90	6.3834E00
814.20	6.4206E00
814.50	6.5556E00
814.81	6.4596E00
815.11	6.6060E00
815.41	6.8090E00
815.72	6.6950E00
816.02	6.7116E00
816.32	6.7706E00
816.62	6.6814E00
816.93	6.7996E00
817.23	6.9334E00
817.53	6.8340E00
817.84	7.1031E00
818.14	7.0223E00
818.44	6.9994E00
818.74	7.0520E00
819.04	7.3812E00
819.35	7.3120E00
819.65	7.2208E00
819.95	7.5447E00
820.25	7.5404E00
820.56	7.4992E00
820.86	7.4932E00
821.16	7.6443E00
821.46	7.6345E00
821.76	7.4593E00
822.07	7.5528E00
822.37	7.8376E00
822.67	7.8403E00
822.97	8.0261E00
823.27	8.0314E00
823.57	7.9420E00
823.88	8.0248E00
824.18	8.1201E00
824.48	7.9648E00
824.78	8.2606E00
825.08	8.2888E00
825.38	8.2330E00
825.69	8.2574E00
825.99	8.3883E00
826.29	8.2826E00
826.59	8.5495E00
826.89	8.6814E00
827.19	8.5341E00
827.49	8.8542E00
827.79	8.7287E00
828.09	8.8987E00
828.39	8.9486E00
828.70	8.7546E00
829.00	9.0099E00
829.30	9.1727E00
829.60	9.0524E00
829.90	9.2957E00
830.20	9.3144E00
830.50	9.3777E00
830.80	9.4199E00
831.10	9.5445E00
831.40	9.5266E00
831.70	9.5448E00
832.00	9.3784E00
832.30	9.8700E00
832.60	9.5758E00
832.90	9.9201E00
833.20	9.9420E00
833.50	9.8708E00
833.80	9.9954E00
834.10	1.0271E01
834.40	1.0049E01
834.70	1.0123E01
835.00	1.0424E01
835.30	1.0416E01
835.60	1.0509E01
835.90	1.0555E01
836.20	1.0611E01
836.50	1.0678E01
836.80	1.0818E01
837.10	1.0663E01
837.40	1.0525E01
837.70	1.1107E01
838.00	1.1107E01
838.30	1.1239E01
838.60	1.1219E01
838.90	1.1059E01
839.19	1.1265E01
839.49	1.1626E01
839.79	1.1438E01
840.09	1.1516E01
840.39	1.1482E01
840.69	1.1537E01
840.99	1.2090E01
841.29	1.1575E01
841.59	1.1934E01
841.88	1.2242E01
842.18	1.1975E01
842.48	1.2229E01
842.78	1.2328E01
843.08	1.2677E01
843.38	1.2663E01
843.68	1.2982E01
843.97	1.2737E01
844.27	1.2753E01
844.57	1.2664E01
844.87	1.2924E01
845.17	1.3083E01
845.47	1.3197E01
845.76	1.3201E01
846.06	1.3450E01
846.36	1.3518E01
846.66	1.3313E01
846.96	1.3355E01
847.25	1.3833E01
847.55	1.3851E01
847.85	1.4165E01
848.15	1.4005E01
848.44	1.3999E01
848.74	1.4437E01
849.04	1.4616E01
849.34	1.4735E01
849.63	1.4465E01
849.93	1.4827E01
850.23	1.5075E01
850.53	1.5044E01
850.82	1.5099E01
851.12	1.5551E01
851.42	1.5347E01
851.71	1.5123E01
852.01	1.5744E01
852.31	1.5756E01
852.61	1.5661E01
852.90	1.6026E01
853.20	1.6188E01
853.50	1.6048E01
853.79	1.6767E01
854.09	1.6304E01
854.39	1.6679E01
854.68	1.6976E01
854.98	1.6862E01
855.28	1.6768E01
855.57	1.7343E01
855.87	1.7456E01
856.17	1.7459E01
856.46	1.7855E01
856.76	1.7777E01
857.05	1.7856E01
857.35	1.7847E01
857.65	1.8050E01
857.94	1.8145E01
858.24	1.7876E01
858.53	1.8667E01
858.83	1.9351E01
859.13	1.9149E01
859.42	1.8962E01
859.72	1.9287E01
860.01	1.9508E01
860.31	1.9714E01
860.60	2.0037E01
860.90	1.9415E01
861.20	2.0528E01
861.49	2.0051E01
861.79	2.0382E01
862.08	2.0580E01
862.38	2.0886E01
862.67	2.1980E01
862.97	2.0834E01
863.26	2.1025E01
863.56	2.1835E01
863.85	2.1783E01
864.15	2.2263E01
864.44	2.1328E01
864.74	2.2257E01
865.03	2.3203E01
865.33	2.2609E01
865.62	2.3584E01
865.92	2.3255E01
866.21	2.4052E01
866.51	2.4104E01
866.80	2.3736E01
867.10	2.4116E01
867.39	2.4749E01
867.69	2.4955E01
867.98	2.4722E01
868.27	2.5861E01
868.57	2.4867E01
868.86	2.6107E01
869.16	2.5777E01
869.45	2.6465E01
869.75	2.6738E01
870.04	2.6267E01
870.33	2.7362E01
870.63	2.7385E01
870.92	2.6584E01
871.22	2.7878E01
871.51	2.8753E01
871.80	2.8342E01
872.10	2.8342E01
>>>>>End Processed Spectral Data<<<<<
