SpectraSuite Data File
++++++++++++++++++++++++++++++++++++
Date: Sat May 16 09:00:06 PDT 2015
User: schluterlab
Dark Spectrum Present: Yes
Reference Spectrum Present: No
Number of Sampled Component Spectra: 1
Spectrometers: USB2E3373
Integration Time (usec): 2300000 (USB2E3373)
Spectra Averaged: 3 (USB2E3373)
Boxcar Smoothing: 0 (USB2E3373)
Correct for Electrical Dark: No (USB2E3373)
Strobe/Lamp Enabled: No (USB2E3373)
Correct for Detector Non-linearity: No (USB2E3373)
Correct for Stray Light: No (USB2E3373)
Number of Pixels in Processed Spectrum: 2048
>>>>>Begin Processed Spectral Data<<<<<
178.53	0.0000E00
178.91	0.0000E00
179.29	0.0000E00
179.67	0.0000E00
180.04	0.0000E00
180.42	0.0000E00
180.80	0.0000E00
181.18	0.0000E00
181.56	0.0000E00
181.94	0.0000E00
182.31	0.0000E00
182.69	0.0000E00
183.07	0.0000E00
183.45	0.0000E00
183.83	0.0000E00
184.20	0.0000E00
184.58	0.0000E00
184.96	0.0000E00
185.34	0.0000E00
185.72	0.0000E00
186.09	0.0000E00
186.47	0.0000E00
186.85	0.0000E00
187.23	0.0000E00
187.61	0.0000E00
187.98	0.0000E00
188.36	0.0000E00
188.74	0.0000E00
189.12	0.0000E00
189.49	0.0000E00
189.87	0.0000E00
190.25	0.0000E00
190.63	0.0000E00
191.00	0.0000E00
191.38	0.0000E00
191.76	0.0000E00
192.14	0.0000E00
192.51	0.0000E00
192.89	0.0000E00
193.27	0.0000E00
193.65	0.0000E00
194.02	0.0000E00
194.40	0.0000E00
194.78	0.0000E00
195.15	0.0000E00
195.53	0.0000E00
195.91	0.0000E00
196.29	0.0000E00
196.66	0.0000E00
197.04	0.0000E00
197.42	0.0000E00
197.79	0.0000E00
198.17	0.0000E00
198.55	0.0000E00
198.92	0.0000E00
199.30	0.0000E00
199.68	0.0000E00
200.05	0.0000E00
200.43	0.0000E00
200.81	0.0000E00
201.18	0.0000E00
201.56	0.0000E00
201.94	0.0000E00
202.31	0.0000E00
202.69	0.0000E00
203.07	0.0000E00
203.44	0.0000E00
203.82	0.0000E00
204.19	0.0000E00
204.57	0.0000E00
204.95	0.0000E00
205.32	0.0000E00
205.70	0.0000E00
206.08	0.0000E00
206.45	0.0000E00
206.83	0.0000E00
207.20	0.0000E00
207.58	0.0000E00
207.96	0.0000E00
208.33	0.0000E00
208.71	0.0000E00
209.08	0.0000E00
209.46	0.0000E00
209.84	0.0000E00
210.21	0.0000E00
210.59	0.0000E00
210.96	0.0000E00
211.34	0.0000E00
211.71	0.0000E00
212.09	0.0000E00
212.46	0.0000E00
212.84	0.0000E00
213.22	-0.0000E00
213.59	0.0000E00
213.97	0.0000E00
214.34	0.0000E00
214.72	0.0000E00
215.09	0.0000E00
215.47	0.0000E00
215.84	0.0000E00
216.22	0.0000E00
216.59	0.0000E00
216.97	0.0000E00
217.34	0.0000E00
217.72	0.0000E00
218.09	0.0000E00
218.47	0.0000E00
218.84	-0.0000E00
219.22	0.0000E00
219.59	0.0000E00
219.97	0.0000E00
220.34	0.0000E00
220.72	0.0000E00
221.09	0.0000E00
221.47	0.0000E00
221.84	0.0000E00
222.22	0.0000E00
222.59	0.0000E00
222.97	0.0000E00
223.34	0.0000E00
223.72	0.0000E00
224.09	0.0000E00
224.46	0.0000E00
224.84	0.0000E00
225.21	0.0000E00
225.59	0.0000E00
225.96	0.0000E00
226.34	0.0000E00
226.71	0.0000E00
227.08	0.0000E00
227.46	0.0000E00
227.83	0.0000E00
228.21	0.0000E00
228.58	0.0000E00
228.95	0.0000E00
229.33	0.0000E00
229.70	0.0000E00
230.08	0.0000E00
230.45	0.0000E00
230.82	0.0000E00
231.20	0.0000E00
231.57	0.0000E00
231.95	0.0000E00
232.32	0.0000E00
232.69	0.0000E00
233.07	0.0000E00
233.44	0.0000E00
233.81	0.0000E00
234.19	0.0000E00
234.56	0.0000E00
234.93	0.0000E00
235.31	0.0000E00
235.68	0.0000E00
236.05	0.0000E00
236.43	0.0000E00
236.80	0.0000E00
237.17	0.0000E00
237.55	0.0000E00
237.92	0.0000E00
238.29	0.0000E00
238.67	0.0000E00
239.04	0.0000E00
239.41	0.0000E00
239.79	0.0000E00
240.16	0.0000E00
240.53	0.0000E00
240.91	0.0000E00
241.28	0.0000E00
241.65	0.0000E00
242.02	0.0000E00
242.40	0.0000E00
242.77	0.0000E00
243.14	0.0000E00
243.51	0.0000E00
243.89	0.0000E00
244.26	0.0000E00
244.63	0.0000E00
245.00	0.0000E00
245.38	0.0000E00
245.75	0.0000E00
246.12	0.0000E00
246.49	0.0000E00
246.87	0.0000E00
247.24	0.0000E00
247.61	0.0000E00
247.98	0.0000E00
248.36	0.0000E00
248.73	0.0000E00
249.10	0.0000E00
249.47	0.0000E00
249.84	0.0000E00
250.22	0.0000E00
250.59	0.0000E00
250.96	0.0000E00
251.33	0.0000E00
251.70	0.0000E00
252.08	0.0000E00
252.45	0.0000E00
252.82	0.0000E00
253.19	0.0000E00
253.56	0.0000E00
253.94	0.0000E00
254.31	0.0000E00
254.68	0.0000E00
255.05	0.0000E00
255.42	0.0000E00
255.79	0.0000E00
256.16	0.0000E00
256.54	0.0000E00
256.91	0.0000E00
257.28	0.0000E00
257.65	0.0000E00
258.02	0.0000E00
258.39	0.0000E00
258.76	0.0000E00
259.14	0.0000E00
259.51	0.0000E00
259.88	0.0000E00
260.25	0.0000E00
260.62	0.0000E00
260.99	0.0000E00
261.36	0.0000E00
261.73	0.0000E00
262.10	0.0000E00
262.47	0.0000E00
262.85	0.0000E00
263.22	0.0000E00
263.59	0.0000E00
263.96	0.0000E00
264.33	0.0000E00
264.70	0.0000E00
265.07	0.0000E00
265.44	0.0000E00
265.81	0.0000E00
266.18	0.0000E00
266.55	0.0000E00
266.92	0.0000E00
267.29	0.0000E00
267.66	0.0000E00
268.03	0.0000E00
268.40	0.0000E00
268.77	0.0000E00
269.14	0.0000E00
269.51	0.0000E00
269.88	0.0000E00
270.25	0.0000E00
270.62	0.0000E00
270.99	0.0000E00
271.36	0.0000E00
271.73	0.0000E00
272.10	0.0000E00
272.47	0.0000E00
272.84	0.0000E00
273.21	0.0000E00
273.58	0.0000E00
273.95	0.0000E00
274.32	0.0000E00
274.69	0.0000E00
275.06	0.0000E00
275.43	0.0000E00
275.80	0.0000E00
276.17	0.0000E00
276.54	0.0000E00
276.91	0.0000E00
277.28	0.0000E00
277.65	0.0000E00
278.02	0.0000E00
278.39	0.0000E00
278.76	0.0000E00
279.13	0.0000E00
279.50	0.0000E00
279.87	0.0000E00
280.23	0.0000E00
280.60	0.0000E00
280.97	0.0000E00
281.34	0.0000E00
281.71	0.0000E00
282.08	0.0000E00
282.45	0.0000E00
282.82	0.0000E00
283.19	0.0000E00
283.56	0.0000E00
283.92	0.0000E00
284.29	0.0000E00
284.66	0.0000E00
285.03	0.0000E00
285.40	0.0000E00
285.77	0.0000E00
286.14	0.0000E00
286.51	0.0000E00
286.87	0.0000E00
287.24	0.0000E00
287.61	0.0000E00
287.98	0.0000E00
288.35	0.0000E00
288.72	0.0000E00
289.08	0.0000E00
289.45	0.0000E00
289.82	0.0000E00
290.19	0.0000E00
290.56	0.0000E00
290.93	0.0000E00
291.29	0.0000E00
291.66	0.0000E00
292.03	0.0000E00
292.40	0.0000E00
292.77	0.0000E00
293.13	0.0000E00
293.50	0.0000E00
293.87	0.0000E00
294.24	0.0000E00
294.60	0.0000E00
294.97	0.0000E00
295.34	0.0000E00
295.71	0.0000E00
296.08	0.0000E00
296.44	0.0000E00
296.81	0.0000E00
297.18	0.0000E00
297.55	0.0000E00
297.91	0.0000E00
298.28	0.0000E00
298.65	0.0000E00
299.02	0.0000E00
299.38	0.0000E00
299.75	0.0000E00
300.12	3.3310E00
300.48	6.5906E-01
300.85	1.0713E00
301.22	9.7792E-01
301.59	1.0038E00
301.95	1.4325E00
302.32	1.8059E00
302.69	6.1816E-01
303.05	6.4761E-01
303.42	1.1468E00
303.79	9.6663E-01
304.15	1.8497E00
304.52	1.6445E00
304.89	1.8191E00
305.25	1.1790E00
305.62	1.2101E00
305.99	4.2901E00
306.35	1.2717E00
306.72	1.7598E00
307.09	1.4513E00
307.45	1.2905E00
307.82	1.4561E00
308.19	1.3322E00
308.55	1.5032E00
308.92	2.9901E00
309.29	2.0483E00
309.65	1.2135E00
310.02	1.2591E00
310.38	9.0927E-01
310.75	2.7344E00
311.12	8.8862E-01
311.48	1.6496E00
311.85	1.2728E00
312.22	7.5409E-01
312.58	9.5220E-01
312.95	1.4559E00
313.31	1.4638E00
313.68	1.1272E00
314.05	1.4191E00
314.41	2.0136E00
314.78	9.5641E-01
315.14	1.1559E00
315.51	2.3282E00
315.87	1.1727E00
316.24	1.1829E00
316.61	2.1018E00
316.97	1.8010E00
317.34	1.3456E00
317.70	2.4418E00
318.07	1.8450E00
318.43	1.4334E00
318.80	2.2110E00
319.16	1.8946E00
319.53	2.5489E00
319.89	1.4275E00
320.26	1.2152E00
320.62	2.8003E00
320.99	1.0411E00
321.35	1.6631E00
321.72	1.3393E00
322.08	1.5601E00
322.45	1.0765E00
322.81	2.9432E00
323.18	1.8076E00
323.54	1.2673E00
323.91	1.3177E00
324.27	1.0106E00
324.64	1.9439E00
325.00	1.6562E00
325.37	1.0568E00
325.73	1.6762E00
326.10	1.5097E00
326.46	1.3763E00
326.83	3.1600E00
327.19	2.3401E00
327.56	1.4390E00
327.92	1.9495E00
328.29	1.9536E00
328.65	1.5020E00
329.01	1.5051E00
329.38	1.6761E00
329.74	1.6780E00
330.11	1.1331E00
330.47	1.7438E00
330.84	2.2681E00
331.20	2.6688E00
331.56	1.9706E00
331.93	1.8087E00
332.29	2.5093E00
332.66	1.0016E00
333.02	2.1405E00
333.38	1.2832E00
333.75	1.3991E00
334.11	1.7191E00
334.48	1.3934E00
334.84	1.5355E00
335.20	1.5306E00
335.57	1.6402E00
335.93	4.0170E00
336.29	3.3962E00
336.66	1.4708E00
337.02	2.7550E00
337.38	1.1294E00
337.75	1.3355E00
338.11	1.5729E00
338.47	1.1608E00
338.84	1.3002E00
339.20	1.3039E00
339.56	1.4340E00
339.93	1.3517E00
340.29	1.7232E00
340.65	1.1563E00
341.02	2.1585E00
341.38	1.6289E00
341.74	2.2972E00
342.11	1.5952E00
342.47	1.2963E00
342.83	1.7432E00
343.20	1.2493E00
343.56	1.1402E00
343.92	1.6120E00
344.28	1.4367E00
344.65	1.9723E00
345.01	1.2444E00
345.37	2.0957E00
345.73	1.3728E00
346.10	1.1137E00
346.46	1.3603E00
346.82	1.5831E00
347.19	1.6459E00
347.55	1.3986E00
347.91	1.4103E00
348.27	1.5432E00
348.63	1.7567E00
349.00	1.1436E00
349.36	1.0846E00
349.72	1.2104E00
350.08	1.8676E00
350.45	1.4839E00
350.81	1.5308E00
351.17	1.0741E00
351.53	1.3952E00
351.89	1.5107E00
352.26	1.2530E00
352.62	1.4135E00
352.98	1.1626E00
353.34	1.0242E00
353.70	1.3017E00
354.07	1.0896E00
354.43	1.0924E00
354.79	1.2093E00
355.15	9.2810E-01
355.51	1.3870E00
355.87	1.3022E00
356.24	9.6994E-01
356.60	1.3732E00
356.96	1.1890E00
357.32	1.2192E00
357.68	1.1565E00
358.04	1.1631E00
358.40	1.0694E00
358.77	1.2495E00
359.13	1.1628E00
359.49	1.4725E00
359.85	1.3855E00
360.21	1.0375E00
360.57	1.0131E00
360.93	1.1104E00
361.29	1.0835E00
361.66	1.2367E00
362.02	9.9170E-01
362.38	1.1173E00
362.74	1.0605E00
363.10	1.1804E00
363.46	1.2148E00
363.82	1.2722E00
364.18	1.1094E00
364.54	1.1583E00
364.90	9.3511E-01
365.26	9.8313E-01
365.62	1.0960E00
365.98	1.0337E00
366.35	1.0317E00
366.71	8.3417E-01
367.07	1.3919E00
367.43	1.2154E00
367.79	1.0537E00
368.15	1.0263E00
368.51	1.1529E00
368.87	1.0638E00
369.23	1.2492E00
369.59	9.8819E-01
369.95	1.3993E00
370.31	1.1108E00
370.67	1.1650E00
371.03	1.0061E00
371.39	9.8373E-01
371.75	1.2502E00
372.11	1.1102E00
372.47	9.6998E-01
372.83	1.1195E00
373.19	1.1698E00
373.55	1.0522E00
373.91	1.1642E00
374.27	8.9440E-01
374.63	1.0254E00
374.99	9.6395E-01
375.35	1.0659E00
375.71	1.0421E00
376.07	9.7169E-01
376.42	1.0723E00
376.78	9.8868E-01
377.14	9.3578E-01
377.50	1.0580E00
377.86	9.8815E-01
378.22	1.1573E00
378.58	9.2810E-01
378.94	1.0238E00
379.30	8.3804E-01
379.66	9.3833E-01
380.02	1.0234E00
380.38	8.7418E-01
380.74	9.6448E-01
381.09	9.6448E-01
381.45	8.9275E-01
381.81	9.0151E-01
382.17	8.8877E-01
382.53	8.4223E-01
382.89	7.9874E-01
383.25	9.2944E-01
383.61	9.2481E-01
383.97	9.7693E-01
384.32	9.8628E-01
384.68	9.2357E-01
385.04	9.0645E-01
385.40	9.2159E-01
385.76	7.3705E-01
386.12	9.1403E-01
386.48	8.1608E-01
386.83	8.9998E-01
387.19	8.7298E-01
387.55	9.4909E-01
387.91	9.1973E-01
388.27	8.3478E-01
388.62	8.3636E-01
388.98	8.5557E-01
389.34	8.8381E-01
389.70	8.6598E-01
390.06	8.5803E-01
390.42	8.4157E-01
390.77	8.2072E-01
391.13	8.7690E-01
391.49	8.4923E-01
391.85	9.2505E-01
392.20	8.4505E-01
392.56	8.7817E-01
392.92	8.3830E-01
393.28	8.3700E-01
393.64	8.6198E-01
393.99	8.8378E-01
394.35	8.1501E-01
394.71	9.2405E-01
395.07	8.5957E-01
395.42	8.2383E-01
395.78	8.1470E-01
396.14	8.2191E-01
396.50	7.7035E-01
396.85	8.9240E-01
397.21	9.2482E-01
397.57	8.3470E-01
397.92	8.5355E-01
398.28	7.6575E-01
398.64	8.1422E-01
399.00	7.7843E-01
399.35	7.6864E-01
399.71	8.1717E-01
400.07	8.0967E-01
400.42	8.1357E-01
400.78	7.8313E-01
401.14	7.7767E-01
401.49	7.8388E-01
401.85	7.8421E-01
402.21	7.1145E-01
402.57	7.4401E-01
402.92	8.0146E-01
403.28	7.9880E-01
403.63	7.8326E-01
403.99	8.0996E-01
404.35	7.4868E-01
404.70	7.5523E-01
405.06	7.4299E-01
405.42	7.9748E-01
405.77	7.2854E-01
406.13	7.0794E-01
406.49	6.7935E-01
406.84	6.9984E-01
407.20	7.4577E-01
407.55	7.6874E-01
407.91	7.7859E-01
408.27	7.0878E-01
408.62	6.9372E-01
408.98	7.2380E-01
409.34	7.1037E-01
409.69	7.4842E-01
410.05	6.9891E-01
410.40	7.0521E-01
410.76	6.7921E-01
411.11	7.0501E-01
411.47	7.2250E-01
411.83	6.8752E-01
412.18	6.8617E-01
412.54	6.8215E-01
412.89	6.9951E-01
413.25	6.5181E-01
413.60	6.7331E-01
413.96	7.1630E-01
414.31	6.7587E-01
414.67	7.0434E-01
415.03	7.1296E-01
415.38	7.4233E-01
415.74	7.1152E-01
416.09	7.0400E-01
416.45	7.2733E-01
416.80	6.9889E-01
417.16	6.9811E-01
417.51	6.9009E-01
417.87	7.1005E-01
418.22	6.6479E-01
418.58	6.8619E-01
418.93	6.4361E-01
419.29	6.8026E-01
419.64	6.4850E-01
420.00	6.6797E-01
420.35	6.6022E-01
420.71	6.3616E-01
421.06	6.6058E-01
421.42	6.9417E-01
421.77	6.5292E-01
422.12	6.6666E-01
422.48	6.4283E-01
422.83	6.7211E-01
423.19	6.3622E-01
423.54	6.5994E-01
423.90	6.4280E-01
424.25	6.3127E-01
424.61	6.6148E-01
424.96	6.3119E-01
425.31	6.1164E-01
425.67	6.0637E-01
426.02	6.1909E-01
426.38	6.1875E-01
426.73	6.1001E-01
427.09	6.1981E-01
427.44	5.8932E-01
427.79	6.0468E-01
428.15	6.0833E-01
428.50	6.1627E-01
428.85	6.3348E-01
429.21	5.7327E-01
429.56	5.8245E-01
429.92	5.7556E-01
430.27	5.9217E-01
430.62	6.1001E-01
430.98	6.1675E-01
431.33	5.9893E-01
431.68	5.8589E-01
432.04	5.7863E-01
432.39	5.7843E-01
432.74	6.0264E-01
433.10	5.5712E-01
433.45	5.9644E-01
433.80	5.8521E-01
434.16	5.7882E-01
434.51	5.7240E-01
434.86	5.9062E-01
435.22	5.6348E-01
435.57	6.1458E-01
435.92	5.9041E-01
436.28	5.5542E-01
436.63	5.6143E-01
436.98	5.6476E-01
437.34	5.8688E-01
437.69	5.6410E-01
438.04	5.4450E-01
438.39	5.8482E-01
438.75	5.6911E-01
439.10	5.5378E-01
439.45	5.8064E-01
439.81	5.8234E-01
440.16	5.4850E-01
440.51	5.6097E-01
440.86	5.8870E-01
441.22	5.6420E-01
441.57	5.4334E-01
441.92	5.4292E-01
442.27	5.5971E-01
442.63	5.5133E-01
442.98	5.8097E-01
443.33	5.7123E-01
443.68	5.3592E-01
444.03	5.2797E-01
444.39	5.2176E-01
444.74	5.6598E-01
445.09	5.7008E-01
445.44	5.6063E-01
445.79	5.1186E-01
446.15	5.4585E-01
446.50	5.5185E-01
446.85	5.1983E-01
447.20	5.1771E-01
447.55	5.4420E-01
447.91	5.3986E-01
448.26	5.5009E-01
448.61	5.3762E-01
448.96	5.1982E-01
449.31	5.3063E-01
449.66	5.3818E-01
450.02	5.3415E-01
450.37	5.3623E-01
450.72	5.2379E-01
451.07	5.6582E-01
451.42	5.6941E-01
451.77	5.3879E-01
452.12	5.2957E-01
452.47	5.6419E-01
452.83	5.2322E-01
453.18	5.3847E-01
453.53	5.3341E-01
453.88	4.9712E-01
454.23	5.0759E-01
454.58	5.0264E-01
454.93	5.1559E-01
455.28	5.1546E-01
455.63	5.0552E-01
455.98	4.9859E-01
456.34	5.2473E-01
456.69	5.1480E-01
457.04	5.1553E-01
457.39	4.8695E-01
457.74	4.9251E-01
458.09	4.9290E-01
458.44	4.8600E-01
458.79	4.7476E-01
459.14	4.7774E-01
459.49	5.0354E-01
459.84	4.8309E-01
460.19	5.0807E-01
460.54	5.1930E-01
460.89	4.7137E-01
461.24	5.0802E-01
461.59	4.9068E-01
461.94	5.0230E-01
462.29	4.6231E-01
462.64	4.9530E-01
462.99	5.0259E-01
463.34	5.2234E-01
463.69	4.8094E-01
464.04	4.6149E-01
464.39	4.6739E-01
464.74	4.8479E-01
465.09	4.9915E-01
465.44	4.6430E-01
465.79	4.7986E-01
466.14	4.7819E-01
466.49	4.7418E-01
466.84	4.7270E-01
467.19	4.7777E-01
467.54	4.7640E-01
467.89	4.6430E-01
468.24	4.4432E-01
468.59	4.5223E-01
468.94	4.5222E-01
469.29	4.4983E-01
469.64	4.6100E-01
469.99	4.5288E-01
470.34	4.3256E-01
470.68	4.6631E-01
471.03	4.4252E-01
471.38	4.3814E-01
471.73	4.2782E-01
472.08	4.2090E-01
472.43	4.0748E-01
472.78	4.3229E-01
473.13	4.2895E-01
473.48	4.1819E-01
473.83	4.0735E-01
474.17	4.2386E-01
474.52	4.1074E-01
474.87	3.9661E-01
475.22	4.0334E-01
475.57	3.8230E-01
475.92	3.6853E-01
476.27	3.9131E-01
476.61	3.7545E-01
476.96	3.7041E-01
477.31	3.4945E-01
477.66	3.6149E-01
478.01	3.5452E-01
478.36	3.5463E-01
478.70	3.4735E-01
479.05	3.4968E-01
479.40	3.4164E-01
479.75	3.4267E-01
480.10	3.3445E-01
480.45	3.2983E-01
480.79	3.2763E-01
481.14	3.3349E-01
481.49	3.2810E-01
481.84	3.1853E-01
482.19	3.1186E-01
482.53	3.1764E-01
482.88	3.1192E-01
483.23	3.0789E-01
483.58	3.0383E-01
483.92	3.1103E-01
484.27	2.9842E-01
484.62	2.9868E-01
484.97	2.9266E-01
485.31	2.8898E-01
485.66	2.9381E-01
486.01	2.9470E-01
486.36	2.8445E-01
486.70	2.8917E-01
487.05	2.8815E-01
487.40	2.8474E-01
487.75	2.7977E-01
488.09	2.7916E-01
488.44	2.8284E-01
488.79	2.8066E-01
489.13	2.7653E-01
489.48	2.7660E-01
489.83	2.7948E-01
490.17	2.7103E-01
490.52	2.7031E-01
490.87	2.7119E-01
491.22	2.7477E-01
491.56	2.7376E-01
491.91	2.7591E-01
492.26	2.7367E-01
492.60	2.7277E-01
492.95	2.7476E-01
493.30	2.7409E-01
493.64	2.7054E-01
493.99	2.7545E-01
494.34	2.7116E-01
494.68	2.6717E-01
495.03	2.7238E-01
495.37	2.6853E-01
495.72	2.7298E-01
496.07	2.6624E-01
496.41	2.6961E-01
496.76	2.6939E-01
497.11	2.7037E-01
497.45	2.6998E-01
497.80	2.7092E-01
498.14	2.6762E-01
498.49	2.7207E-01
498.84	2.6964E-01
499.18	2.7055E-01
499.53	2.6973E-01
499.87	2.6546E-01
500.22	2.7271E-01
500.56	2.6952E-01
500.91	2.7053E-01
501.26	2.6805E-01
501.60	2.6991E-01
501.95	2.6751E-01
502.29	2.6910E-01
502.64	2.6710E-01
502.98	2.7139E-01
503.33	2.6663E-01
503.67	2.6984E-01
504.02	2.6819E-01
504.36	2.6703E-01
504.71	2.6885E-01
505.06	2.6672E-01
505.40	2.6525E-01
505.75	2.6615E-01
506.09	2.6592E-01
506.44	2.6529E-01
506.78	2.6713E-01
507.13	2.6775E-01
507.47	2.6494E-01
507.82	2.6473E-01
508.16	2.6500E-01
508.51	2.6417E-01
508.85	2.6116E-01
509.19	2.6188E-01
509.54	2.6404E-01
509.88	2.6350E-01
510.23	2.5888E-01
510.57	2.5971E-01
510.92	2.6159E-01
511.26	2.6115E-01
511.61	2.6164E-01
511.95	2.5917E-01
512.30	2.5895E-01
512.64	2.5977E-01
512.98	2.5879E-01
513.33	2.5987E-01
513.67	2.5775E-01
514.02	2.5909E-01
514.36	2.5586E-01
514.70	2.5672E-01
515.05	2.5552E-01
515.39	2.5621E-01
515.74	2.5671E-01
516.08	2.5777E-01
516.42	2.5418E-01
516.77	2.5604E-01
517.11	2.5397E-01
517.46	2.5484E-01
517.80	2.5425E-01
518.14	2.5337E-01
518.49	2.5295E-01
518.83	2.5224E-01
519.17	2.5571E-01
519.52	2.5341E-01
519.86	2.5409E-01
520.20	2.5159E-01
520.55	2.5308E-01
520.89	2.5175E-01
521.23	2.5306E-01
521.58	2.5427E-01
521.92	2.5312E-01
522.26	2.5684E-01
522.61	2.5233E-01
522.95	2.5414E-01
523.29	2.5113E-01
523.64	2.5246E-01
523.98	2.5438E-01
524.32	2.5431E-01
524.66	2.5463E-01
525.01	2.5487E-01
525.35	2.5638E-01
525.69	2.5621E-01
526.04	2.5794E-01
526.38	2.5223E-01
526.72	2.5854E-01
527.06	2.5581E-01
527.41	2.5908E-01
527.75	2.5967E-01
528.09	2.5709E-01
528.43	2.6122E-01
528.78	2.5948E-01
529.12	2.6381E-01
529.46	2.6206E-01
529.80	2.6292E-01
530.15	2.6288E-01
530.49	2.6401E-01
530.83	2.6635E-01
531.17	2.6557E-01
531.51	2.6773E-01
531.86	2.6554E-01
532.20	2.6909E-01
532.54	2.6837E-01
532.88	2.7025E-01
533.22	2.7270E-01
533.57	2.7615E-01
533.91	2.7171E-01
534.25	2.7349E-01
534.59	2.7383E-01
534.93	2.7334E-01
535.27	2.7383E-01
535.62	2.7907E-01
535.96	2.7804E-01
536.30	2.7739E-01
536.64	2.7909E-01
536.98	2.8307E-01
537.32	2.8001E-01
537.66	2.8295E-01
538.01	2.8224E-01
538.35	2.8578E-01
538.69	2.8445E-01
539.03	2.8859E-01
539.37	2.8684E-01
539.71	2.8856E-01
540.05	2.8741E-01
540.39	2.8777E-01
540.73	2.8901E-01
541.07	2.8833E-01
541.42	2.8826E-01
541.76	2.8988E-01
542.10	2.9210E-01
542.44	2.9217E-01
542.78	2.9507E-01
543.12	2.8984E-01
543.46	2.9595E-01
543.80	2.9141E-01
544.14	2.9339E-01
544.48	2.9158E-01
544.82	2.9611E-01
545.16	2.9529E-01
545.50	2.9481E-01
545.84	2.9951E-01
546.18	2.9608E-01
546.52	2.9716E-01
546.86	2.9609E-01
547.20	3.0156E-01
547.54	3.0360E-01
547.88	2.9890E-01
548.22	2.9963E-01
548.56	3.0246E-01
548.90	3.0256E-01
549.24	3.0259E-01
549.58	3.0344E-01
549.92	3.0352E-01
550.26	3.0478E-01
550.60	3.0392E-01
550.94	3.0238E-01
551.28	3.0700E-01
551.62	3.0347E-01
551.96	3.0547E-01
552.30	3.0723E-01
552.64	3.0697E-01
552.98	3.0720E-01
553.32	3.0765E-01
553.66	3.0778E-01
554.00	3.0432E-01
554.34	3.0680E-01
554.68	3.0664E-01
555.02	3.0575E-01
555.36	3.0951E-01
555.69	3.1076E-01
556.03	3.0660E-01
556.37	3.0940E-01
556.71	3.0705E-01
557.05	3.0716E-01
557.39	3.0941E-01
557.73	3.0718E-01
558.07	3.0964E-01
558.41	3.0931E-01
558.75	3.1054E-01
559.08	3.0909E-01
559.42	3.0797E-01
559.76	3.1029E-01
560.10	3.1091E-01
560.44	3.1138E-01
560.78	3.0763E-01
561.12	3.1216E-01
561.45	3.1239E-01
561.79	3.1042E-01
562.13	3.0990E-01
562.47	3.1045E-01
562.81	3.1204E-01
563.15	3.1270E-01
563.48	3.1281E-01
563.82	3.0904E-01
564.16	3.1172E-01
564.50	3.1444E-01
564.84	3.1051E-01
565.17	3.1134E-01
565.51	3.0972E-01
565.85	3.1381E-01
566.19	3.1008E-01
566.52	3.1399E-01
566.86	3.1166E-01
567.20	3.1592E-01
567.54	3.1461E-01
567.88	3.1481E-01
568.21	3.1531E-01
568.55	3.1457E-01
568.89	3.1529E-01
569.23	3.1536E-01
569.56	3.1451E-01
569.90	3.1502E-01
570.24	3.1838E-01
570.57	3.1586E-01
570.91	3.1777E-01
571.25	3.1636E-01
571.59	3.1715E-01
571.92	3.1792E-01
572.26	3.1832E-01
572.60	3.2013E-01
572.93	3.1856E-01
573.27	3.2390E-01
573.61	3.2368E-01
573.95	3.1634E-01
574.28	3.2388E-01
574.62	3.2384E-01
574.96	3.2648E-01
575.29	3.2517E-01
575.63	3.2949E-01
575.97	3.2713E-01
576.30	3.3225E-01
576.64	3.2866E-01
576.98	3.3099E-01
577.31	3.3252E-01
577.65	3.3540E-01
577.98	3.2971E-01
578.32	3.3685E-01
578.66	3.3920E-01
578.99	3.3806E-01
579.33	3.4041E-01
579.67	3.3941E-01
580.00	3.4056E-01
580.34	3.4069E-01
580.67	3.4389E-01
581.01	3.4240E-01
581.35	3.4491E-01
581.68	3.4586E-01
582.02	3.4775E-01
582.35	3.4647E-01
582.69	3.4885E-01
583.02	3.5407E-01
583.36	3.5378E-01
583.70	3.5297E-01
584.03	3.5353E-01
584.37	3.5331E-01
584.70	3.5652E-01
585.04	3.5955E-01
585.37	3.5787E-01
585.71	3.6198E-01
586.04	3.6162E-01
586.38	3.5929E-01
586.72	3.6721E-01
587.05	3.6215E-01
587.39	3.6555E-01
587.72	3.6321E-01
588.06	3.6871E-01
588.39	3.6381E-01
588.73	3.7102E-01
589.06	3.6909E-01
589.40	3.7253E-01
589.73	3.7487E-01
590.07	3.7481E-01
590.40	3.7679E-01
590.73	3.7928E-01
591.07	3.7822E-01
591.40	3.8107E-01
591.74	3.7502E-01
592.07	3.8115E-01
592.41	3.8294E-01
592.74	3.8373E-01
593.08	3.8015E-01
593.41	3.8294E-01
593.75	3.8496E-01
594.08	3.8880E-01
594.41	3.8780E-01
594.75	3.8963E-01
595.08	3.8763E-01
595.42	3.8441E-01
595.75	3.8765E-01
596.09	3.9130E-01
596.42	3.8865E-01
596.75	3.8985E-01
597.09	3.9582E-01
597.42	3.8867E-01
597.75	3.9718E-01
598.09	3.9591E-01
598.42	3.9362E-01
598.76	3.9357E-01
599.09	3.9755E-01
599.42	3.9882E-01
599.76	3.9703E-01
600.09	3.9913E-01
600.42	4.0249E-01
600.76	3.9385E-01
601.09	3.9696E-01
601.42	4.0634E-01
601.76	4.0323E-01
602.09	4.0136E-01
602.42	4.0035E-01
602.76	4.0015E-01
603.09	4.0116E-01
603.42	4.0422E-01
603.76	4.0146E-01
604.09	4.0338E-01
604.42	4.0356E-01
604.76	4.0117E-01
605.09	4.0664E-01
605.42	4.0306E-01
605.75	4.0534E-01
606.09	4.0752E-01
606.42	4.0680E-01
606.75	4.0951E-01
607.09	4.0662E-01
607.42	4.0606E-01
607.75	4.0726E-01
608.08	4.0824E-01
608.42	4.1105E-01
608.75	4.0799E-01
609.08	4.1178E-01
609.41	4.1009E-01
609.75	4.0808E-01
610.08	4.1182E-01
610.41	4.1205E-01
610.74	4.1188E-01
611.07	4.1268E-01
611.41	4.0788E-01
611.74	4.1204E-01
612.07	4.1096E-01
612.40	4.0852E-01
612.73	4.1235E-01
613.07	4.1743E-01
613.40	4.1094E-01
613.73	4.1073E-01
614.06	4.1532E-01
614.39	4.1286E-01
614.72	4.1762E-01
615.06	4.1551E-01
615.39	4.1989E-01
615.72	4.1534E-01
616.05	4.2073E-01
616.38	4.2094E-01
616.71	4.1876E-01
617.05	4.1629E-01
617.38	4.2080E-01
617.71	4.1980E-01
618.04	4.1967E-01
618.37	4.1557E-01
618.70	4.1952E-01
619.03	4.1972E-01
619.36	4.1314E-01
619.69	4.2153E-01
620.03	4.1835E-01
620.36	4.1867E-01
620.69	4.1839E-01
621.02	4.1684E-01
621.35	4.1747E-01
621.68	4.1549E-01
622.01	4.1884E-01
622.34	4.1787E-01
622.67	4.1789E-01
623.00	4.1756E-01
623.33	4.1611E-01
623.66	4.1820E-01
623.99	4.1996E-01
624.32	4.1375E-01
624.65	4.1597E-01
624.99	4.1640E-01
625.32	4.2128E-01
625.65	4.1831E-01
625.98	4.1420E-01
626.31	4.1721E-01
626.64	4.2084E-01
626.97	4.1916E-01
627.30	4.1547E-01
627.63	4.1459E-01
627.96	4.1374E-01
628.29	4.1511E-01
628.62	4.1822E-01
628.95	4.1742E-01
629.28	4.1368E-01
629.61	4.2329E-01
629.94	4.2002E-01
630.26	4.2152E-01
630.59	4.2176E-01
630.92	4.2039E-01
631.25	4.2008E-01
631.58	4.2790E-01
631.91	4.2240E-01
632.24	4.2701E-01
632.57	4.2630E-01
632.90	4.2748E-01
633.23	4.2509E-01
633.56	4.2868E-01
633.89	4.2829E-01
634.22	4.2993E-01
634.55	4.3041E-01
634.88	4.3379E-01
635.20	4.3496E-01
635.53	4.3947E-01
635.86	4.3613E-01
636.19	4.4283E-01
636.52	4.4273E-01
636.85	4.4305E-01
637.18	4.4745E-01
637.51	4.4640E-01
637.83	4.4989E-01
638.16	4.4829E-01
638.49	4.5647E-01
638.82	4.5054E-01
639.15	4.5859E-01
639.48	4.5864E-01
639.81	4.6497E-01
640.13	4.6029E-01
640.46	4.6866E-01
640.79	4.6526E-01
641.12	4.7111E-01
641.45	4.6736E-01
641.77	4.6716E-01
642.10	4.7927E-01
642.43	4.8090E-01
642.76	4.8464E-01
643.09	4.7977E-01
643.41	4.8392E-01
643.74	4.8415E-01
644.07	4.8656E-01
644.40	4.8603E-01
644.73	4.9368E-01
645.05	4.9393E-01
645.38	4.9258E-01
645.71	5.0086E-01
646.04	4.9920E-01
646.36	4.9898E-01
646.69	5.0749E-01
647.02	5.0991E-01
647.35	5.0446E-01
647.67	5.1274E-01
648.00	5.1025E-01
648.33	5.1496E-01
648.66	5.1259E-01
648.98	5.1934E-01
649.31	5.1654E-01
649.64	5.1859E-01
649.96	5.2247E-01
650.29	5.3019E-01
650.62	5.2633E-01
650.94	5.2638E-01
651.27	5.2941E-01
651.60	5.2661E-01
651.92	5.3731E-01
652.25	5.4083E-01
652.58	5.3914E-01
652.90	5.3841E-01
653.23	5.3921E-01
653.56	5.4210E-01
653.88	5.4597E-01
654.21	5.4452E-01
654.54	5.4869E-01
654.86	5.5471E-01
655.19	5.5181E-01
655.52	5.5681E-01
655.84	5.5103E-01
656.17	5.5890E-01
656.49	5.5838E-01
656.82	5.5562E-01
657.15	5.6207E-01
657.47	5.6402E-01
657.80	5.6615E-01
658.13	5.6473E-01
658.45	5.6752E-01
658.78	5.6818E-01
659.10	5.7296E-01
659.43	5.7046E-01
659.75	5.7266E-01
660.08	5.7128E-01
660.41	5.8209E-01
660.73	5.7903E-01
661.06	5.7876E-01
661.38	5.8231E-01
661.71	5.8598E-01
662.03	5.8266E-01
662.36	5.9027E-01
662.68	5.8624E-01
663.01	5.8149E-01
663.33	5.8965E-01
663.66	5.9217E-01
663.98	5.9096E-01
664.31	5.9189E-01
664.63	6.0501E-01
664.96	5.9004E-01
665.28	5.9751E-01
665.61	5.9957E-01
665.93	5.9963E-01
666.26	5.9924E-01
666.58	6.0384E-01
666.91	6.0533E-01
667.23	6.1171E-01
667.56	6.0586E-01
667.88	6.0915E-01
668.21	6.1316E-01
668.53	6.1013E-01
668.86	6.1768E-01
669.18	6.1269E-01
669.50	6.2145E-01
669.83	6.1569E-01
670.15	6.2079E-01
670.48	6.2202E-01
670.80	6.2052E-01
671.13	6.2096E-01
671.45	6.2495E-01
671.77	6.2464E-01
672.10	6.2199E-01
672.42	6.3733E-01
672.75	6.3037E-01
673.07	6.3464E-01
673.39	6.2948E-01
673.72	6.3373E-01
674.04	6.3776E-01
674.37	6.3786E-01
674.69	6.3624E-01
675.01	6.4062E-01
675.34	6.4713E-01
675.66	6.4537E-01
675.98	6.4037E-01
676.31	6.4975E-01
676.63	6.4745E-01
676.95	6.4894E-01
677.28	6.5653E-01
677.60	6.5677E-01
677.92	6.5146E-01
678.25	6.5966E-01
678.57	6.6066E-01
678.89	6.5631E-01
679.22	6.6673E-01
679.54	6.6361E-01
679.86	6.6612E-01
680.18	6.7119E-01
680.51	6.6384E-01
680.83	6.8020E-01
681.15	6.7108E-01
681.48	6.7467E-01
681.80	6.7540E-01
682.12	6.7238E-01
682.44	6.8478E-01
682.77	6.8730E-01
683.09	6.9092E-01
683.41	6.8533E-01
683.73	6.9416E-01
684.06	6.9012E-01
684.38	6.9310E-01
684.70	6.9634E-01
685.02	6.9843E-01
685.34	7.0457E-01
685.67	7.0087E-01
685.99	7.1562E-01
686.31	7.0538E-01
686.63	7.1489E-01
686.96	7.1863E-01
687.28	7.2260E-01
687.60	7.1105E-01
687.92	7.1857E-01
688.24	7.2723E-01
688.56	7.3392E-01
688.89	7.2718E-01
689.21	7.3566E-01
689.53	7.3191E-01
689.85	7.4089E-01
690.17	7.3607E-01
690.49	7.4922E-01
690.82	7.4873E-01
691.14	7.4786E-01
691.46	7.5178E-01
691.78	7.5530E-01
692.10	7.5237E-01
692.42	7.6212E-01
692.74	7.6804E-01
693.06	7.6471E-01
693.39	7.7583E-01
693.71	7.8031E-01
694.03	7.8041E-01
694.35	7.8468E-01
694.67	7.8557E-01
694.99	7.9802E-01
695.31	7.9216E-01
695.63	7.9678E-01
695.95	8.0345E-01
696.27	8.0349E-01
696.59	8.0556E-01
696.91	8.1416E-01
697.23	8.1958E-01
697.56	8.2053E-01
697.88	8.1952E-01
698.20	8.2399E-01
698.52	8.2937E-01
698.84	8.3639E-01
699.16	8.3969E-01
699.48	8.3622E-01
699.80	8.4441E-01
700.12	8.5483E-01
700.44	8.5474E-01
700.76	8.5941E-01
701.08	8.6775E-01
701.40	8.6534E-01
701.72	8.7101E-01
702.04	8.7320E-01
702.36	8.8161E-01
702.68	8.8766E-01
703.00	8.9091E-01
703.32	8.9527E-01
703.64	9.0231E-01
703.96	8.9364E-01
704.28	8.9820E-01
704.60	9.0640E-01
704.91	9.1483E-01
705.23	9.1330E-01
705.55	9.2912E-01
705.87	9.2488E-01
706.19	9.2487E-01
706.51	9.3180E-01
706.83	9.3624E-01
707.15	9.5494E-01
707.47	9.4621E-01
707.79	9.6057E-01
708.11	9.5749E-01
708.43	9.6482E-01
708.74	9.7145E-01
709.06	9.8086E-01
709.38	9.7968E-01
709.70	9.8085E-01
710.02	9.9047E-01
710.34	9.8550E-01
710.66	1.0026E00
710.98	1.0078E00
711.29	1.0115E00
711.61	1.0231E00
711.93	1.0239E00
712.25	1.0202E00
712.57	1.0331E00
712.89	1.0421E00
713.20	1.0407E00
713.52	1.0447E00
713.84	1.0640E00
714.16	1.0547E00
714.48	1.0547E00
714.80	1.0751E00
715.11	1.0726E00
715.43	1.0818E00
715.75	1.0818E00
716.07	1.1103E00
716.39	1.0805E00
716.70	1.0976E00
717.02	1.0915E00
717.34	1.1154E00
717.66	1.1141E00
717.97	1.1168E00
718.29	1.1306E00
718.61	1.1343E00
718.93	1.1507E00
719.24	1.1492E00
719.56	1.1562E00
719.88	1.1688E00
720.20	1.1781E00
720.51	1.1885E00
720.83	1.1810E00
721.15	1.2097E00
721.46	1.2030E00
721.78	1.2152E00
722.10	1.2312E00
722.42	1.2300E00
722.73	1.2431E00
723.05	1.2424E00
723.37	1.2533E00
723.68	1.2812E00
724.00	1.2652E00
724.32	1.2858E00
724.63	1.2728E00
724.95	1.2835E00
725.27	1.2898E00
725.58	1.2945E00
725.90	1.2894E00
726.22	1.3117E00
726.53	1.3014E00
726.85	1.3100E00
727.16	1.3179E00
727.48	1.3219E00
727.80	1.3265E00
728.11	1.3382E00
728.43	1.3242E00
728.74	1.3252E00
729.06	1.3540E00
729.38	1.3503E00
729.69	1.3535E00
730.01	1.3625E00
730.32	1.3740E00
730.64	1.3712E00
730.96	1.3543E00
731.27	1.3907E00
731.59	1.3709E00
731.90	1.3673E00
732.22	1.3805E00
732.53	1.3971E00
732.85	1.4132E00
733.16	1.3997E00
733.48	1.3948E00
733.80	1.3912E00
734.11	1.4189E00
734.43	1.4408E00
734.74	1.4270E00
735.06	1.4404E00
735.37	1.4377E00
735.69	1.4430E00
736.00	1.4501E00
736.32	1.4487E00
736.63	1.4642E00
736.95	1.4728E00
737.26	1.4906E00
737.58	1.4795E00
737.89	1.4863E00
738.21	1.4789E00
738.52	1.4909E00
738.83	1.5113E00
739.15	1.4955E00
739.46	1.5212E00
739.78	1.5097E00
740.09	1.5180E00
740.41	1.5201E00
740.72	1.5183E00
741.04	1.5214E00
741.35	1.5306E00
741.66	1.5483E00
741.98	1.5391E00
742.29	1.5457E00
742.61	1.5583E00
742.92	1.5360E00
743.23	1.5507E00
743.55	1.5622E00
743.86	1.5516E00
744.18	1.5605E00
744.49	1.5480E00
744.80	1.5444E00
745.12	1.5487E00
745.43	1.5669E00
745.74	1.5645E00
746.06	1.5545E00
746.37	1.5538E00
746.68	1.5569E00
747.00	1.5626E00
747.31	1.5599E00
747.62	1.5484E00
747.94	1.5572E00
748.25	1.5568E00
748.56	1.5612E00
748.88	1.5511E00
749.19	1.5655E00
749.50	1.5546E00
749.82	1.5654E00
750.13	1.5606E00
750.44	1.5593E00
750.75	1.5468E00
751.07	1.5564E00
751.38	1.5786E00
751.69	1.5587E00
752.01	1.5824E00
752.32	1.5732E00
752.63	1.5594E00
752.94	1.5651E00
753.26	1.5659E00
753.57	1.5659E00
753.88	1.5817E00
754.19	1.5696E00
754.51	1.5844E00
754.82	1.5723E00
755.13	1.6040E00
755.44	1.5873E00
755.75	1.5950E00
756.07	1.6083E00
756.38	1.6178E00
756.69	1.6101E00
757.00	1.6337E00
757.31	1.6391E00
757.63	1.6402E00
757.94	1.6495E00
758.25	1.6671E00
758.56	1.6387E00
758.87	1.6755E00
759.18	1.6762E00
759.50	1.6711E00
759.81	1.6775E00
760.12	1.6924E00
760.43	1.7069E00
760.74	1.7160E00
761.05	1.7359E00
761.36	1.7280E00
761.67	1.7548E00
761.99	1.7544E00
762.30	1.7348E00
762.61	1.7634E00
762.92	1.7862E00
763.23	1.7979E00
763.54	1.7952E00
763.85	1.8311E00
764.16	1.8363E00
764.47	1.8540E00
764.78	1.8554E00
765.10	1.8741E00
765.41	1.8909E00
765.72	1.8761E00
766.03	1.9305E00
766.34	1.9318E00
766.65	1.9434E00
766.96	1.9789E00
767.27	1.9823E00
767.58	1.9714E00
767.89	1.9924E00
768.20	2.0418E00
768.51	2.0456E00
768.82	2.0421E00
769.13	2.0511E00
769.44	2.1053E00
769.75	2.0985E00
770.06	2.1001E00
770.37	2.1112E00
770.68	2.1407E00
770.99	2.1766E00
771.30	2.1939E00
771.61	2.2409E00
771.92	2.2201E00
772.23	2.2364E00
772.54	2.2679E00
772.85	2.2691E00
773.16	2.3063E00
773.47	2.3470E00
773.78	2.3480E00
774.09	2.3561E00
774.39	2.3781E00
774.70	2.3803E00
775.01	2.4440E00
775.32	2.4536E00
775.63	2.4622E00
775.94	2.4806E00
776.25	2.4711E00
776.56	2.5269E00
776.87	2.5750E00
777.18	2.5709E00
777.48	2.6137E00
777.79	2.6345E00
778.10	2.6583E00
778.41	2.6842E00
778.72	2.6943E00
779.03	2.6894E00
779.34	2.7498E00
779.65	2.7563E00
779.95	2.7613E00
780.26	2.8122E00
780.57	2.8086E00
780.88	2.8195E00
781.19	2.8700E00
781.50	2.8565E00
781.80	2.9156E00
782.11	2.9393E00
782.42	2.9492E00
782.73	2.9598E00
783.04	3.0375E00
783.34	3.0520E00
783.65	3.0927E00
783.96	3.0543E00
784.27	3.0826E00
784.57	3.1252E00
784.88	3.1438E00
785.19	3.1903E00
785.50	3.1928E00
785.81	3.2382E00
786.11	3.2108E00
786.42	3.2827E00
786.73	3.3553E00
787.04	3.3459E00
787.34	3.3526E00
787.65	3.3595E00
787.96	3.4727E00
788.26	3.5005E00
788.57	3.4948E00
788.88	3.4648E00
789.19	3.5201E00
789.49	3.5440E00
789.80	3.6332E00
790.11	3.6593E00
790.41	3.6566E00
790.72	3.7125E00
791.03	3.7204E00
791.33	3.7538E00
791.64	3.7422E00
791.95	3.7788E00
792.25	3.8576E00
792.56	3.9234E00
792.87	3.9260E00
793.17	3.9232E00
793.48	3.9062E00
793.79	4.0093E00
794.09	4.0128E00
794.40	3.9853E00
794.70	3.9817E00
795.01	4.1050E00
795.32	4.0882E00
795.62	4.1663E00
795.93	4.1683E00
796.23	4.2057E00
796.54	4.2334E00
796.85	4.2238E00
797.15	4.2668E00
797.46	4.3063E00
797.76	4.3921E00
798.07	4.4205E00
798.37	4.4343E00
798.68	4.5169E00
798.99	4.5708E00
799.29	4.5592E00
799.60	4.6700E00
799.90	4.6520E00
800.21	4.6673E00
800.51	4.6954E00
800.82	4.7667E00
801.12	4.7993E00
801.43	4.8879E00
801.73	4.8587E00
802.04	4.8666E00
802.34	4.8686E00
802.65	4.9961E00
802.95	5.0937E00
803.26	5.0282E00
803.56	5.0019E00
803.87	5.0835E00
804.17	5.0626E00
804.48	5.2175E00
804.78	5.1580E00
805.09	5.2265E00
805.39	5.2242E00
805.70	5.3070E00
806.00	5.3070E00
806.30	5.2980E00
806.61	5.4132E00
806.91	5.4239E00
807.22	5.4422E00
807.52	5.6057E00
807.83	5.5094E00
808.13	5.5508E00
808.43	5.5591E00
808.74	5.6435E00
809.04	5.7093E00
809.35	5.6471E00
809.65	5.8215E00
809.95	5.9188E00
810.26	5.9451E00
810.56	5.8546E00
810.86	6.0218E00
811.17	6.0763E00
811.47	6.1289E00
811.77	6.0185E00
812.08	6.1705E00
812.38	6.2303E00
812.69	6.1355E00
812.99	6.2204E00
813.29	6.2176E00
813.59	6.3449E00
813.90	6.4046E00
814.20	6.4402E00
814.50	6.5773E00
814.81	6.4821E00
815.11	6.6308E00
815.41	6.8310E00
815.72	6.7125E00
816.02	6.7338E00
816.32	6.7931E00
816.62	6.7000E00
816.93	6.8192E00
817.23	6.9587E00
817.53	6.8608E00
817.84	7.1217E00
818.14	7.0474E00
818.44	7.0268E00
818.74	7.0748E00
819.04	7.4102E00
819.35	7.3330E00
819.65	7.2396E00
819.95	7.5657E00
820.25	7.5654E00
820.56	7.5247E00
820.86	7.5141E00
821.16	7.6736E00
821.46	7.6651E00
821.76	7.4833E00
822.07	7.5758E00
822.37	7.8609E00
822.67	7.8696E00
822.97	8.0470E00
823.27	8.0545E00
823.57	7.9677E00
823.88	8.0471E00
824.18	8.1498E00
824.48	7.9919E00
824.78	8.2909E00
825.08	8.3177E00
825.38	8.2595E00
825.69	8.2884E00
825.99	8.4176E00
826.29	8.3057E00
826.59	8.5778E00
826.89	8.7079E00
827.19	8.5624E00
827.49	8.8820E00
827.79	8.7530E00
828.09	8.9297E00
828.39	8.9775E00
828.70	8.7783E00
829.00	9.0469E00
829.30	9.1991E00
829.60	9.0792E00
829.90	9.3330E00
830.20	9.3388E00
830.50	9.4055E00
830.80	9.4495E00
831.10	9.5819E00
831.40	9.5574E00
831.70	9.5739E00
832.00	9.4078E00
832.30	9.9096E00
832.60	9.6134E00
832.90	9.9521E00
833.20	9.9906E00
833.50	9.9043E00
833.80	1.0021E01
834.10	1.0314E01
834.40	1.0082E01
834.70	1.0161E01
835.00	1.0461E01
835.30	1.0445E01
835.60	1.0544E01
835.90	1.0596E01
836.20	1.0653E01
836.50	1.0712E01
836.80	1.0854E01
837.10	1.0701E01
837.40	1.0572E01
837.70	1.1139E01
838.00	1.1155E01
838.30	1.1278E01
838.60	1.1268E01
838.90	1.1103E01
839.19	1.1304E01
839.49	1.1670E01
839.79	1.1480E01
840.09	1.1559E01
840.39	1.1527E01
840.69	1.1579E01
840.99	1.2126E01
841.29	1.1619E01
841.59	1.1972E01
841.88	1.2286E01
842.18	1.2019E01
842.48	1.2284E01
842.78	1.2376E01
843.08	1.2729E01
843.38	1.2706E01
843.68	1.3029E01
843.97	1.2799E01
844.27	1.2800E01
844.57	1.2714E01
844.87	1.2962E01
845.17	1.3134E01
845.47	1.3249E01
845.76	1.3243E01
846.06	1.3509E01
846.36	1.3563E01
846.66	1.3361E01
846.96	1.3409E01
847.25	1.3883E01
847.55	1.3903E01
847.85	1.4212E01
848.15	1.4063E01
848.44	1.4058E01
848.74	1.4487E01
849.04	1.4664E01
849.34	1.4793E01
849.63	1.4514E01
849.93	1.4871E01
850.23	1.5138E01
850.53	1.5105E01
850.82	1.5159E01
851.12	1.5612E01
851.42	1.5402E01
851.71	1.5185E01
852.01	1.5796E01
852.31	1.5817E01
852.61	1.5712E01
852.90	1.6079E01
853.20	1.6244E01
853.50	1.6113E01
853.79	1.6817E01
854.09	1.6372E01
854.39	1.6739E01
854.68	1.7030E01
854.98	1.6934E01
855.28	1.6832E01
855.57	1.7402E01
855.87	1.7523E01
856.17	1.7526E01
856.46	1.7930E01
856.76	1.7857E01
857.05	1.7923E01
857.35	1.7919E01
857.65	1.8113E01
857.94	1.8215E01
858.24	1.7937E01
858.53	1.8742E01
858.83	1.9408E01
859.13	1.9226E01
859.42	1.9024E01
859.72	1.9351E01
860.01	1.9586E01
860.31	1.9783E01
860.60	2.0097E01
860.90	1.9483E01
861.20	2.0601E01
861.49	2.0122E01
861.79	2.0468E01
862.08	2.0650E01
862.38	2.0963E01
862.67	2.2066E01
862.97	2.0898E01
863.26	2.1098E01
863.56	2.1928E01
863.85	2.1859E01
864.15	2.2358E01
864.44	2.1404E01
864.74	2.2336E01
865.03	2.3261E01
865.33	2.2704E01
865.62	2.3671E01
865.92	2.3357E01
866.21	2.4134E01
866.51	2.4197E01
866.80	2.3825E01
867.10	2.4198E01
867.39	2.4838E01
867.69	2.5033E01
867.98	2.4810E01
868.27	2.5965E01
868.57	2.4955E01
868.86	2.6200E01
869.16	2.5881E01
869.45	2.6569E01
869.75	2.6834E01
870.04	2.6359E01
870.33	2.7469E01
870.63	2.7481E01
870.92	2.6675E01
871.22	2.7983E01
871.51	2.8858E01
871.80	2.8419E01
872.10	2.8419E01
>>>>>End Processed Spectral Data<<<<<
