SpectraSuite Data File
++++++++++++++++++++++++++++++++++++
Date: Sat May 16 09:24:18 PDT 2015
User: schluterlab
Dark Spectrum Present: Yes
Reference Spectrum Present: No
Number of Sampled Component Spectra: 1
Spectrometers: USB2E3373
Integration Time (usec): 2300000 (USB2E3373)
Spectra Averaged: 3 (USB2E3373)
Boxcar Smoothing: 0 (USB2E3373)
Correct for Electrical Dark: No (USB2E3373)
Strobe/Lamp Enabled: No (USB2E3373)
Correct for Detector Non-linearity: No (USB2E3373)
Correct for Stray Light: No (USB2E3373)
Number of Pixels in Processed Spectrum: 2048
>>>>>Begin Processed Spectral Data<<<<<
178.53	-0.0000E00
178.91	-0.0000E00
179.29	-0.0000E00
179.67	-0.0000E00
180.04	-0.0000E00
180.42	0.0000E00
180.80	0.0000E00
181.18	0.0000E00
181.56	0.0000E00
181.94	0.0000E00
182.31	0.0000E00
182.69	0.0000E00
183.07	0.0000E00
183.45	-0.0000E00
183.83	-0.0000E00
184.20	-0.0000E00
184.58	0.0000E00
184.96	-0.0000E00
185.34	-0.0000E00
185.72	0.0000E00
186.09	0.0000E00
186.47	0.0000E00
186.85	0.0000E00
187.23	-0.0000E00
187.61	0.0000E00
187.98	0.0000E00
188.36	0.0000E00
188.74	0.0000E00
189.12	0.0000E00
189.49	0.0000E00
189.87	0.0000E00
190.25	0.0000E00
190.63	0.0000E00
191.00	0.0000E00
191.38	0.0000E00
191.76	0.0000E00
192.14	0.0000E00
192.51	0.0000E00
192.89	0.0000E00
193.27	0.0000E00
193.65	0.0000E00
194.02	0.0000E00
194.40	0.0000E00
194.78	0.0000E00
195.15	0.0000E00
195.53	0.0000E00
195.91	0.0000E00
196.29	0.0000E00
196.66	0.0000E00
197.04	0.0000E00
197.42	0.0000E00
197.79	0.0000E00
198.17	0.0000E00
198.55	0.0000E00
198.92	0.0000E00
199.30	0.0000E00
199.68	0.0000E00
200.05	0.0000E00
200.43	0.0000E00
200.81	0.0000E00
201.18	0.0000E00
201.56	0.0000E00
201.94	0.0000E00
202.31	0.0000E00
202.69	0.0000E00
203.07	0.0000E00
203.44	0.0000E00
203.82	0.0000E00
204.19	0.0000E00
204.57	0.0000E00
204.95	0.0000E00
205.32	0.0000E00
205.70	0.0000E00
206.08	0.0000E00
206.45	0.0000E00
206.83	0.0000E00
207.20	0.0000E00
207.58	0.0000E00
207.96	0.0000E00
208.33	0.0000E00
208.71	0.0000E00
209.08	0.0000E00
209.46	0.0000E00
209.84	0.0000E00
210.21	0.0000E00
210.59	0.0000E00
210.96	0.0000E00
211.34	0.0000E00
211.71	0.0000E00
212.09	0.0000E00
212.46	0.0000E00
212.84	0.0000E00
213.22	-0.0000E00
213.59	0.0000E00
213.97	0.0000E00
214.34	0.0000E00
214.72	0.0000E00
215.09	0.0000E00
215.47	0.0000E00
215.84	0.0000E00
216.22	0.0000E00
216.59	0.0000E00
216.97	0.0000E00
217.34	0.0000E00
217.72	0.0000E00
218.09	0.0000E00
218.47	0.0000E00
218.84	-0.0000E00
219.22	0.0000E00
219.59	0.0000E00
219.97	0.0000E00
220.34	0.0000E00
220.72	0.0000E00
221.09	0.0000E00
221.47	0.0000E00
221.84	0.0000E00
222.22	0.0000E00
222.59	0.0000E00
222.97	0.0000E00
223.34	0.0000E00
223.72	0.0000E00
224.09	0.0000E00
224.46	0.0000E00
224.84	0.0000E00
225.21	0.0000E00
225.59	0.0000E00
225.96	0.0000E00
226.34	0.0000E00
226.71	0.0000E00
227.08	0.0000E00
227.46	0.0000E00
227.83	0.0000E00
228.21	0.0000E00
228.58	0.0000E00
228.95	0.0000E00
229.33	0.0000E00
229.70	0.0000E00
230.08	0.0000E00
230.45	0.0000E00
230.82	0.0000E00
231.20	0.0000E00
231.57	0.0000E00
231.95	0.0000E00
232.32	0.0000E00
232.69	0.0000E00
233.07	0.0000E00
233.44	0.0000E00
233.81	0.0000E00
234.19	0.0000E00
234.56	0.0000E00
234.93	0.0000E00
235.31	0.0000E00
235.68	0.0000E00
236.05	0.0000E00
236.43	0.0000E00
236.80	0.0000E00
237.17	0.0000E00
237.55	0.0000E00
237.92	0.0000E00
238.29	0.0000E00
238.67	0.0000E00
239.04	0.0000E00
239.41	0.0000E00
239.79	0.0000E00
240.16	0.0000E00
240.53	0.0000E00
240.91	0.0000E00
241.28	0.0000E00
241.65	0.0000E00
242.02	0.0000E00
242.40	0.0000E00
242.77	0.0000E00
243.14	0.0000E00
243.51	0.0000E00
243.89	0.0000E00
244.26	0.0000E00
244.63	0.0000E00
245.00	0.0000E00
245.38	0.0000E00
245.75	0.0000E00
246.12	0.0000E00
246.49	0.0000E00
246.87	0.0000E00
247.24	0.0000E00
247.61	0.0000E00
247.98	0.0000E00
248.36	0.0000E00
248.73	0.0000E00
249.10	0.0000E00
249.47	0.0000E00
249.84	0.0000E00
250.22	0.0000E00
250.59	0.0000E00
250.96	0.0000E00
251.33	0.0000E00
251.70	0.0000E00
252.08	0.0000E00
252.45	0.0000E00
252.82	0.0000E00
253.19	0.0000E00
253.56	0.0000E00
253.94	0.0000E00
254.31	0.0000E00
254.68	0.0000E00
255.05	0.0000E00
255.42	0.0000E00
255.79	0.0000E00
256.16	0.0000E00
256.54	0.0000E00
256.91	0.0000E00
257.28	0.0000E00
257.65	0.0000E00
258.02	0.0000E00
258.39	0.0000E00
258.76	0.0000E00
259.14	0.0000E00
259.51	0.0000E00
259.88	0.0000E00
260.25	0.0000E00
260.62	0.0000E00
260.99	0.0000E00
261.36	0.0000E00
261.73	0.0000E00
262.10	0.0000E00
262.47	0.0000E00
262.85	0.0000E00
263.22	0.0000E00
263.59	0.0000E00
263.96	0.0000E00
264.33	0.0000E00
264.70	0.0000E00
265.07	0.0000E00
265.44	0.0000E00
265.81	0.0000E00
266.18	0.0000E00
266.55	0.0000E00
266.92	0.0000E00
267.29	0.0000E00
267.66	0.0000E00
268.03	0.0000E00
268.40	0.0000E00
268.77	0.0000E00
269.14	0.0000E00
269.51	0.0000E00
269.88	0.0000E00
270.25	0.0000E00
270.62	0.0000E00
270.99	0.0000E00
271.36	0.0000E00
271.73	0.0000E00
272.10	0.0000E00
272.47	0.0000E00
272.84	0.0000E00
273.21	0.0000E00
273.58	0.0000E00
273.95	0.0000E00
274.32	0.0000E00
274.69	0.0000E00
275.06	0.0000E00
275.43	0.0000E00
275.80	0.0000E00
276.17	0.0000E00
276.54	0.0000E00
276.91	0.0000E00
277.28	0.0000E00
277.65	0.0000E00
278.02	0.0000E00
278.39	0.0000E00
278.76	0.0000E00
279.13	0.0000E00
279.50	0.0000E00
279.87	0.0000E00
280.23	0.0000E00
280.60	0.0000E00
280.97	0.0000E00
281.34	0.0000E00
281.71	0.0000E00
282.08	0.0000E00
282.45	0.0000E00
282.82	0.0000E00
283.19	0.0000E00
283.56	0.0000E00
283.92	0.0000E00
284.29	0.0000E00
284.66	0.0000E00
285.03	0.0000E00
285.40	0.0000E00
285.77	0.0000E00
286.14	0.0000E00
286.51	0.0000E00
286.87	0.0000E00
287.24	0.0000E00
287.61	0.0000E00
287.98	0.0000E00
288.35	0.0000E00
288.72	0.0000E00
289.08	0.0000E00
289.45	0.0000E00
289.82	0.0000E00
290.19	0.0000E00
290.56	0.0000E00
290.93	0.0000E00
291.29	0.0000E00
291.66	0.0000E00
292.03	0.0000E00
292.40	0.0000E00
292.77	0.0000E00
293.13	0.0000E00
293.50	0.0000E00
293.87	0.0000E00
294.24	0.0000E00
294.60	0.0000E00
294.97	0.0000E00
295.34	0.0000E00
295.71	0.0000E00
296.08	0.0000E00
296.44	0.0000E00
296.81	0.0000E00
297.18	0.0000E00
297.55	0.0000E00
297.91	0.0000E00
298.28	0.0000E00
298.65	0.0000E00
299.02	0.0000E00
299.38	0.0000E00
299.75	0.0000E00
300.12	3.9680E-01
300.48	8.9876E-02
300.85	1.2586E-01
301.22	1.1876E-01
301.59	1.2866E-01
301.95	1.7880E-01
302.32	1.9988E-01
302.69	6.7495E-02
303.05	6.6906E-02
303.42	1.1732E-01
303.79	9.8724E-02
304.15	1.9901E-01
304.52	1.4937E-01
304.89	1.6635E-01
305.25	1.1214E-01
305.62	1.0076E-01
305.99	3.8765E-01
306.35	9.9540E-02
306.72	1.3568E-01
307.09	1.5449E-01
307.45	1.1845E-01
307.82	1.2461E-01
308.19	1.1558E-01
308.55	1.1911E-01
308.92	2.6785E-01
309.29	1.6756E-01
309.65	1.9416E-01
310.02	1.1422E-01
310.38	7.6062E-02
310.75	2.4012E-01
311.12	8.0805E-02
311.48	1.5544E-01
311.85	1.3319E-01
312.22	8.3962E-02
312.58	9.1929E-02
312.95	1.4571E-01
313.31	1.4720E-01
313.68	1.1406E-01
314.05	1.5091E-01
314.41	2.1280E-01
314.78	1.0929E-01
315.14	2.0534E-01
315.51	2.5201E-01
315.87	1.2857E-01
316.24	1.3006E-01
316.61	2.3698E-01
316.97	2.1588E-01
317.34	1.9217E-01
317.70	3.2292E-01
318.07	2.5338E-01
318.43	1.9868E-01
318.80	2.9323E-01
319.16	2.5255E-01
319.53	3.4408E-01
319.89	2.0038E-01
320.26	1.7898E-01
320.62	3.9876E-01
320.99	1.5902E-01
321.35	2.5580E-01
321.72	2.2476E-01
322.08	2.2937E-01
322.45	2.1923E-01
322.81	4.4869E-01
323.18	3.1209E-01
323.54	2.0716E-01
323.91	2.0867E-01
324.27	1.7451E-01
324.64	3.6361E-01
325.00	3.3454E-01
325.37	2.0521E-01
325.73	3.4006E-01
326.10	3.4370E-01
326.46	3.1000E-01
326.83	8.0009E-01
327.19	5.7350E-01
327.56	3.6906E-01
327.92	4.9637E-01
328.29	4.9628E-01
328.65	3.5572E-01
329.01	3.8255E-01
329.38	4.4445E-01
329.74	4.4184E-01
330.11	3.2229E-01
330.47	4.8295E-01
330.84	6.1491E-01
331.20	7.3085E-01
331.56	5.3008E-01
331.93	5.0147E-01
332.29	7.4697E-01
332.66	2.8728E-01
333.02	6.2180E-01
333.38	3.7372E-01
333.75	4.1900E-01
334.11	6.3426E-01
334.48	4.1430E-01
334.84	4.6133E-01
335.20	4.7416E-01
335.57	5.1568E-01
335.93	1.2485E00
336.29	1.0510E00
336.66	4.3691E-01
337.02	9.0073E-01
337.38	3.3223E-01
337.75	4.2345E-01
338.11	5.0248E-01
338.47	3.8637E-01
338.84	4.4836E-01
339.20	4.5371E-01
339.56	5.0785E-01
339.93	5.5676E-01
340.29	6.7475E-01
340.65	4.4320E-01
341.02	8.4900E-01
341.38	6.2952E-01
341.74	9.0580E-01
342.11	6.4583E-01
342.47	5.3202E-01
342.83	8.3460E-01
343.20	5.2353E-01
343.56	4.8620E-01
343.92	7.6270E-01
344.28	5.7494E-01
344.65	7.6718E-01
345.01	4.9956E-01
345.37	8.6718E-01
345.73	6.1445E-01
346.10	4.8931E-01
346.46	6.1765E-01
346.82	7.2184E-01
347.19	7.6462E-01
347.55	6.5035E-01
347.91	6.7567E-01
348.27	7.2457E-01
348.63	8.2690E-01
349.00	5.6630E-01
349.36	5.2716E-01
349.72	6.0703E-01
350.08	9.5615E-01
350.45	8.2493E-01
350.81	8.6262E-01
351.17	6.3194E-01
351.53	8.0517E-01
351.89	8.5924E-01
352.26	7.3906E-01
352.62	8.0469E-01
352.98	6.4251E-01
353.34	5.8519E-01
353.70	7.9042E-01
354.07	7.3697E-01
354.43	8.0510E-01
354.79	8.2294E-01
355.15	6.3516E-01
355.51	9.4959E-01
355.87	8.7753E-01
356.24	6.3079E-01
356.60	8.8141E-01
356.96	7.5631E-01
357.32	7.0554E-01
357.68	6.8346E-01
358.04	6.5798E-01
358.40	6.0038E-01
358.77	6.8776E-01
359.13	6.7035E-01
359.49	9.3052E-01
359.85	9.8133E-01
360.21	7.6607E-01
360.57	7.6491E-01
360.93	8.2339E-01
361.29	8.1281E-01
361.66	8.8420E-01
362.02	7.3277E-01
362.38	8.3857E-01
362.74	8.3672E-01
363.10	1.0451E00
363.46	1.0263E00
363.82	1.0531E00
364.18	9.5490E-01
364.54	1.0114E00
364.90	8.5653E-01
365.26	9.0423E-01
365.62	1.0498E00
365.98	1.0316E00
366.35	1.0433E00
366.71	8.4358E-01
367.07	1.4055E00
367.43	1.2270E00
367.79	1.0614E00
368.15	1.0322E00
368.51	1.1568E00
368.87	1.0648E00
369.23	1.2481E00
369.59	9.8716E-01
369.95	1.3966E00
370.31	1.1084E00
370.67	1.1639E00
371.03	1.0051E00
371.39	9.8194E-01
371.75	1.2494E00
372.11	1.1087E00
372.47	9.6897E-01
372.83	1.1175E00
373.19	1.1687E00
373.55	1.0517E00
373.91	1.1638E00
374.27	8.9355E-01
374.63	1.0244E00
374.99	9.6319E-01
375.35	1.0644E00
375.71	1.0410E00
376.07	9.7068E-01
376.42	1.0701E00
376.78	9.8765E-01
377.14	9.3488E-01
377.50	1.0558E00
377.86	9.8661E-01
378.22	1.1556E00
378.58	9.2673E-01
378.94	1.0220E00
379.30	8.3651E-01
379.66	9.3694E-01
380.02	1.0227E00
380.38	8.7319E-01
380.74	9.6322E-01
381.09	9.6331E-01
381.45	8.9128E-01
381.81	9.0003E-01
382.17	8.8761E-01
382.53	8.4062E-01
382.89	7.9818E-01
383.25	9.2839E-01
383.61	9.2409E-01
383.97	9.7599E-01
384.32	9.8500E-01
384.68	9.2277E-01
385.04	9.0543E-01
385.40	9.1999E-01
385.76	7.3609E-01
386.12	9.1323E-01
386.48	8.1495E-01
386.83	8.9795E-01
387.19	8.7207E-01
387.55	9.4794E-01
387.91	9.1893E-01
388.27	8.3348E-01
388.62	8.3512E-01
388.98	8.5408E-01
389.34	8.8320E-01
389.70	8.6523E-01
390.06	8.5691E-01
390.42	8.4069E-01
390.77	8.1973E-01
391.13	8.7515E-01
391.49	8.4819E-01
391.85	9.2417E-01
392.20	8.4461E-01
392.56	8.7680E-01
392.92	8.3670E-01
393.28	8.3540E-01
393.64	8.6056E-01
393.99	8.8202E-01
394.35	8.1402E-01
394.71	9.2260E-01
395.07	8.5860E-01
395.42	8.2311E-01
395.78	8.1392E-01
396.14	8.2041E-01
396.50	7.6928E-01
396.85	8.9147E-01
397.21	9.2442E-01
397.57	8.3368E-01
397.92	8.5281E-01
398.28	7.6502E-01
398.64	8.1351E-01
399.00	7.7795E-01
399.35	7.6717E-01
399.71	8.1603E-01
400.07	8.0889E-01
400.42	8.1266E-01
400.78	7.8198E-01
401.14	7.7659E-01
401.49	7.8313E-01
401.85	7.8292E-01
402.21	7.1077E-01
402.57	7.4310E-01
402.92	8.0090E-01
403.28	7.9769E-01
403.63	7.8326E-01
403.99	8.0947E-01
404.35	7.4823E-01
404.70	7.5483E-01
405.06	7.4266E-01
405.42	7.9651E-01
405.77	7.2740E-01
406.13	7.0757E-01
406.49	6.7870E-01
406.84	6.9936E-01
407.20	7.4564E-01
407.55	7.6821E-01
407.91	7.7757E-01
408.27	7.0841E-01
408.62	6.9294E-01
408.98	7.2318E-01
409.34	7.0951E-01
409.69	7.4738E-01
410.05	6.9866E-01
410.40	7.0515E-01
410.76	6.7891E-01
411.11	7.0495E-01
411.47	7.2200E-01
411.83	6.8722E-01
412.18	6.8575E-01
412.54	6.8203E-01
412.89	6.9932E-01
413.25	6.5159E-01
413.60	6.7278E-01
413.96	7.1649E-01
414.31	6.7523E-01
414.67	7.0397E-01
415.03	7.1253E-01
415.38	7.4240E-01
415.74	7.1122E-01
416.09	7.0315E-01
416.45	7.2746E-01
416.80	6.9822E-01
417.16	6.9769E-01
417.51	6.8937E-01
417.87	7.0993E-01
418.22	6.6473E-01
418.58	6.8589E-01
418.93	6.4328E-01
419.29	6.8038E-01
419.64	6.4776E-01
420.00	6.6768E-01
420.35	6.6033E-01
420.71	6.3566E-01
421.06	6.6001E-01
421.42	6.9369E-01
421.77	6.5253E-01
422.12	6.6631E-01
422.48	6.4216E-01
422.83	6.7188E-01
423.19	6.3573E-01
423.54	6.5925E-01
423.90	6.4241E-01
424.25	6.3121E-01
424.61	6.6108E-01
424.96	6.3080E-01
425.31	6.1159E-01
425.67	6.0590E-01
426.02	6.1855E-01
426.38	6.1881E-01
426.73	6.1027E-01
427.09	6.1981E-01
427.44	5.8937E-01
427.79	6.0453E-01
428.15	6.0833E-01
428.50	6.1542E-01
428.85	6.3343E-01
429.21	5.7287E-01
429.56	5.8189E-01
429.92	5.7496E-01
430.27	5.9170E-01
430.62	6.0943E-01
430.98	6.1627E-01
431.33	5.9841E-01
431.68	5.8553E-01
432.04	5.7853E-01
432.39	5.7818E-01
432.74	6.0264E-01
433.10	5.5712E-01
433.45	5.9639E-01
433.80	5.8465E-01
434.16	5.7867E-01
434.51	5.7250E-01
434.86	5.9072E-01
435.22	5.6372E-01
435.57	6.1458E-01
435.92	5.9025E-01
436.28	5.5537E-01
436.63	5.6157E-01
436.98	5.6525E-01
437.34	5.8678E-01
437.69	5.6488E-01
438.04	5.4455E-01
438.39	5.8487E-01
438.75	5.6906E-01
439.10	5.5407E-01
439.45	5.8059E-01
439.81	5.8209E-01
440.16	5.4840E-01
440.51	5.6145E-01
440.86	5.8880E-01
441.22	5.6454E-01
441.57	5.4367E-01
441.92	5.4334E-01
442.27	5.5947E-01
442.63	5.5123E-01
442.98	5.8128E-01
443.33	5.7123E-01
443.68	5.3624E-01
444.03	5.2830E-01
444.39	5.2185E-01
444.74	5.6603E-01
445.09	5.6968E-01
445.44	5.6043E-01
445.79	5.1172E-01
446.15	5.4604E-01
446.50	5.5156E-01
446.85	5.1965E-01
447.20	5.1762E-01
447.55	5.4434E-01
447.91	5.3972E-01
448.26	5.4995E-01
448.61	5.3715E-01
448.96	5.1982E-01
449.31	5.2989E-01
449.66	5.3766E-01
450.02	5.3378E-01
450.37	5.3609E-01
450.72	5.2393E-01
451.07	5.6572E-01
451.42	5.6892E-01
451.77	5.3795E-01
452.12	5.2962E-01
452.47	5.6361E-01
452.83	5.2295E-01
453.18	5.3815E-01
453.53	5.3317E-01
453.88	4.9665E-01
454.23	5.0689E-01
454.58	5.0220E-01
454.93	5.1478E-01
455.28	5.1466E-01
455.63	5.0534E-01
455.98	4.9815E-01
456.34	5.2455E-01
456.69	5.1426E-01
457.04	5.1495E-01
457.39	4.8636E-01
457.74	4.9204E-01
458.09	4.9307E-01
458.44	4.8553E-01
458.79	4.7447E-01
459.14	4.7720E-01
459.49	5.0336E-01
459.84	4.8267E-01
460.19	5.0710E-01
460.54	5.1903E-01
460.89	4.7145E-01
461.24	5.0771E-01
461.59	4.9021E-01
461.94	5.0182E-01
462.29	4.6195E-01
462.64	4.9452E-01
462.99	5.0194E-01
463.34	5.2107E-01
463.69	4.8027E-01
464.04	4.6089E-01
464.39	4.6694E-01
464.74	4.8411E-01
465.09	4.9854E-01
465.44	4.6401E-01
465.79	4.7969E-01
466.14	4.7790E-01
466.49	4.7381E-01
466.84	4.7209E-01
467.19	4.7839E-01
467.54	4.7640E-01
467.89	4.6406E-01
468.24	4.4424E-01
468.59	4.5152E-01
468.94	4.5195E-01
469.29	4.4936E-01
469.64	4.6060E-01
469.99	4.5248E-01
470.34	4.3226E-01
470.68	4.6599E-01
471.03	4.4209E-01
471.38	4.3810E-01
471.73	4.2752E-01
472.08	4.2057E-01
472.43	4.0705E-01
472.78	4.3165E-01
473.13	4.2881E-01
473.48	4.1772E-01
473.83	4.0749E-01
474.17	4.2350E-01
474.52	4.1035E-01
474.87	3.9616E-01
475.22	4.0330E-01
475.57	3.8194E-01
475.92	3.6824E-01
476.27	3.9138E-01
476.61	3.7515E-01
476.96	3.7032E-01
477.31	3.4921E-01
477.66	3.6127E-01
478.01	3.5452E-01
478.36	3.5494E-01
478.70	3.4714E-01
479.05	3.4953E-01
479.40	3.4161E-01
479.75	3.4243E-01
480.10	3.3437E-01
480.45	3.2972E-01
480.79	3.2755E-01
481.14	3.3346E-01
481.49	3.2781E-01
481.84	3.1831E-01
482.19	3.1151E-01
482.53	3.1761E-01
482.88	3.1187E-01
483.23	3.0765E-01
483.58	3.0380E-01
483.92	3.1076E-01
484.27	2.9808E-01
484.62	2.9818E-01
484.97	2.9230E-01
485.31	2.8860E-01
485.66	2.9371E-01
486.01	2.9480E-01
486.36	2.8395E-01
486.70	2.8899E-01
487.05	2.8795E-01
487.40	2.8457E-01
487.75	2.7950E-01
488.09	2.7912E-01
488.44	2.8254E-01
488.79	2.8046E-01
489.13	2.7612E-01
489.48	2.7667E-01
489.83	2.7919E-01
490.17	2.7082E-01
490.52	2.7020E-01
490.87	2.7142E-01
491.22	2.7441E-01
491.56	2.7359E-01
491.91	2.7569E-01
492.26	2.7336E-01
492.60	2.7265E-01
492.95	2.7459E-01
493.30	2.7373E-01
493.64	2.7056E-01
493.99	2.7509E-01
494.34	2.7094E-01
494.68	2.6719E-01
495.03	2.7217E-01
495.37	2.6832E-01
495.72	2.7239E-01
496.07	2.6620E-01
496.41	2.6943E-01
496.76	2.6899E-01
497.11	2.7014E-01
497.45	2.6977E-01
497.80	2.7085E-01
498.14	2.6744E-01
498.49	2.7188E-01
498.84	2.6940E-01
499.18	2.7029E-01
499.53	2.6959E-01
499.87	2.6525E-01
500.22	2.7241E-01
500.56	2.6948E-01
500.91	2.7025E-01
501.26	2.6788E-01
501.60	2.6984E-01
501.95	2.6739E-01
502.29	2.6889E-01
502.64	2.6694E-01
502.98	2.7113E-01
503.33	2.6640E-01
503.67	2.6970E-01
504.02	2.6798E-01
504.36	2.6708E-01
504.71	2.6867E-01
505.06	2.6674E-01
505.40	2.6505E-01
505.75	2.6599E-01
506.09	2.6581E-01
506.44	2.6515E-01
506.78	2.6692E-01
507.13	2.6777E-01
507.47	2.6482E-01
507.82	2.6462E-01
508.16	2.6503E-01
508.51	2.6399E-01
508.85	2.6100E-01
509.19	2.6170E-01
509.54	2.6388E-01
509.88	2.6311E-01
510.23	2.5871E-01
510.57	2.5956E-01
510.92	2.6141E-01
511.26	2.6115E-01
511.61	2.6130E-01
511.95	2.5908E-01
512.30	2.5882E-01
512.64	2.5981E-01
512.98	2.5854E-01
513.33	2.5971E-01
513.67	2.5750E-01
514.02	2.5882E-01
514.36	2.5575E-01
514.70	2.5661E-01
515.05	2.5532E-01
515.39	2.5597E-01
515.74	2.5665E-01
516.08	2.5734E-01
516.42	2.5394E-01
516.77	2.5606E-01
517.11	2.5366E-01
517.46	2.5482E-01
517.80	2.5387E-01
518.14	2.5322E-01
518.49	2.5286E-01
518.83	2.5215E-01
519.17	2.5560E-01
519.52	2.5330E-01
519.86	2.5398E-01
520.20	2.5166E-01
520.55	2.5271E-01
520.89	2.5173E-01
521.23	2.5286E-01
521.58	2.5416E-01
521.92	2.5301E-01
522.26	2.5641E-01
522.61	2.5228E-01
522.95	2.5407E-01
523.29	2.5091E-01
523.64	2.5229E-01
523.98	2.5425E-01
524.32	2.5409E-01
524.66	2.5445E-01
525.01	2.5471E-01
525.35	2.5638E-01
525.69	2.5592E-01
526.04	2.5778E-01
526.38	2.5227E-01
526.72	2.5849E-01
527.06	2.5565E-01
527.41	2.5881E-01
527.75	2.5960E-01
528.09	2.5671E-01
528.43	2.6100E-01
528.78	2.5934E-01
529.12	2.6367E-01
529.46	2.6199E-01
529.80	2.6287E-01
530.15	2.6263E-01
530.49	2.6381E-01
530.83	2.6619E-01
531.17	2.6543E-01
531.51	2.6729E-01
531.86	2.6529E-01
532.20	2.6872E-01
532.54	2.6835E-01
532.88	2.7021E-01
533.22	2.7244E-01
533.57	2.7596E-01
533.91	2.7141E-01
534.25	2.7311E-01
534.59	2.7364E-01
534.93	2.7313E-01
535.27	2.7359E-01
535.62	2.7902E-01
535.96	2.7787E-01
536.30	2.7719E-01
536.64	2.7897E-01
536.98	2.8278E-01
537.32	2.7970E-01
537.66	2.8275E-01
538.01	2.8215E-01
538.35	2.8551E-01
538.69	2.8425E-01
539.03	2.8824E-01
539.37	2.8656E-01
539.71	2.8846E-01
540.05	2.8734E-01
540.39	2.8764E-01
540.73	2.8883E-01
541.07	2.8810E-01
541.42	2.8814E-01
541.76	2.8976E-01
542.10	2.9185E-01
542.44	2.9209E-01
542.78	2.9507E-01
543.12	2.8964E-01
543.46	2.9595E-01
543.80	2.9128E-01
544.14	2.9319E-01
544.48	2.9127E-01
544.82	2.9596E-01
545.16	2.9486E-01
545.50	2.9445E-01
545.84	2.9902E-01
546.18	2.9572E-01
546.52	2.9711E-01
546.86	2.9586E-01
547.20	3.0119E-01
547.54	3.0336E-01
547.88	2.9882E-01
548.22	2.9948E-01
548.56	3.0233E-01
548.90	3.0230E-01
549.24	3.0225E-01
549.58	3.0313E-01
549.92	3.0347E-01
550.26	3.0449E-01
550.60	3.0358E-01
550.94	3.0227E-01
551.28	3.0692E-01
551.62	3.0310E-01
551.96	3.0531E-01
552.30	3.0694E-01
552.64	3.0673E-01
552.98	3.0670E-01
553.32	3.0743E-01
553.66	3.0748E-01
554.00	3.0416E-01
554.34	3.0664E-01
554.68	3.0664E-01
555.02	3.0538E-01
555.36	3.0927E-01
555.69	3.1059E-01
556.03	3.0652E-01
556.37	3.0926E-01
556.71	3.0692E-01
557.05	3.0692E-01
557.39	3.0919E-01
557.73	3.0694E-01
558.07	3.0932E-01
558.41	3.0917E-01
558.75	3.1032E-01
559.08	3.0884E-01
559.42	3.0773E-01
559.76	3.1011E-01
560.10	3.1094E-01
560.44	3.1105E-01
560.78	3.0736E-01
561.12	3.1192E-01
561.45	3.1211E-01
561.79	3.1036E-01
562.13	3.0955E-01
562.47	3.1023E-01
562.81	3.1193E-01
563.15	3.1254E-01
563.48	3.1276E-01
563.82	3.0885E-01
564.16	3.1153E-01
564.50	3.1416E-01
564.84	3.1035E-01
565.17	3.1098E-01
565.51	3.0953E-01
565.85	3.1348E-01
566.19	3.0973E-01
566.52	3.1386E-01
566.86	3.1144E-01
567.20	3.1579E-01
567.54	3.1437E-01
567.88	3.1440E-01
568.21	3.1534E-01
568.55	3.1422E-01
568.89	3.1494E-01
569.23	3.1525E-01
569.56	3.1418E-01
569.90	3.1471E-01
570.24	3.1816E-01
570.57	3.1569E-01
570.91	3.1761E-01
571.25	3.1617E-01
571.59	3.1698E-01
571.92	3.1748E-01
572.26	3.1812E-01
572.60	3.1994E-01
572.93	3.1823E-01
573.27	3.2371E-01
573.61	3.2335E-01
573.95	3.1593E-01
574.28	3.2394E-01
574.62	3.2358E-01
574.96	3.2628E-01
575.29	3.2519E-01
575.63	3.2878E-01
575.97	3.2716E-01
576.30	3.3193E-01
576.64	3.2829E-01
576.98	3.3105E-01
577.31	3.3246E-01
577.65	3.3511E-01
577.98	3.2957E-01
578.32	3.3656E-01
578.66	3.3920E-01
578.99	3.3744E-01
579.33	3.4035E-01
579.67	3.3918E-01
580.00	3.4051E-01
580.34	3.4060E-01
580.67	3.4353E-01
581.01	3.4243E-01
581.35	3.4449E-01
581.68	3.4568E-01
582.02	3.4741E-01
582.35	3.4605E-01
582.69	3.4864E-01
583.02	3.5391E-01
583.36	3.5372E-01
583.70	3.5275E-01
584.03	3.5347E-01
584.37	3.5325E-01
584.70	3.5633E-01
585.04	3.5946E-01
585.37	3.5753E-01
585.71	3.6205E-01
586.04	3.6137E-01
586.38	3.5908E-01
586.72	3.6686E-01
587.05	3.6197E-01
587.39	3.6536E-01
587.72	3.6311E-01
588.06	3.6858E-01
588.39	3.6343E-01
588.73	3.7082E-01
589.06	3.6896E-01
589.40	3.7227E-01
589.73	3.7477E-01
590.07	3.7468E-01
590.40	3.7663E-01
590.73	3.7911E-01
591.07	3.7760E-01
591.40	3.8054E-01
591.74	3.7466E-01
592.07	3.8099E-01
592.41	3.8250E-01
592.74	3.8356E-01
593.08	3.7982E-01
593.41	3.8257E-01
593.75	3.8483E-01
594.08	3.8891E-01
594.41	3.8757E-01
594.75	3.8949E-01
595.08	3.8750E-01
595.42	3.8444E-01
595.75	3.8701E-01
596.09	3.9089E-01
596.42	3.8869E-01
596.75	3.8985E-01
597.09	3.9552E-01
597.42	3.8803E-01
597.75	3.9704E-01
598.09	3.9567E-01
598.42	3.9334E-01
598.76	3.9309E-01
599.09	3.9724E-01
599.42	3.9854E-01
599.76	3.9658E-01
600.09	3.9868E-01
600.42	4.0242E-01
600.76	3.9340E-01
601.09	3.9662E-01
601.42	4.0595E-01
601.76	4.0271E-01
602.09	4.0111E-01
602.42	4.0004E-01
602.76	4.0005E-01
603.09	4.0081E-01
603.42	4.0379E-01
603.76	4.0115E-01
604.09	4.0317E-01
604.42	4.0303E-01
604.76	4.0075E-01
605.09	4.0600E-01
605.42	4.0250E-01
605.75	4.0499E-01
606.09	4.0724E-01
606.42	4.0645E-01
606.75	4.0943E-01
607.09	4.0644E-01
607.42	4.0546E-01
607.75	4.0702E-01
608.08	4.0796E-01
608.42	4.1080E-01
608.75	4.0828E-01
609.08	4.1171E-01
609.41	4.0966E-01
609.75	4.0776E-01
610.08	4.1147E-01
610.41	4.1151E-01
610.74	4.1199E-01
611.07	4.1257E-01
611.41	4.0760E-01
611.74	4.1186E-01
612.07	4.1075E-01
612.40	4.0827E-01
612.73	4.1228E-01
613.07	4.1729E-01
613.40	4.1126E-01
613.73	4.1058E-01
614.06	4.1474E-01
614.39	4.1250E-01
614.72	4.1708E-01
615.06	4.1518E-01
615.39	4.1949E-01
615.72	4.1534E-01
616.05	4.2037E-01
616.38	4.2076E-01
616.71	4.1836E-01
617.05	4.1600E-01
617.38	4.2066E-01
617.71	4.1995E-01
618.04	4.1935E-01
618.37	4.1542E-01
618.70	4.1915E-01
619.03	4.1950E-01
619.36	4.1289E-01
619.69	4.2116E-01
620.03	4.1813E-01
620.36	4.1852E-01
620.69	4.1803E-01
621.02	4.1684E-01
621.35	4.1736E-01
621.68	4.1549E-01
622.01	4.1833E-01
622.34	4.1743E-01
622.67	4.1775E-01
623.00	4.1737E-01
623.33	4.1597E-01
623.66	4.1805E-01
623.99	4.1959E-01
624.32	4.1328E-01
624.65	4.1582E-01
624.99	4.1622E-01
625.32	4.2081E-01
625.65	4.1799E-01
625.98	4.1391E-01
626.31	4.1684E-01
626.64	4.2070E-01
626.97	4.1876E-01
627.30	4.1496E-01
627.63	4.1416E-01
627.96	4.1342E-01
628.29	4.1493E-01
628.62	4.1782E-01
628.95	4.1756E-01
629.28	4.1325E-01
629.61	4.2292E-01
629.94	4.1965E-01
630.26	4.2145E-01
630.59	4.2187E-01
630.92	4.2039E-01
631.25	4.1960E-01
631.58	4.2794E-01
631.91	4.2200E-01
632.24	4.2686E-01
632.57	4.2578E-01
632.90	4.2733E-01
633.23	4.2509E-01
633.56	4.2801E-01
633.89	4.2799E-01
634.22	4.2975E-01
634.55	4.3044E-01
634.88	4.3338E-01
635.20	4.3481E-01
635.53	4.3950E-01
635.86	4.3613E-01
636.19	4.4237E-01
636.52	4.4247E-01
636.85	4.4305E-01
637.18	4.4699E-01
637.51	4.4617E-01
637.83	4.4970E-01
638.16	4.4809E-01
638.49	4.5567E-01
638.82	4.5023E-01
639.15	4.5815E-01
639.48	4.5776E-01
639.81	4.6489E-01
640.13	4.5985E-01
640.46	4.6846E-01
640.79	4.6522E-01
641.12	4.7074E-01
641.45	4.6684E-01
641.77	4.6720E-01
642.10	4.7898E-01
642.43	4.8065E-01
642.76	4.8443E-01
643.09	4.7939E-01
643.41	4.8350E-01
643.74	4.8357E-01
644.07	4.8648E-01
644.40	4.8595E-01
644.73	4.9351E-01
645.05	4.9359E-01
645.38	4.9249E-01
645.71	5.0007E-01
646.04	4.9885E-01
646.36	4.9864E-01
646.69	5.0758E-01
647.02	5.0920E-01
647.35	5.0398E-01
647.67	5.1221E-01
648.00	5.0999E-01
648.33	5.1460E-01
648.66	5.1210E-01
648.98	5.1907E-01
649.31	5.1613E-01
649.64	5.1832E-01
649.96	5.2242E-01
650.29	5.3000E-01
650.62	5.2564E-01
650.94	5.2625E-01
651.27	5.2946E-01
651.60	5.2616E-01
651.92	5.3769E-01
652.25	5.4059E-01
652.58	5.3886E-01
652.90	5.3831E-01
653.23	5.3907E-01
653.56	5.4234E-01
653.88	5.4606E-01
654.21	5.4442E-01
654.54	5.4831E-01
654.86	5.5423E-01
655.19	5.5109E-01
655.52	5.5676E-01
655.84	5.5118E-01
656.17	5.5866E-01
656.49	5.5838E-01
656.82	5.5557E-01
657.15	5.6173E-01
657.47	5.6334E-01
657.80	5.6570E-01
658.13	5.6423E-01
658.45	5.6727E-01
658.78	5.6793E-01
659.10	5.7256E-01
659.43	5.6996E-01
659.75	5.7236E-01
660.08	5.7073E-01
660.41	5.8235E-01
660.73	5.7863E-01
661.06	5.7866E-01
661.38	5.8201E-01
661.71	5.8568E-01
662.03	5.8200E-01
662.36	5.8981E-01
662.68	5.8614E-01
663.01	5.8129E-01
663.33	5.8955E-01
663.66	5.9191E-01
663.98	5.9060E-01
664.31	5.9184E-01
664.63	6.0444E-01
664.96	5.8962E-01
665.28	5.9730E-01
665.61	5.9889E-01
665.93	5.9968E-01
666.26	5.9872E-01
666.58	6.0390E-01
666.91	6.0507E-01
667.23	6.1155E-01
667.56	6.0549E-01
667.88	6.0873E-01
668.21	6.1279E-01
668.53	6.0981E-01
668.86	6.1719E-01
669.18	6.1274E-01
669.50	6.2134E-01
669.83	6.1510E-01
670.15	6.2036E-01
670.48	6.2158E-01
670.80	6.1992E-01
671.13	6.2042E-01
671.45	6.2452E-01
671.77	6.2415E-01
672.10	6.2150E-01
672.42	6.3739E-01
672.75	6.3037E-01
673.07	6.3464E-01
673.39	6.2888E-01
673.72	6.3296E-01
674.04	6.3782E-01
674.37	6.3763E-01
674.69	6.3624E-01
675.01	6.4050E-01
675.34	6.4629E-01
675.66	6.4508E-01
675.98	6.4004E-01
676.31	6.4958E-01
676.63	6.4678E-01
676.95	6.4860E-01
677.28	6.5607E-01
677.60	6.5689E-01
677.92	6.5107E-01
678.25	6.5937E-01
678.57	6.6020E-01
678.89	6.5620E-01
679.22	6.6644E-01
679.54	6.6355E-01
679.86	6.6554E-01
680.18	6.7072E-01
680.51	6.6320E-01
680.83	6.7949E-01
681.15	6.7085E-01
681.48	6.7503E-01
681.80	6.7493E-01
682.12	6.7232E-01
682.44	6.8514E-01
682.77	6.8730E-01
683.09	6.9080E-01
683.41	6.8450E-01
683.73	6.9343E-01
684.06	6.9000E-01
684.38	6.9256E-01
684.70	6.9616E-01
685.02	6.9783E-01
685.34	7.0420E-01
685.67	7.0038E-01
685.99	7.1531E-01
686.31	7.0507E-01
686.63	7.1402E-01
686.96	7.1863E-01
687.28	7.2241E-01
687.60	7.1006E-01
687.92	7.1782E-01
688.24	7.2672E-01
688.56	7.3347E-01
688.89	7.2623E-01
689.21	7.3566E-01
689.53	7.3147E-01
689.85	7.4018E-01
690.17	7.3562E-01
690.49	7.4889E-01
690.82	7.4834E-01
691.14	7.4747E-01
691.46	7.5133E-01
691.78	7.5503E-01
692.10	7.5172E-01
692.42	7.6252E-01
692.74	7.6751E-01
693.06	7.6478E-01
693.39	7.7495E-01
693.71	7.7976E-01
694.03	7.8028E-01
694.35	7.8468E-01
694.67	7.8475E-01
694.99	7.9761E-01
695.31	7.9154E-01
695.63	7.9644E-01
695.95	8.0310E-01
696.27	8.0328E-01
696.59	8.0521E-01
696.91	8.1367E-01
697.23	8.1930E-01
697.56	8.1989E-01
697.88	8.1867E-01
698.20	8.2399E-01
698.52	8.2894E-01
698.84	8.3646E-01
699.16	8.3954E-01
699.48	8.3585E-01
699.80	8.4397E-01
700.12	8.5357E-01
700.44	8.5474E-01
700.76	8.5934E-01
701.08	8.6820E-01
701.40	8.6497E-01
701.72	8.7093E-01
702.04	8.7297E-01
702.36	8.8192E-01
702.68	8.8743E-01
703.00	8.9052E-01
703.32	8.9504E-01
703.64	9.0254E-01
703.96	8.9278E-01
704.28	8.9875E-01
704.60	9.0562E-01
704.91	9.1523E-01
705.23	9.1330E-01
705.55	9.2808E-01
705.87	9.2463E-01
706.19	9.2479E-01
706.51	9.3172E-01
706.83	9.3526E-01
707.15	9.5402E-01
707.47	9.4604E-01
707.79	9.5999E-01
708.11	9.5699E-01
708.43	9.6449E-01
708.74	9.7102E-01
709.06	9.7984E-01
709.38	9.7823E-01
709.70	9.8068E-01
710.02	9.9055E-01
710.34	9.8473E-01
710.66	1.0017E00
710.98	1.0084E00
711.29	1.0111E00
711.61	1.0223E00
711.93	1.0235E00
712.25	1.0198E00
712.57	1.0330E00
712.89	1.0423E00
713.20	1.0399E00
713.52	1.0445E00
713.84	1.0639E00
714.16	1.0541E00
714.48	1.0536E00
714.80	1.0748E00
715.11	1.0730E00
715.43	1.0815E00
715.75	1.0811E00
716.07	1.1095E00
716.39	1.0805E00
716.70	1.0974E00
717.02	1.0905E00
717.34	1.1148E00
717.66	1.1135E00
717.97	1.1156E00
718.29	1.1301E00
718.61	1.1338E00
718.93	1.1501E00
719.24	1.1483E00
719.56	1.1546E00
719.88	1.1683E00
720.20	1.1774E00
720.51	1.1871E00
720.83	1.1805E00
721.15	1.2087E00
721.46	1.2025E00
721.78	1.2148E00
722.10	1.2299E00
722.42	1.2301E00
722.73	1.2429E00
723.05	1.2407E00
723.37	1.2521E00
723.68	1.2808E00
724.00	1.2640E00
724.32	1.2858E00
724.63	1.2733E00
724.95	1.2830E00
725.27	1.2888E00
725.58	1.2940E00
725.90	1.2891E00
726.22	1.3112E00
726.53	1.3006E00
726.85	1.3084E00
727.16	1.3177E00
727.48	1.3214E00
727.80	1.3258E00
728.11	1.3377E00
728.43	1.3238E00
728.74	1.3245E00
729.06	1.3534E00
729.38	1.3497E00
729.69	1.3522E00
730.01	1.3619E00
730.32	1.3735E00
730.64	1.3711E00
730.96	1.3536E00
731.27	1.3906E00
731.59	1.3696E00
731.90	1.3668E00
732.22	1.3797E00
732.53	1.3960E00
732.85	1.4124E00
733.16	1.4003E00
733.48	1.3934E00
733.80	1.3893E00
734.11	1.4168E00
734.43	1.4400E00
734.74	1.4250E00
735.06	1.4398E00
735.37	1.4355E00
735.69	1.4408E00
736.00	1.4486E00
736.32	1.4466E00
736.63	1.4622E00
736.95	1.4710E00
737.26	1.4889E00
737.58	1.4779E00
737.89	1.4838E00
738.21	1.4769E00
738.52	1.4890E00
738.83	1.5104E00
739.15	1.4936E00
739.46	1.5193E00
739.78	1.5076E00
740.09	1.5164E00
740.41	1.5192E00
740.72	1.5170E00
741.04	1.5189E00
741.35	1.5286E00
741.66	1.5479E00
741.98	1.5356E00
742.29	1.5435E00
742.61	1.5553E00
742.92	1.5341E00
743.23	1.5485E00
743.55	1.5606E00
743.86	1.5496E00
744.18	1.5582E00
744.49	1.5474E00
744.80	1.5437E00
745.12	1.5454E00
745.43	1.5646E00
745.74	1.5623E00
746.06	1.5526E00
746.37	1.5530E00
746.68	1.5556E00
747.00	1.5609E00
747.31	1.5573E00
747.62	1.5470E00
747.94	1.5561E00
748.25	1.5548E00
748.56	1.5584E00
748.88	1.5492E00
749.19	1.5634E00
749.50	1.5526E00
749.82	1.5635E00
750.13	1.5593E00
750.44	1.5575E00
750.75	1.5451E00
751.07	1.5551E00
751.38	1.5760E00
751.69	1.5562E00
752.01	1.5795E00
752.32	1.5722E00
752.63	1.5578E00
752.94	1.5622E00
753.26	1.5646E00
753.57	1.5648E00
753.88	1.5816E00
754.19	1.5689E00
754.51	1.5821E00
754.82	1.5705E00
755.13	1.6018E00
755.44	1.5842E00
755.75	1.5933E00
756.07	1.6070E00
756.38	1.6145E00
756.69	1.6081E00
757.00	1.6324E00
757.31	1.6367E00
757.63	1.6391E00
757.94	1.6470E00
758.25	1.6657E00
758.56	1.6359E00
758.87	1.6748E00
759.18	1.6754E00
759.50	1.6689E00
759.81	1.6768E00
760.12	1.6987E00
760.43	1.7267E00
760.74	1.2640E00
761.05	8.5047E-01
761.36	9.1473E-01
761.67	1.1153E00
761.99	1.2514E00
762.30	1.3476E00
762.61	1.3431E00
762.92	1.3068E00
763.23	1.2853E00
763.54	1.2848E00
763.85	1.3196E00
764.16	1.3529E00
764.47	1.5444E00
764.78	1.4858E00
765.10	1.6493E00
765.41	1.6781E00
765.72	1.8215E00
766.03	1.8362E00
766.34	1.8943E00
766.65	1.9535E00
766.96	2.0035E00
767.27	2.0036E00
767.58	1.9890E00
767.89	2.0004E00
768.20	2.0422E00
768.51	2.0424E00
768.82	2.0400E00
769.13	2.0491E00
769.44	2.1027E00
769.75	2.0966E00
770.06	2.0987E00
770.37	2.1078E00
770.68	2.1386E00
770.99	2.1741E00
771.30	2.1926E00
771.61	2.2385E00
771.92	2.2174E00
772.23	2.2333E00
772.54	2.2640E00
772.85	2.2675E00
773.16	2.3027E00
773.47	2.3458E00
773.78	2.3447E00
774.09	2.3528E00
774.39	2.3758E00
774.70	2.3762E00
775.01	2.4417E00
775.32	2.4509E00
775.63	2.4588E00
775.94	2.4787E00
776.25	2.4677E00
776.56	2.5265E00
776.87	2.5746E00
777.18	2.5693E00
777.48	2.6112E00
777.79	2.6329E00
778.10	2.6572E00
778.41	2.6823E00
778.72	2.6919E00
779.03	2.6876E00
779.34	2.7486E00
779.65	2.7520E00
779.95	2.7604E00
780.26	2.8122E00
780.57	2.8086E00
780.88	2.8183E00
781.19	2.8713E00
781.50	2.8568E00
781.80	2.9171E00
782.11	2.9411E00
782.42	2.9515E00
782.73	2.9621E00
783.04	3.0406E00
783.34	3.0573E00
783.65	3.1005E00
783.96	3.0638E00
784.27	3.0943E00
784.57	3.1391E00
784.88	3.1618E00
785.19	3.2119E00
785.50	3.2172E00
785.81	3.2657E00
786.11	3.2426E00
786.42	3.3213E00
786.73	3.3947E00
787.04	3.3640E00
787.34	3.2159E00
787.65	3.0607E00
787.96	3.0626E00
788.26	3.0945E00
788.57	3.0759E00
788.88	3.0316E00
789.19	2.9736E00
789.49	3.0133E00
789.80	3.1032E00
790.11	3.0667E00
790.41	3.0473E00
790.72	3.0999E00
791.03	3.0364E00
791.33	3.0662E00
791.64	3.0277E00
791.95	3.0901E00
792.25	3.0990E00
792.56	3.1429E00
792.87	3.1907E00
793.17	3.1265E00
793.48	3.1757E00
793.79	3.2190E00
794.09	3.2131E00
794.40	3.2689E00
794.70	3.2409E00
795.01	3.3542E00
795.32	3.2695E00
795.62	3.3244E00
795.93	3.2187E00
796.23	3.2163E00
796.54	3.1791E00
796.85	3.2132E00
797.15	3.2370E00
797.46	3.2889E00
797.76	3.3011E00
798.07	3.4332E00
798.37	3.3887E00
798.68	3.4025E00
798.99	3.4414E00
799.29	3.4199E00
799.60	3.4779E00
799.90	3.3838E00
800.21	3.3603E00
800.51	3.3083E00
800.82	3.4578E00
801.12	3.3812E00
801.43	3.4822E00
801.73	3.3854E00
802.04	3.3774E00
802.34	3.3538E00
802.65	3.4397E00
802.95	3.4233E00
803.26	3.3850E00
803.56	3.4056E00
803.87	3.4132E00
804.17	3.3726E00
804.48	3.4767E00
804.78	3.4566E00
805.09	3.4095E00
805.39	3.5219E00
805.70	3.5852E00
806.00	3.5406E00
806.30	3.5797E00
806.61	3.5818E00
806.91	3.5666E00
807.22	3.5825E00
807.52	3.6847E00
807.83	3.5690E00
808.13	3.6063E00
808.43	3.6070E00
808.74	3.6162E00
809.04	3.5313E00
809.35	3.4592E00
809.65	3.5479E00
809.95	3.5157E00
810.26	3.4201E00
810.56	3.3938E00
810.86	3.4390E00
811.17	3.3713E00
811.47	3.3668E00
811.77	3.2229E00
812.08	3.2486E00
812.38	3.2382E00
812.69	3.1544E00
812.99	3.1121E00
813.29	2.9966E00
813.59	2.8888E00
813.90	2.8652E00
814.20	2.8139E00
814.50	2.7879E00
814.81	2.7002E00
815.11	2.6505E00
815.41	2.5482E00
815.72	2.5045E00
816.02	2.4147E00
816.32	2.3344E00
816.62	2.3050E00
816.93	2.3442E00
817.23	2.3166E00
817.53	2.2802E00
817.84	2.3176E00
818.14	2.2589E00
818.44	2.3276E00
818.74	2.4116E00
819.04	2.3705E00
819.35	2.3434E00
819.65	2.3511E00
819.95	2.3755E00
820.25	2.4181E00
820.56	2.5233E00
820.86	2.6041E00
821.16	2.7332E00
821.46	2.6638E00
821.76	2.6014E00
822.07	2.7331E00
822.37	2.5848E00
822.67	2.6296E00
822.97	2.4278E00
823.27	2.1707E00
823.57	2.0253E00
823.88	2.0953E00
824.18	2.1437E00
824.48	2.1358E00
824.78	2.2245E00
825.08	2.3628E00
825.38	2.3693E00
825.69	2.3076E00
825.99	2.3045E00
826.29	2.3011E00
826.59	2.3188E00
826.89	2.3224E00
827.19	2.4626E00
827.49	2.2660E00
827.79	2.1162E00
828.09	2.0792E00
828.39	2.0173E00
828.70	1.9629E00
829.00	2.0233E00
829.30	1.9183E00
829.60	1.8105E00
829.90	1.9205E00
830.20	1.7978E00
830.50	1.7416E00
830.80	1.7914E00
831.10	1.7175E00
831.40	1.7409E00
831.70	1.7281E00
832.00	1.6736E00
832.30	1.5823E00
832.60	1.5636E00
832.90	1.5445E00
833.20	1.5536E00
833.50	1.5236E00
833.80	1.5093E00
834.10	1.5135E00
834.40	1.6060E00
834.70	1.5620E00
835.00	1.4972E00
835.30	1.5018E00
835.60	1.5007E00
835.90	1.4891E00
836.20	1.5094E00
836.50	1.4868E00
836.80	1.6643E00
837.10	2.0731E00
837.40	1.5426E00
837.70	1.7289E00
838.00	1.4719E00
838.30	1.5712E00
838.60	1.5733E00
838.90	1.5405E00
839.19	1.8990E00
839.49	1.4545E00
839.79	1.5740E00
840.09	1.4681E00
840.39	1.5807E00
840.69	1.5772E00
840.99	1.7959E00
841.29	1.5587E00
841.59	1.4710E00
841.88	1.4647E00
842.18	1.5284E00
842.48	1.4676E00
842.78	1.4670E00
843.08	1.4935E00
843.38	1.4677E00
843.68	1.6828E00
843.97	1.6591E00
844.27	1.5081E00
844.57	1.4376E00
844.87	1.4537E00
845.17	1.4392E00
845.47	1.4417E00
845.76	1.5487E00
846.06	1.5777E00
846.36	2.1452E00
846.66	1.4378E00
846.96	1.5326E00
847.25	1.4514E00
847.55	1.4357E00
847.85	1.4638E00
848.15	1.4345E00
848.44	1.3878E00
848.74	1.4151E00
849.04	1.4391E00
849.34	1.5737E00
849.63	1.3763E00
849.93	1.3884E00
850.23	1.3609E00
850.53	1.3655E00
850.82	1.3838E00
851.12	1.3711E00
851.42	1.4778E00
851.71	1.4102E00
852.01	1.3635E00
852.31	1.4179E00
852.61	1.3306E00
852.90	1.3572E00
853.20	1.4812E00
853.50	1.7563E00
853.79	1.6305E00
854.09	1.3441E00
854.39	1.3121E00
854.68	1.2994E00
854.98	1.2546E00
855.28	1.3333E00
855.57	1.5579E00
855.87	1.3685E00
856.17	1.4119E00
856.46	1.2820E00
856.76	1.2829E00
857.05	1.4516E00
857.35	1.2794E00
857.65	1.6287E00
857.94	1.4695E00
858.24	1.4964E00
858.53	1.3409E00
858.83	2.0380E00
859.13	1.3903E00
859.42	1.3905E00
859.72	1.5295E00
860.01	1.3757E00
860.31	1.3575E00
860.60	1.3824E00
860.90	1.5194E00
861.20	1.3945E00
861.49	1.3350E00
861.79	1.4078E00
862.08	2.6305E00
862.38	1.7191E00
862.67	1.4020E00
862.97	1.3632E00
863.26	1.4111E00
863.56	1.5496E00
863.85	1.7926E00
864.15	1.3730E00
864.44	1.3295E00
864.74	1.3737E00
865.03	1.7755E00
865.33	1.5889E00
865.62	1.3834E00
865.92	1.3677E00
866.21	1.4170E00
866.51	1.3500E00
866.80	1.6057E00
867.10	1.7690E00
867.39	1.5151E00
867.69	1.7074E00
867.98	1.2567E00
868.27	1.3619E00
868.57	1.2930E00
868.86	1.5527E00
869.16	1.3264E00
869.45	1.3375E00
869.75	1.3692E00
870.04	1.2719E00
870.33	1.6039E00
870.63	1.3915E00
870.92	1.3744E00
871.22	2.5815E00
871.51	1.4687E00
871.80	1.6682E00
872.10	1.6682E00
>>>>>End Processed Spectral Data<<<<<
