SpectraSuite Data File
++++++++++++++++++++++++++++++++++++
Date: Tue May 12 10:05:00 PDT 2015
User: schluterlab
Dark Spectrum Present: Yes
Reference Spectrum Present: No
Number of Sampled Component Spectra: 1
Spectrometers: USB2E3373
Integration Time (usec): 2000000 (USB2E3373)
Spectra Averaged: 3 (USB2E3373)
Boxcar Smoothing: 0 (USB2E3373)
Correct for Electrical Dark: No (USB2E3373)
Strobe/Lamp Enabled: No (USB2E3373)
Correct for Detector Non-linearity: No (USB2E3373)
Correct for Stray Light: No (USB2E3373)
Number of Pixels in Processed Spectrum: 2048
>>>>>Begin Processed Spectral Data<<<<<
178.53	0.0000E00
178.91	0.0000E00
179.29	0.0000E00
179.67	0.0000E00
180.04	0.0000E00
180.42	0.0000E00
180.80	0.0000E00
181.18	0.0000E00
181.56	0.0000E00
181.94	0.0000E00
182.31	0.0000E00
182.69	0.0000E00
183.07	0.0000E00
183.45	0.0000E00
183.83	0.0000E00
184.20	0.0000E00
184.58	0.0000E00
184.96	0.0000E00
185.34	0.0000E00
185.72	0.0000E00
186.09	0.0000E00
186.47	0.0000E00
186.85	0.0000E00
187.23	0.0000E00
187.61	0.0000E00
187.98	0.0000E00
188.36	0.0000E00
188.74	0.0000E00
189.12	0.0000E00
189.49	0.0000E00
189.87	0.0000E00
190.25	0.0000E00
190.63	0.0000E00
191.00	0.0000E00
191.38	0.0000E00
191.76	0.0000E00
192.14	0.0000E00
192.51	0.0000E00
192.89	0.0000E00
193.27	0.0000E00
193.65	0.0000E00
194.02	0.0000E00
194.40	0.0000E00
194.78	0.0000E00
195.15	0.0000E00
195.53	-0.0000E00
195.91	0.0000E00
196.29	0.0000E00
196.66	0.0000E00
197.04	0.0000E00
197.42	0.0000E00
197.79	0.0000E00
198.17	0.0000E00
198.55	0.0000E00
198.92	0.0000E00
199.30	0.0000E00
199.68	0.0000E00
200.05	0.0000E00
200.43	0.0000E00
200.81	0.0000E00
201.18	0.0000E00
201.56	0.0000E00
201.94	0.0000E00
202.31	-0.0000E00
202.69	0.0000E00
203.07	0.0000E00
203.44	0.0000E00
203.82	0.0000E00
204.19	0.0000E00
204.57	0.0000E00
204.95	0.0000E00
205.32	0.0000E00
205.70	0.0000E00
206.08	0.0000E00
206.45	0.0000E00
206.83	0.0000E00
207.20	0.0000E00
207.58	0.0000E00
207.96	0.0000E00
208.33	0.0000E00
208.71	0.0000E00
209.08	0.0000E00
209.46	0.0000E00
209.84	0.0000E00
210.21	0.0000E00
210.59	0.0000E00
210.96	0.0000E00
211.34	0.0000E00
211.71	0.0000E00
212.09	0.0000E00
212.46	0.0000E00
212.84	0.0000E00
213.22	0.0000E00
213.59	0.0000E00
213.97	0.0000E00
214.34	0.0000E00
214.72	0.0000E00
215.09	0.0000E00
215.47	0.0000E00
215.84	0.0000E00
216.22	0.0000E00
216.59	0.0000E00
216.97	0.0000E00
217.34	0.0000E00
217.72	0.0000E00
218.09	0.0000E00
218.47	0.0000E00
218.84	0.0000E00
219.22	0.0000E00
219.59	0.0000E00
219.97	0.0000E00
220.34	0.0000E00
220.72	0.0000E00
221.09	0.0000E00
221.47	0.0000E00
221.84	0.0000E00
222.22	0.0000E00
222.59	0.0000E00
222.97	0.0000E00
223.34	0.0000E00
223.72	0.0000E00
224.09	0.0000E00
224.46	0.0000E00
224.84	0.0000E00
225.21	0.0000E00
225.59	0.0000E00
225.96	0.0000E00
226.34	0.0000E00
226.71	0.0000E00
227.08	0.0000E00
227.46	0.0000E00
227.83	0.0000E00
228.21	0.0000E00
228.58	0.0000E00
228.95	0.0000E00
229.33	0.0000E00
229.70	0.0000E00
230.08	0.0000E00
230.45	0.0000E00
230.82	0.0000E00
231.20	0.0000E00
231.57	0.0000E00
231.95	0.0000E00
232.32	0.0000E00
232.69	0.0000E00
233.07	0.0000E00
233.44	0.0000E00
233.81	0.0000E00
234.19	0.0000E00
234.56	0.0000E00
234.93	0.0000E00
235.31	0.0000E00
235.68	0.0000E00
236.05	0.0000E00
236.43	0.0000E00
236.80	0.0000E00
237.17	0.0000E00
237.55	0.0000E00
237.92	0.0000E00
238.29	0.0000E00
238.67	0.0000E00
239.04	0.0000E00
239.41	0.0000E00
239.79	0.0000E00
240.16	0.0000E00
240.53	0.0000E00
240.91	0.0000E00
241.28	0.0000E00
241.65	0.0000E00
242.02	0.0000E00
242.40	0.0000E00
242.77	0.0000E00
243.14	0.0000E00
243.51	0.0000E00
243.89	0.0000E00
244.26	0.0000E00
244.63	0.0000E00
245.00	0.0000E00
245.38	0.0000E00
245.75	0.0000E00
246.12	0.0000E00
246.49	0.0000E00
246.87	0.0000E00
247.24	0.0000E00
247.61	0.0000E00
247.98	0.0000E00
248.36	0.0000E00
248.73	0.0000E00
249.10	0.0000E00
249.47	0.0000E00
249.84	0.0000E00
250.22	0.0000E00
250.59	0.0000E00
250.96	0.0000E00
251.33	0.0000E00
251.70	0.0000E00
252.08	0.0000E00
252.45	0.0000E00
252.82	0.0000E00
253.19	0.0000E00
253.56	0.0000E00
253.94	0.0000E00
254.31	0.0000E00
254.68	0.0000E00
255.05	0.0000E00
255.42	0.0000E00
255.79	0.0000E00
256.16	0.0000E00
256.54	0.0000E00
256.91	0.0000E00
257.28	0.0000E00
257.65	0.0000E00
258.02	0.0000E00
258.39	0.0000E00
258.76	0.0000E00
259.14	0.0000E00
259.51	0.0000E00
259.88	0.0000E00
260.25	0.0000E00
260.62	0.0000E00
260.99	0.0000E00
261.36	0.0000E00
261.73	0.0000E00
262.10	0.0000E00
262.47	0.0000E00
262.85	0.0000E00
263.22	0.0000E00
263.59	0.0000E00
263.96	0.0000E00
264.33	0.0000E00
264.70	0.0000E00
265.07	0.0000E00
265.44	0.0000E00
265.81	0.0000E00
266.18	0.0000E00
266.55	0.0000E00
266.92	0.0000E00
267.29	0.0000E00
267.66	0.0000E00
268.03	0.0000E00
268.40	0.0000E00
268.77	0.0000E00
269.14	0.0000E00
269.51	0.0000E00
269.88	0.0000E00
270.25	0.0000E00
270.62	0.0000E00
270.99	0.0000E00
271.36	0.0000E00
271.73	0.0000E00
272.10	0.0000E00
272.47	0.0000E00
272.84	0.0000E00
273.21	0.0000E00
273.58	0.0000E00
273.95	0.0000E00
274.32	0.0000E00
274.69	0.0000E00
275.06	0.0000E00
275.43	0.0000E00
275.80	0.0000E00
276.17	0.0000E00
276.54	0.0000E00
276.91	0.0000E00
277.28	0.0000E00
277.65	0.0000E00
278.02	0.0000E00
278.39	0.0000E00
278.76	0.0000E00
279.13	0.0000E00
279.50	0.0000E00
279.87	0.0000E00
280.23	0.0000E00
280.60	0.0000E00
280.97	0.0000E00
281.34	0.0000E00
281.71	0.0000E00
282.08	0.0000E00
282.45	0.0000E00
282.82	0.0000E00
283.19	0.0000E00
283.56	0.0000E00
283.92	0.0000E00
284.29	0.0000E00
284.66	0.0000E00
285.03	0.0000E00
285.40	0.0000E00
285.77	0.0000E00
286.14	0.0000E00
286.51	0.0000E00
286.87	0.0000E00
287.24	0.0000E00
287.61	0.0000E00
287.98	0.0000E00
288.35	0.0000E00
288.72	0.0000E00
289.08	0.0000E00
289.45	0.0000E00
289.82	0.0000E00
290.19	0.0000E00
290.56	0.0000E00
290.93	0.0000E00
291.29	0.0000E00
291.66	0.0000E00
292.03	0.0000E00
292.40	0.0000E00
292.77	0.0000E00
293.13	0.0000E00
293.50	0.0000E00
293.87	0.0000E00
294.24	0.0000E00
294.60	0.0000E00
294.97	0.0000E00
295.34	0.0000E00
295.71	0.0000E00
296.08	0.0000E00
296.44	0.0000E00
296.81	0.0000E00
297.18	0.0000E00
297.55	0.0000E00
297.91	0.0000E00
298.28	0.0000E00
298.65	0.0000E00
299.02	0.0000E00
299.38	0.0000E00
299.75	0.0000E00
300.12	2.1096E-01
300.48	5.4913E-01
300.85	2.2210E-01
301.22	5.7914E-01
301.59	1.8168E-01
301.95	2.1603E-01
302.32	3.1120E-01
302.69	3.1641E-01
303.05	1.8819E-01
303.42	2.5446E-01
303.79	2.9144E-01
304.15	1.8554E-01
304.52	2.1123E-01
304.89	1.9897E-01
305.25	3.9789E-01
305.62	2.5172E-01
305.99	3.1029E-01
306.35	1.8217E-01
306.72	2.4809E-01
307.09	2.2898E-01
307.45	2.2654E-01
307.82	1.6001E-01
308.19	2.0103E-01
308.55	2.2869E-01
308.92	2.7232E-01
309.29	2.2074E-01
309.65	3.2518E-01
310.02	2.0595E-01
310.38	2.1509E-01
310.75	2.8400E-01
311.12	2.7525E-01
311.48	4.7778E-01
311.85	3.1443E-01
312.22	2.2625E-01
312.58	5.0845E-01
312.95	3.1724E-01
313.31	3.0044E-01
313.68	3.9473E-01
314.05	6.5541E-01
314.41	3.6140E-01
314.78	2.2260E-01
315.14	4.4300E-01
315.51	7.6778E-01
315.87	3.3749E-01
316.24	5.0006E-01
316.61	4.6940E-01
316.97	3.2346E-01
317.34	5.5758E-01
317.70	4.3592E-01
318.07	4.5141E-01
318.43	5.3484E-01
318.80	3.9992E-01
319.16	5.1227E-01
319.53	3.6097E-01
319.89	7.3898E-01
320.26	5.8175E-01
320.62	7.1663E-01
320.99	6.3846E-01
321.35	3.7107E-01
321.72	5.0634E-01
322.08	7.9033E-01
322.45	4.9105E-01
322.81	5.1484E-01
323.18	1.6433E00
323.54	8.5997E-01
323.91	6.6190E-01
324.27	1.3644E00
324.64	1.0778E00
325.00	8.2727E-01
325.37	1.3951E00
325.73	5.3740E-01
326.10	2.0105E00
326.46	9.5607E-01
326.83	8.3835E-01
327.19	1.8049E00
327.56	7.1528E-01
327.92	1.0409E00
328.29	8.0773E-01
328.65	1.0330E00
329.01	1.2643E00
329.38	8.5351E-01
329.74	7.8458E-01
330.11	1.1965E00
330.47	7.9416E-01
330.84	1.1076E00
331.20	1.1201E00
331.56	1.0217E00
331.93	1.1804E00
332.29	1.1178E00
332.66	7.7725E-01
333.02	9.3449E-01
333.38	1.4237E00
333.75	6.6985E-01
334.11	1.1356E00
334.48	1.0602E00
334.84	9.9556E-01
335.20	1.2523E00
335.57	2.3363E00
335.93	1.5504E00
336.29	1.1823E00
336.66	1.1184E00
337.02	7.9618E-01
337.38	9.5464E-01
337.75	9.7308E-01
338.11	8.4637E-01
338.47	1.2273E00
338.84	1.0331E00
339.20	8.7520E-01
339.56	2.6119E00
339.93	8.5848E-01
340.29	1.0181E00
340.65	1.1155E00
341.02	1.8845E00
341.38	1.2741E00
341.74	1.3765E00
342.11	1.3660E00
342.47	1.3794E00
342.83	8.0172E-01
343.20	1.7901E00
343.56	1.0931E00
343.92	1.5451E00
344.28	9.7780E-01
344.65	1.5238E00
345.01	9.0862E-01
345.37	1.5023E00
345.73	1.3909E00
346.10	1.1916E00
346.46	1.4342E00
346.82	1.1001E00
347.19	2.5295E00
347.55	1.0442E00
347.91	1.0616E00
348.27	1.1897E00
348.63	1.0330E00
349.00	1.0302E00
349.36	2.0770E00
349.72	1.2967E00
350.08	1.8897E00
350.45	1.0782E00
350.81	1.0016E00
351.17	1.3159E00
351.53	1.4234E00
351.89	1.1615E00
352.26	1.3339E00
352.62	1.1026E00
352.98	1.2829E00
353.34	1.1333E00
353.70	1.4977E00
354.07	1.0974E00
354.43	1.0415E00
354.79	1.2243E00
355.15	9.7867E-01
355.51	9.3449E-01
355.87	1.0574E00
356.24	1.1031E00
356.60	1.0670E00
356.96	1.1556E00
357.32	1.0386E00
357.68	9.7609E-01
358.04	8.8050E-01
358.40	9.7147E-01
358.77	9.0446E-01
359.13	1.0698E00
359.49	1.1378E00
359.85	1.1062E00
360.21	8.3327E-01
360.57	1.0162E00
360.93	1.0092E00
361.29	1.0695E00
361.66	8.8857E-01
362.02	8.1893E-01
362.38	1.0678E00
362.74	9.2943E-01
363.10	9.8126E-01
363.46	1.1402E00
363.82	9.7485E-01
364.18	1.1676E00
364.54	1.1070E00
364.90	1.0544E00
365.26	1.0371E00
365.62	1.1848E00
365.98	1.0317E00
366.35	8.2716E-01
366.71	1.0010E00
367.07	1.2828E00
367.43	8.1195E-01
367.79	1.1605E00
368.15	1.0635E00
368.51	1.2608E00
368.87	1.1027E00
369.23	1.1788E00
369.59	9.2627E-01
369.95	1.0037E00
370.31	9.5728E-01
370.67	1.1330E00
371.03	9.5611E-01
371.39	9.3472E-01
371.75	9.4330E-01
372.11	9.7320E-01
372.47	8.9500E-01
372.83	9.0319E-01
373.19	7.5508E-01
373.55	9.8878E-01
373.91	1.0090E00
374.27	1.0884E00
374.63	1.0620E00
374.99	9.6433E-01
375.35	9.2654E-01
375.71	9.4386E-01
376.07	9.5275E-01
376.42	9.4218E-01
376.78	8.5455E-01
377.14	9.6922E-01
377.50	1.0590E00
377.86	9.0164E-01
378.22	8.5032E-01
378.58	8.5083E-01
378.94	8.2495E-01
379.30	8.6669E-01
379.66	8.5446E-01
380.02	8.3534E-01
380.38	8.1223E-01
380.74	8.5131E-01
381.09	8.9278E-01
381.45	8.2339E-01
381.81	7.9738E-01
382.17	8.3980E-01
382.53	8.7311E-01
382.89	7.8133E-01
383.25	8.2179E-01
383.61	8.1270E-01
383.97	7.8899E-01
384.32	7.8634E-01
384.68	7.5108E-01
385.04	8.3395E-01
385.40	8.5865E-01
385.76	8.5556E-01
386.12	8.0501E-01
386.48	8.1748E-01
386.83	7.6343E-01
387.19	7.6136E-01
387.55	8.5157E-01
387.91	8.2305E-01
388.27	7.6956E-01
388.62	8.6505E-01
388.98	7.8382E-01
389.34	8.6983E-01
389.70	7.9008E-01
390.06	8.1530E-01
390.42	8.2212E-01
390.77	8.0182E-01
391.13	8.1853E-01
391.49	8.0275E-01
391.85	8.4719E-01
392.20	7.4869E-01
392.56	7.5930E-01
392.92	7.6959E-01
393.28	7.7262E-01
393.64	8.0760E-01
393.99	8.2242E-01
394.35	8.0886E-01
394.71	7.9932E-01
395.07	7.8252E-01
395.42	7.8598E-01
395.78	8.0046E-01
396.14	7.2259E-01
396.50	7.2512E-01
396.85	7.9657E-01
397.21	7.6797E-01
397.57	7.8795E-01
397.92	7.3723E-01
398.28	7.1413E-01
398.64	8.4878E-01
399.00	6.8473E-01
399.35	7.1258E-01
399.71	7.6420E-01
400.07	7.4475E-01
400.42	7.2754E-01
400.78	7.4529E-01
401.14	7.4977E-01
401.49	6.9471E-01
401.85	6.9032E-01
402.21	7.0106E-01
402.57	6.9714E-01
402.92	7.3532E-01
403.28	6.9902E-01
403.63	6.9576E-01
403.99	7.1202E-01
404.35	6.9065E-01
404.70	6.7781E-01
405.06	6.8874E-01
405.42	7.0446E-01
405.77	6.5476E-01
406.13	6.5388E-01
406.49	6.4995E-01
406.84	6.5753E-01
407.20	6.4173E-01
407.55	6.9267E-01
407.91	7.0500E-01
408.27	6.6007E-01
408.62	6.6413E-01
408.98	6.7208E-01
409.34	6.8415E-01
409.69	6.5482E-01
410.05	6.8982E-01
410.40	6.5879E-01
410.76	6.0876E-01
411.11	6.1419E-01
411.47	6.6596E-01
411.83	6.3147E-01
412.18	6.4358E-01
412.54	6.3125E-01
412.89	6.2638E-01
413.25	6.5025E-01
413.60	6.7868E-01
413.96	6.3690E-01
414.31	6.4013E-01
414.67	6.7611E-01
415.03	6.6288E-01
415.38	6.7891E-01
415.74	6.7077E-01
416.09	6.6641E-01
416.45	6.7569E-01
416.80	6.6194E-01
417.16	6.5650E-01
417.51	6.5327E-01
417.87	6.2890E-01
418.22	6.2113E-01
418.58	6.3499E-01
418.93	6.0817E-01
419.29	6.5193E-01
419.64	6.3292E-01
420.00	5.9807E-01
420.35	5.8725E-01
420.71	6.1633E-01
421.06	6.1899E-01
421.42	6.3478E-01
421.77	6.2535E-01
422.12	6.2390E-01
422.48	5.9086E-01
422.83	6.3141E-01
423.19	5.9665E-01
423.54	5.9706E-01
423.90	6.0429E-01
424.25	5.7046E-01
424.61	6.2888E-01
424.96	5.8857E-01
425.31	5.8548E-01
425.67	5.6142E-01
426.02	5.8622E-01
426.38	5.8606E-01
426.73	5.5444E-01
427.09	5.8118E-01
427.44	5.5654E-01
427.79	5.6309E-01
428.15	5.7991E-01
428.50	5.7565E-01
428.85	5.9060E-01
429.21	5.4462E-01
429.56	5.3225E-01
429.92	5.4351E-01
430.27	5.6141E-01
430.62	5.6075E-01
430.98	5.6804E-01
431.33	5.5489E-01
431.68	5.3605E-01
432.04	5.3211E-01
432.39	5.3997E-01
432.74	5.6036E-01
433.10	5.2465E-01
433.45	5.5518E-01
433.80	5.5216E-01
434.16	5.6436E-01
434.51	5.3784E-01
434.86	5.5951E-01
435.22	5.3949E-01
435.57	5.7634E-01
435.92	5.6566E-01
436.28	5.6280E-01
436.63	5.2155E-01
436.98	5.5806E-01
437.34	5.5372E-01
437.69	5.2687E-01
438.04	5.1270E-01
438.39	5.4839E-01
438.75	5.6173E-01
439.10	5.0667E-01
439.45	5.5015E-01
439.81	5.4452E-01
440.16	5.1220E-01
440.51	5.3479E-01
440.86	5.3302E-01
441.22	5.2139E-01
441.57	5.2585E-01
441.92	5.1084E-01
442.27	5.3578E-01
442.63	5.2488E-01
442.98	5.6047E-01
443.33	5.4866E-01
443.68	5.1033E-01
444.03	4.8143E-01
444.39	4.8372E-01
444.74	5.2539E-01
445.09	5.3317E-01
445.44	5.3413E-01
445.79	4.7153E-01
446.15	5.0660E-01
446.50	5.2331E-01
446.85	4.9213E-01
447.20	4.7903E-01
447.55	5.1730E-01
447.91	4.9813E-01
448.26	5.1110E-01
448.61	5.0611E-01
448.96	4.9567E-01
449.31	5.0351E-01
449.66	5.0830E-01
450.02	5.0008E-01
450.37	5.0103E-01
450.72	4.9415E-01
451.07	5.3257E-01
451.42	5.2923E-01
451.77	4.9997E-01
452.12	4.9951E-01
452.47	5.2264E-01
452.83	4.8081E-01
453.18	5.0863E-01
453.53	5.0284E-01
453.88	4.7350E-01
454.23	4.6755E-01
454.58	4.6752E-01
454.93	5.0199E-01
455.28	4.9921E-01
455.63	4.8452E-01
455.98	4.7325E-01
456.34	4.9861E-01
456.69	4.8368E-01
457.04	4.8705E-01
457.39	4.5719E-01
457.74	4.6679E-01
458.09	4.5432E-01
458.44	4.5361E-01
458.79	4.4356E-01
459.14	4.5878E-01
459.49	4.7753E-01
459.84	4.5132E-01
460.19	4.7987E-01
460.54	4.7689E-01
460.89	4.3959E-01
461.24	4.8134E-01
461.59	4.6005E-01
461.94	4.6643E-01
462.29	4.3608E-01
462.64	4.6118E-01
462.99	4.6575E-01
463.34	4.9261E-01
463.69	4.6145E-01
464.04	4.3069E-01
464.39	4.4730E-01
464.74	4.5353E-01
465.09	4.6547E-01
465.44	4.3874E-01
465.79	4.5286E-01
466.14	4.5460E-01
466.49	4.4717E-01
466.84	4.4283E-01
467.19	4.5852E-01
467.54	4.5952E-01
467.89	4.3760E-01
468.24	4.1492E-01
468.59	4.2849E-01
468.94	4.1969E-01
469.29	4.2174E-01
469.64	4.3629E-01
469.99	4.2043E-01
470.34	4.0674E-01
470.68	4.3320E-01
471.03	4.1803E-01
471.38	4.1919E-01
471.73	3.9933E-01
472.08	3.9423E-01
472.43	3.8073E-01
472.78	4.0209E-01
473.13	3.9752E-01
473.48	3.9108E-01
473.83	3.8329E-01
474.17	3.8882E-01
474.52	3.8468E-01
474.87	3.6876E-01
475.22	3.7682E-01
475.57	3.5838E-01
475.92	3.4950E-01
476.27	3.5974E-01
476.61	3.5025E-01
476.96	3.4141E-01
477.31	3.3059E-01
477.66	3.3729E-01
478.01	3.3499E-01
478.36	3.3313E-01
478.70	3.2859E-01
479.05	3.3376E-01
479.40	3.1840E-01
479.75	3.1501E-01
480.10	3.1690E-01
480.45	3.0946E-01
480.79	3.0812E-01
481.14	3.1227E-01
481.49	3.0475E-01
481.84	2.9949E-01
482.19	2.9708E-01
482.53	2.9659E-01
482.88	2.9406E-01
483.23	2.8916E-01
483.58	2.8309E-01
483.92	2.9020E-01
484.27	2.8098E-01
484.62	2.7933E-01
484.97	2.7328E-01
485.31	2.7193E-01
485.66	2.7796E-01
486.01	2.7791E-01
486.36	2.6477E-01
486.70	2.7216E-01
487.05	2.7009E-01
487.40	2.7041E-01
487.75	2.6244E-01
488.09	2.6268E-01
488.44	2.6494E-01
488.79	2.6139E-01
489.13	2.5818E-01
489.48	2.6115E-01
489.83	2.6179E-01
490.17	2.5464E-01
490.52	2.5471E-01
490.87	2.5582E-01
491.22	2.5956E-01
491.56	2.5560E-01
491.91	2.5942E-01
492.26	2.5621E-01
492.60	2.5630E-01
492.95	2.5858E-01
493.30	2.5810E-01
493.64	2.5504E-01
493.99	2.5620E-01
494.34	2.5308E-01
494.68	2.5040E-01
495.03	2.5677E-01
495.37	2.5425E-01
495.72	2.5704E-01
496.07	2.5124E-01
496.41	2.5307E-01
496.76	2.5112E-01
497.11	2.5368E-01
497.45	2.5241E-01
497.80	2.5299E-01
498.14	2.5291E-01
498.49	2.5323E-01
498.84	2.5381E-01
499.18	2.5353E-01
499.53	2.5341E-01
499.87	2.5093E-01
500.22	2.5395E-01
500.56	2.5361E-01
500.91	2.5306E-01
501.26	2.5271E-01
501.60	2.5249E-01
501.95	2.5044E-01
502.29	2.5363E-01
502.64	2.4907E-01
502.98	2.5299E-01
503.33	2.5088E-01
503.67	2.5136E-01
504.02	2.5091E-01
504.36	2.5035E-01
504.71	2.5150E-01
505.06	2.4875E-01
505.40	2.4893E-01
505.75	2.5037E-01
506.09	2.5054E-01
506.44	2.5021E-01
506.78	2.4777E-01
507.13	2.4909E-01
507.47	2.4718E-01
507.82	2.4703E-01
508.16	2.4949E-01
508.51	2.4733E-01
508.85	2.4422E-01
509.19	2.4735E-01
509.54	2.4708E-01
509.88	2.4738E-01
510.23	2.4370E-01
510.57	2.4483E-01
510.92	2.4400E-01
511.26	2.4431E-01
511.61	2.4442E-01
511.95	2.4457E-01
512.30	2.4293E-01
512.64	2.4466E-01
512.98	2.4039E-01
513.33	2.4200E-01
513.67	2.4272E-01
514.02	2.4187E-01
514.36	2.3973E-01
514.70	2.4115E-01
515.05	2.3863E-01
515.39	2.4054E-01
515.74	2.3819E-01
516.08	2.3701E-01
516.42	2.3904E-01
516.77	2.3948E-01
517.11	2.3965E-01
517.46	2.4094E-01
517.80	2.3729E-01
518.14	2.3897E-01
518.49	2.3687E-01
518.83	2.3756E-01
519.17	2.3752E-01
519.52	2.3813E-01
519.86	2.3698E-01
520.20	2.3587E-01
520.55	2.3657E-01
520.89	2.3512E-01
521.23	2.3768E-01
521.58	2.3707E-01
521.92	2.3901E-01
522.26	2.4025E-01
522.61	2.3643E-01
522.95	2.3831E-01
523.29	2.3484E-01
523.64	2.3516E-01
523.98	2.3620E-01
524.32	2.3703E-01
524.66	2.3902E-01
525.01	2.3896E-01
525.35	2.3981E-01
525.69	2.4037E-01
526.04	2.3962E-01
526.38	2.3617E-01
526.72	2.4115E-01
527.06	2.3954E-01
527.41	2.4142E-01
527.75	2.4336E-01
528.09	2.4178E-01
528.43	2.4540E-01
528.78	2.4258E-01
529.12	2.4504E-01
529.46	2.4674E-01
529.80	2.4603E-01
530.15	2.4681E-01
530.49	2.4683E-01
530.83	2.4817E-01
531.17	2.4829E-01
531.51	2.4749E-01
531.86	2.4944E-01
532.20	2.5049E-01
532.54	2.4996E-01
532.88	2.5161E-01
533.22	2.5359E-01
533.57	2.5502E-01
533.91	2.5440E-01
534.25	2.5658E-01
534.59	2.5523E-01
534.93	2.5738E-01
535.27	2.5624E-01
535.62	2.6081E-01
535.96	2.5967E-01
536.30	2.6065E-01
536.64	2.6075E-01
536.98	2.6317E-01
537.32	2.6224E-01
537.66	2.6250E-01
538.01	2.6522E-01
538.35	2.6713E-01
538.69	2.6418E-01
539.03	2.7048E-01
539.37	2.6774E-01
539.71	2.6980E-01
540.05	2.7015E-01
540.39	2.7110E-01
540.73	2.6986E-01
541.07	2.7080E-01
541.42	2.7150E-01
541.76	2.7154E-01
542.10	2.7325E-01
542.44	2.7437E-01
542.78	2.7448E-01
543.12	2.7374E-01
543.46	2.7974E-01
543.80	2.7608E-01
544.14	2.7607E-01
544.48	2.7491E-01
544.82	2.7813E-01
545.16	2.7841E-01
545.50	2.7696E-01
545.84	2.7952E-01
546.18	2.7775E-01
546.52	2.8086E-01
546.86	2.7856E-01
547.20	2.8245E-01
547.54	2.8567E-01
547.88	2.8058E-01
548.22	2.8129E-01
548.56	2.8278E-01
548.90	2.8085E-01
549.24	2.8338E-01
549.58	2.8402E-01
549.92	2.8208E-01
550.26	2.8687E-01
550.60	2.8297E-01
550.94	2.8165E-01
551.28	2.8548E-01
551.62	2.8345E-01
551.96	2.8621E-01
552.30	2.8742E-01
552.64	2.8639E-01
552.98	2.8633E-01
553.32	2.8684E-01
553.66	2.8542E-01
554.00	2.8605E-01
554.34	2.8695E-01
554.68	2.8812E-01
555.02	2.8822E-01
555.36	2.8938E-01
555.69	2.8810E-01
556.03	2.8786E-01
556.37	2.8927E-01
556.71	2.8662E-01
557.05	2.8611E-01
557.39	2.8698E-01
557.73	2.8743E-01
558.07	2.8967E-01
558.41	2.8830E-01
558.75	2.8881E-01
559.08	2.8901E-01
559.42	2.8623E-01
559.76	2.9058E-01
560.10	2.9044E-01
560.44	2.9016E-01
560.78	2.8740E-01
561.12	2.8917E-01
561.45	2.8889E-01
561.79	2.9036E-01
562.13	2.9023E-01
562.47	2.9009E-01
562.81	2.9018E-01
563.15	2.9021E-01
563.48	2.9088E-01
563.82	2.8724E-01
564.16	2.8986E-01
564.50	2.9004E-01
564.84	2.9107E-01
565.17	2.9115E-01
565.51	2.9040E-01
565.85	2.9298E-01
566.19	2.8942E-01
566.52	2.9311E-01
566.86	2.8969E-01
567.20	2.9257E-01
567.54	2.9172E-01
567.88	2.9228E-01
568.21	2.9207E-01
568.55	2.9343E-01
568.89	2.9346E-01
569.23	2.9329E-01
569.56	2.9266E-01
569.90	2.9417E-01
570.24	2.9610E-01
570.57	2.9587E-01
570.91	2.9622E-01
571.25	2.9219E-01
571.59	2.9579E-01
571.92	2.9559E-01
572.26	2.9651E-01
572.60	2.9914E-01
572.93	2.9741E-01
573.27	3.0043E-01
573.61	3.0107E-01
573.95	2.9630E-01
574.28	3.0125E-01
574.62	3.0158E-01
574.96	3.0186E-01
575.29	3.0106E-01
575.63	3.0569E-01
575.97	3.0490E-01
576.30	3.1178E-01
576.64	3.0804E-01
576.98	3.0726E-01
577.31	3.0904E-01
577.65	3.1214E-01
577.98	3.1015E-01
578.32	3.1242E-01
578.66	3.1440E-01
578.99	3.1522E-01
579.33	3.1643E-01
579.67	3.1381E-01
580.00	3.1789E-01
580.34	3.1707E-01
580.67	3.1891E-01
581.01	3.2159E-01
581.35	3.2253E-01
581.68	3.2389E-01
582.02	3.2271E-01
582.35	3.2543E-01
582.69	3.2536E-01
583.02	3.3023E-01
583.36	3.2694E-01
583.70	3.2628E-01
584.03	3.2905E-01
584.37	3.2710E-01
584.70	3.3366E-01
585.04	3.3389E-01
585.37	3.3201E-01
585.71	3.3700E-01
586.04	3.3603E-01
586.38	3.3352E-01
586.72	3.3810E-01
587.05	3.4008E-01
587.39	3.4133E-01
587.72	3.3900E-01
588.06	3.4189E-01
588.39	3.4153E-01
588.73	3.4488E-01
589.06	3.4222E-01
589.40	3.4762E-01
589.73	3.4933E-01
590.07	3.5022E-01
590.40	3.5056E-01
590.73	3.5462E-01
591.07	3.5105E-01
591.40	3.5860E-01
591.74	3.5072E-01
592.07	3.5531E-01
592.41	3.5691E-01
592.74	3.5818E-01
593.08	3.5578E-01
593.41	3.5844E-01
593.75	3.5586E-01
594.08	3.6121E-01
594.41	3.5939E-01
594.75	3.6045E-01
595.08	3.6062E-01
595.42	3.5681E-01
595.75	3.6234E-01
596.09	3.6199E-01
596.42	3.6014E-01
596.75	3.6476E-01
597.09	3.6644E-01
597.42	3.6299E-01
597.75	3.6732E-01
598.09	3.6828E-01
598.42	3.6545E-01
598.76	3.6744E-01
599.09	3.7230E-01
599.42	3.7219E-01
599.76	3.7036E-01
600.09	3.6922E-01
600.42	3.7487E-01
600.76	3.6772E-01
601.09	3.7216E-01
601.42	3.7591E-01
601.76	3.7146E-01
602.09	3.7049E-01
602.42	3.7309E-01
602.76	3.7134E-01
603.09	3.7095E-01
603.42	3.7757E-01
603.76	3.7326E-01
604.09	3.7328E-01
604.42	3.7642E-01
604.76	3.7310E-01
605.09	3.7893E-01
605.42	3.7551E-01
605.75	3.7739E-01
606.09	3.7539E-01
606.42	3.7653E-01
606.75	3.7842E-01
607.09	3.7898E-01
607.42	3.7934E-01
607.75	3.7969E-01
608.08	3.7862E-01
608.42	3.8199E-01
608.75	3.7730E-01
609.08	3.8185E-01
609.41	3.8176E-01
609.75	3.7967E-01
610.08	3.8152E-01
610.41	3.8382E-01
610.74	3.8293E-01
611.07	3.8307E-01
611.41	3.8254E-01
611.74	3.8369E-01
612.07	3.8606E-01
612.40	3.8056E-01
612.73	3.8465E-01
613.07	3.8648E-01
613.40	3.8232E-01
613.73	3.8109E-01
614.06	3.8473E-01
614.39	3.8580E-01
614.72	3.8727E-01
615.06	3.8668E-01
615.39	3.9141E-01
615.72	3.8512E-01
616.05	3.8847E-01
616.38	3.8973E-01
616.71	3.9071E-01
617.05	3.8813E-01
617.38	3.9082E-01
617.71	3.8834E-01
618.04	3.9004E-01
618.37	3.8797E-01
618.70	3.8942E-01
619.03	3.9049E-01
619.36	3.8452E-01
619.69	3.9273E-01
620.03	3.8849E-01
620.36	3.8954E-01
620.69	3.8712E-01
621.02	3.9067E-01
621.35	3.8973E-01
621.68	3.8554E-01
622.01	3.8517E-01
622.34	3.8700E-01
622.67	3.8609E-01
623.00	3.8771E-01
623.33	3.8839E-01
623.66	3.8551E-01
623.99	3.8628E-01
624.32	3.8559E-01
624.65	3.8658E-01
624.99	3.8637E-01
625.32	3.8785E-01
625.65	3.8691E-01
625.98	3.8132E-01
626.31	3.8640E-01
626.64	3.8711E-01
626.97	3.8759E-01
627.30	3.8498E-01
627.63	3.8664E-01
627.96	3.8329E-01
628.29	3.8343E-01
628.62	3.8725E-01
628.95	3.8680E-01
629.28	3.8052E-01
629.61	3.9283E-01
629.94	3.8729E-01
630.26	3.8795E-01
630.59	3.9044E-01
630.92	3.8796E-01
631.25	3.9008E-01
631.58	3.9432E-01
631.91	3.8849E-01
632.24	3.9697E-01
632.57	3.9281E-01
632.90	3.9340E-01
633.23	3.9400E-01
633.56	3.9600E-01
633.89	3.9664E-01
634.22	3.9829E-01
634.55	3.9933E-01
634.88	4.0387E-01
635.20	4.0271E-01
635.53	4.0555E-01
635.86	4.0571E-01
636.19	4.1051E-01
636.52	4.1165E-01
636.85	4.0850E-01
637.18	4.1339E-01
637.51	4.1018E-01
637.83	4.1432E-01
638.16	4.1039E-01
638.49	4.2292E-01
638.82	4.2081E-01
639.15	4.2382E-01
639.48	4.2752E-01
639.81	4.2972E-01
640.13	4.2558E-01
640.46	4.3182E-01
640.79	4.3183E-01
641.12	4.3558E-01
641.45	4.3487E-01
641.77	4.3248E-01
642.10	4.4233E-01
642.43	4.4293E-01
642.76	4.4518E-01
643.09	4.4272E-01
643.41	4.4624E-01
643.74	4.4662E-01
644.07	4.4665E-01
644.40	4.5054E-01
644.73	4.5503E-01
645.05	4.5680E-01
645.38	4.5977E-01
645.71	4.6147E-01
646.04	4.6149E-01
646.36	4.6070E-01
646.69	4.6766E-01
647.02	4.6799E-01
647.35	4.6521E-01
647.67	4.7131E-01
648.00	4.6985E-01
648.33	4.7575E-01
648.66	4.7283E-01
648.98	4.7908E-01
649.31	4.7811E-01
649.64	4.8025E-01
649.96	4.8465E-01
650.29	4.8704E-01
650.62	4.8802E-01
650.94	4.8715E-01
651.27	4.8721E-01
651.60	4.8770E-01
651.92	4.9622E-01
652.25	4.9701E-01
652.58	4.9626E-01
652.90	4.9848E-01
653.23	4.9857E-01
653.56	5.0048E-01
653.88	5.0270E-01
654.21	5.0269E-01
654.54	5.0480E-01
654.86	5.1106E-01
655.19	5.0528E-01
655.52	5.1353E-01
655.84	5.1182E-01
656.17	5.1473E-01
656.49	5.2052E-01
656.82	5.1454E-01
657.15	5.1994E-01
657.47	5.1990E-01
657.80	5.2075E-01
658.13	5.2219E-01
658.45	5.2552E-01
658.78	5.2441E-01
659.10	5.3110E-01
659.43	5.3072E-01
659.75	5.2900E-01
660.08	5.2685E-01
660.41	5.3355E-01
660.73	5.3487E-01
661.06	5.3857E-01
661.38	5.3677E-01
661.71	5.3850E-01
662.03	5.3859E-01
662.36	5.4501E-01
662.68	5.4424E-01
663.01	5.3748E-01
663.33	5.4252E-01
663.66	5.4682E-01
663.98	5.4347E-01
664.31	5.4360E-01
664.63	5.5472E-01
664.96	5.5130E-01
665.28	5.5552E-01
665.61	5.5386E-01
665.93	5.5507E-01
666.26	5.5819E-01
666.58	5.5849E-01
666.91	5.5442E-01
667.23	5.6092E-01
667.56	5.5424E-01
667.88	5.6310E-01
668.21	5.6200E-01
668.53	5.6008E-01
668.86	5.7151E-01
669.18	5.6324E-01
669.50	5.7535E-01
669.83	5.7339E-01
670.15	5.7544E-01
670.48	5.7396E-01
670.80	5.7170E-01
671.13	5.6919E-01
671.45	5.7625E-01
671.77	5.7947E-01
672.10	5.7460E-01
672.42	5.8323E-01
672.75	5.8046E-01
673.07	5.8515E-01
673.39	5.7943E-01
673.72	5.8338E-01
674.04	5.8762E-01
674.37	5.9160E-01
674.69	5.8784E-01
675.01	5.9261E-01
675.34	5.9415E-01
675.66	5.9570E-01
675.98	5.9009E-01
676.31	5.9929E-01
676.63	6.0072E-01
676.95	5.9707E-01
677.28	6.0179E-01
677.60	6.0294E-01
677.92	6.0015E-01
678.25	6.0735E-01
678.57	6.0854E-01
678.89	6.0580E-01
679.22	6.1536E-01
679.54	6.1335E-01
679.86	6.1292E-01
680.18	6.1515E-01
680.51	6.1707E-01
680.83	6.2266E-01
681.15	6.1566E-01
681.48	6.2063E-01
681.80	6.2474E-01
682.12	6.2104E-01
682.44	6.3117E-01
682.77	6.3184E-01
683.09	6.3597E-01
683.41	6.3261E-01
683.73	6.3905E-01
684.06	6.3819E-01
684.38	6.4018E-01
684.70	6.3789E-01
685.02	6.4471E-01
685.34	6.5092E-01
685.67	6.4575E-01
685.99	6.5336E-01
686.31	6.4841E-01
686.63	6.5983E-01
686.96	6.5605E-01
687.28	6.6367E-01
687.60	6.5390E-01
687.92	6.6147E-01
688.24	6.6880E-01
688.56	6.7003E-01
688.89	6.7141E-01
689.21	6.6867E-01
689.53	6.7251E-01
689.85	6.8208E-01
690.17	6.7789E-01
690.49	6.8856E-01
690.82	6.8796E-01
691.14	6.8804E-01
691.46	6.9177E-01
691.78	6.9637E-01
692.10	6.8832E-01
692.42	6.9551E-01
692.74	7.0145E-01
693.06	7.0254E-01
693.39	7.1459E-01
693.71	7.1574E-01
694.03	7.1622E-01
694.35	7.1849E-01
694.67	7.2068E-01
694.99	7.2743E-01
695.31	7.3014E-01
695.63	7.2978E-01
695.95	7.3549E-01
696.27	7.3304E-01
696.59	7.3940E-01
696.91	7.5041E-01
697.23	7.4938E-01
697.56	7.4697E-01
697.88	7.5533E-01
698.20	7.5393E-01
698.52	7.6121E-01
698.84	7.6677E-01
699.16	7.7333E-01
699.48	7.6517E-01
699.80	7.7545E-01
700.12	7.8250E-01
700.44	7.8349E-01
700.76	7.8561E-01
701.08	7.9011E-01
701.40	7.9327E-01
701.72	8.0211E-01
702.04	8.0086E-01
702.36	8.0794E-01
702.68	8.1126E-01
703.00	8.1763E-01
703.32	8.2195E-01
703.64	8.2274E-01
703.96	8.1379E-01
704.28	8.2679E-01
704.60	8.3662E-01
704.91	8.3880E-01
705.23	8.4088E-01
705.55	8.5062E-01
705.87	8.4369E-01
706.19	8.4741E-01
706.51	8.5322E-01
706.83	8.5630E-01
707.15	8.7869E-01
707.47	8.6103E-01
707.79	8.7666E-01
708.11	8.7803E-01
708.43	8.8210E-01
708.74	8.9031E-01
709.06	9.0332E-01
709.38	8.9652E-01
709.70	8.9197E-01
710.02	9.0346E-01
710.34	9.0062E-01
710.66	9.2381E-01
710.98	9.1848E-01
711.29	9.1748E-01
711.61	9.3414E-01
711.93	9.3930E-01
712.25	9.3048E-01
712.57	9.4401E-01
712.89	9.4904E-01
713.20	9.4890E-01
713.52	9.5775E-01
713.84	9.6664E-01
714.16	9.5994E-01
714.48	9.6261E-01
714.80	9.7924E-01
715.11	9.7653E-01
715.43	9.8879E-01
715.75	9.9472E-01
716.07	1.0055E00
716.39	9.8702E-01
716.70	9.9854E-01
717.02	9.9453E-01
717.34	1.0233E00
717.66	1.0130E00
717.97	1.0263E00
718.29	1.0314E00
718.61	1.0455E00
718.93	1.0444E00
719.24	1.0477E00
719.56	1.0703E00
719.88	1.0615E00
720.20	1.0746E00
720.51	1.0876E00
720.83	1.0837E00
721.15	1.1052E00
721.46	1.1019E00
721.78	1.1086E00
722.10	1.1244E00
722.42	1.1351E00
722.73	1.1421E00
723.05	1.1271E00
723.37	1.1438E00
723.68	1.1549E00
724.00	1.1557E00
724.32	1.1765E00
724.63	1.1724E00
724.95	1.1674E00
725.27	1.1782E00
725.58	1.1860E00
725.90	1.1854E00
726.22	1.2053E00
726.53	1.1792E00
726.85	1.1963E00
727.16	1.2213E00
727.48	1.2007E00
727.80	1.2143E00
728.11	1.2185E00
728.43	1.2159E00
728.74	1.2106E00
729.06	1.2332E00
729.38	1.2279E00
729.69	1.2344E00
730.01	1.2427E00
730.32	1.2516E00
730.64	1.2490E00
730.96	1.2381E00
731.27	1.2713E00
731.59	1.2419E00
731.90	1.2577E00
732.22	1.2673E00
732.53	1.2646E00
732.85	1.2822E00
733.16	1.2776E00
733.48	1.2843E00
733.80	1.2775E00
734.11	1.3003E00
734.43	1.2991E00
734.74	1.2980E00
735.06	1.3157E00
735.37	1.3258E00
735.69	1.3074E00
736.00	1.3233E00
736.32	1.3251E00
736.63	1.3325E00
736.95	1.3316E00
737.26	1.3563E00
737.58	1.3550E00
737.89	1.3653E00
738.21	1.3529E00
738.52	1.3606E00
738.83	1.3652E00
739.15	1.3634E00
739.46	1.3831E00
739.78	1.3796E00
740.09	1.3959E00
740.41	1.3869E00
740.72	1.3820E00
741.04	1.3824E00
741.35	1.3866E00
741.66	1.4102E00
741.98	1.4002E00
742.29	1.4083E00
742.61	1.4015E00
742.92	1.4065E00
743.23	1.4070E00
743.55	1.4152E00
743.86	1.4043E00
744.18	1.4133E00
744.49	1.4155E00
744.80	1.4136E00
745.12	1.4149E00
745.43	1.4194E00
745.74	1.4187E00
746.06	1.4092E00
746.37	1.4079E00
746.68	1.4193E00
747.00	1.4157E00
747.31	1.4041E00
747.62	1.3950E00
747.94	1.4172E00
748.25	1.4195E00
748.56	1.4224E00
748.88	1.4003E00
749.19	1.4113E00
749.50	1.4138E00
749.82	1.4052E00
750.13	1.4149E00
750.44	1.4151E00
750.75	1.3983E00
751.07	1.4184E00
751.38	1.4266E00
751.69	1.3997E00
752.01	1.4181E00
752.32	1.4174E00
752.63	1.4198E00
752.94	1.4274E00
753.26	1.4344E00
753.57	1.4205E00
753.88	1.4291E00
754.19	1.4298E00
754.51	1.4332E00
754.82	1.4291E00
755.13	1.4464E00
755.44	1.4434E00
755.75	1.4472E00
756.07	1.4474E00
756.38	1.4637E00
756.69	1.4597E00
757.00	1.4702E00
757.31	1.4880E00
757.63	1.4955E00
757.94	1.4981E00
758.25	1.5156E00
758.56	1.4764E00
758.87	1.5270E00
759.18	1.5322E00
759.50	1.5301E00
759.81	1.5241E00
760.12	1.5347E00
760.43	1.5459E00
760.74	1.5405E00
761.05	1.5715E00
761.36	1.5770E00
761.67	1.5882E00
761.99	1.5993E00
762.30	1.5757E00
762.61	1.6125E00
762.92	1.6091E00
763.23	1.6127E00
763.54	1.6295E00
763.85	1.6547E00
764.16	1.6590E00
764.47	1.6780E00
764.78	1.6904E00
765.10	1.6920E00
765.41	1.6936E00
765.72	1.7034E00
766.03	1.7432E00
766.34	1.7565E00
766.65	1.7673E00
766.96	1.8023E00
767.27	1.7894E00
767.58	1.7902E00
767.89	1.8093E00
768.20	1.8370E00
768.51	1.8387E00
768.82	1.8418E00
769.13	1.8768E00
769.44	1.9030E00
769.75	1.8999E00
770.06	1.9040E00
770.37	1.9035E00
770.68	1.9475E00
770.99	1.9641E00
771.30	1.9731E00
771.61	2.0329E00
771.92	1.9892E00
772.23	2.0152E00
772.54	2.0597E00
772.85	2.0395E00
773.16	2.0599E00
773.47	2.1221E00
773.78	2.1069E00
774.09	2.1401E00
774.39	2.1404E00
774.70	2.1503E00
775.01	2.1917E00
775.32	2.2012E00
775.63	2.2245E00
775.94	2.2480E00
776.25	2.2362E00
776.56	2.2589E00
776.87	2.3173E00
777.18	2.3096E00
777.48	2.3323E00
777.79	2.3556E00
778.10	2.3773E00
778.41	2.3954E00
778.72	2.4220E00
779.03	2.4345E00
779.34	2.4860E00
779.65	2.4862E00
779.95	2.5339E00
780.26	2.5100E00
780.57	2.5543E00
780.88	2.5466E00
781.19	2.5931E00
781.50	2.5983E00
781.80	2.6205E00
782.11	2.6258E00
782.42	2.6892E00
782.73	2.6401E00
783.04	2.7423E00
783.34	2.7402E00
783.65	2.7623E00
783.96	2.7706E00
784.27	2.7865E00
784.57	2.8103E00
784.88	2.8410E00
785.19	2.8564E00
785.50	2.8915E00
785.81	2.9265E00
786.11	2.8871E00
786.42	2.9232E00
786.73	2.9501E00
787.04	2.9861E00
787.34	3.0393E00
787.65	3.0505E00
787.96	3.1222E00
788.26	3.0987E00
788.57	3.1616E00
788.88	3.1267E00
789.19	3.2213E00
789.49	3.1919E00
789.80	3.2534E00
790.11	3.2601E00
790.41	3.2918E00
790.72	3.3230E00
791.03	3.3398E00
791.33	3.3716E00
791.64	3.4499E00
791.95	3.3866E00
792.25	3.5001E00
792.56	3.4653E00
792.87	3.5132E00
793.17	3.5389E00
793.48	3.5563E00
793.79	3.5912E00
794.09	3.6612E00
794.40	3.6094E00
794.70	3.6199E00
795.01	3.6345E00
795.32	3.6839E00
795.62	3.7561E00
795.93	3.7660E00
796.23	3.7760E00
796.54	3.8265E00
796.85	3.8102E00
797.15	3.8610E00
797.46	3.8900E00
797.76	3.9911E00
798.07	3.9747E00
798.37	3.9789E00
798.68	4.0394E00
798.99	4.0417E00
799.29	4.0822E00
799.60	4.1550E00
799.90	4.1555E00
800.21	4.2126E00
800.51	4.2508E00
800.82	4.2366E00
801.12	4.3160E00
801.43	4.3047E00
801.73	4.3986E00
802.04	4.3869E00
802.34	4.3858E00
802.65	4.4340E00
802.95	4.5856E00
803.26	4.5470E00
803.56	4.4697E00
803.87	4.5403E00
804.17	4.5759E00
804.48	4.5731E00
804.78	4.6539E00
805.09	4.7366E00
805.39	4.7059E00
805.70	4.7279E00
806.00	4.8018E00
806.30	4.7992E00
806.61	4.8681E00
806.91	4.8943E00
807.22	4.9476E00
807.52	4.9713E00
807.83	4.9955E00
808.13	5.0520E00
808.43	4.9519E00
808.74	5.0912E00
809.04	5.1336E00
809.35	5.1081E00
809.65	5.2321E00
809.95	5.2582E00
810.26	5.3198E00
810.56	5.3401E00
810.86	5.4151E00
811.17	5.4560E00
811.47	5.4563E00
811.77	5.4577E00
812.08	5.4527E00
812.38	5.6298E00
812.69	5.5215E00
812.99	5.7109E00
813.29	5.7466E00
813.59	5.5960E00
813.90	5.3255E00
814.20	4.9947E00
814.50	4.9667E00
814.81	4.8447E00
815.11	4.8287E00
815.41	4.7944E00
815.72	4.7382E00
816.02	4.7005E00
816.32	4.5179E00
816.62	4.2045E00
816.93	4.1980E00
817.23	4.2355E00
817.53	4.2160E00
817.84	4.1963E00
818.14	4.1545E00
818.44	4.1950E00
818.74	4.3778E00
819.04	4.2861E00
819.35	4.2762E00
819.65	4.3316E00
819.95	4.3398E00
820.25	4.4478E00
820.56	4.5941E00
820.86	4.7803E00
821.16	4.8969E00
821.46	4.8366E00
821.76	4.8652E00
822.07	4.8517E00
822.37	4.5950E00
822.67	4.5624E00
822.97	4.1941E00
823.27	3.9031E00
823.57	3.8423E00
823.88	3.9243E00
824.18	3.9905E00
824.48	4.0443E00
824.78	4.1114E00
825.08	4.2634E00
825.38	4.3585E00
825.69	4.2635E00
825.99	4.2907E00
826.29	4.3722E00
826.59	4.2702E00
826.89	4.3093E00
827.19	4.3363E00
827.49	4.2462E00
827.79	3.9743E00
828.09	3.8158E00
828.39	3.7498E00
828.70	3.7053E00
829.00	3.6806E00
829.30	3.5398E00
829.60	3.5204E00
829.90	3.4616E00
830.20	3.3159E00
830.50	3.3235E00
830.80	3.3661E00
831.10	3.2026E00
831.40	3.3084E00
831.70	3.2249E00
832.00	3.2091E00
832.30	3.0954E00
832.60	3.0514E00
832.90	3.0134E00
833.20	3.0350E00
833.50	2.9241E00
833.80	2.9218E00
834.10	2.8628E00
834.40	2.9347E00
834.70	2.9457E00
835.00	2.8522E00
835.30	2.8496E00
835.60	2.8847E00
835.90	2.8715E00
836.20	2.9404E00
836.50	2.9127E00
836.80	3.0540E00
837.10	3.3374E00
837.40	2.9905E00
837.70	3.0038E00
838.00	2.8655E00
838.30	2.9083E00
838.60	3.0085E00
838.90	2.9614E00
839.19	3.1909E00
839.49	2.9402E00
839.79	2.9829E00
840.09	2.8681E00
840.39	2.9553E00
840.69	2.9882E00
840.99	3.1589E00
841.29	3.0888E00
841.59	2.9143E00
841.88	2.8779E00
842.18	2.9986E00
842.48	2.9214E00
842.78	2.8903E00
843.08	2.9434E00
843.38	2.8600E00
843.68	3.0488E00
843.97	3.0680E00
844.27	2.9914E00
844.57	2.9189E00
844.87	2.9194E00
845.17	2.8684E00
845.47	2.8226E00
845.76	2.9937E00
846.06	3.0035E00
846.36	3.3924E00
846.66	2.9238E00
846.96	2.9747E00
847.25	2.8286E00
847.55	2.8582E00
847.85	2.9144E00
848.15	2.8373E00
848.44	2.8958E00
848.74	2.7840E00
849.04	2.8281E00
849.34	2.9188E00
849.63	2.8612E00
849.93	2.7930E00
850.23	2.8239E00
850.53	2.7035E00
850.82	2.7238E00
851.12	2.6424E00
851.42	2.7408E00
851.71	2.7300E00
852.01	2.7076E00
852.31	2.7954E00
852.61	2.7094E00
852.90	2.7262E00
853.20	2.8137E00
853.50	3.0845E00
853.79	2.9828E00
854.09	2.6855E00
854.39	2.6397E00
854.68	2.6896E00
854.98	2.6015E00
855.28	2.6030E00
855.57	2.7699E00
855.87	2.6728E00
856.17	2.6938E00
856.46	2.5751E00
856.76	2.5767E00
857.05	2.7363E00
857.35	2.6495E00
857.65	2.8668E00
857.94	2.8471E00
858.24	2.8211E00
858.53	2.7774E00
858.83	3.1788E00
859.13	2.7708E00
859.42	2.7082E00
859.72	2.8899E00
860.01	2.8168E00
860.31	2.7846E00
860.60	2.7475E00
860.90	2.9437E00
861.20	2.7860E00
861.49	2.7369E00
861.79	2.8471E00
862.08	3.8433E00
862.38	3.1369E00
862.67	2.8013E00
862.97	2.7918E00
863.26	2.7967E00
863.56	3.0311E00
863.85	3.1892E00
864.15	2.7718E00
864.44	2.8636E00
864.74	2.8192E00
865.03	3.0733E00
865.33	2.9572E00
865.62	2.8105E00
865.92	2.7994E00
866.21	2.9068E00
866.51	2.8190E00
866.80	3.0265E00
867.10	3.1259E00
867.39	2.7985E00
867.69	3.0299E00
867.98	2.6601E00
868.27	2.6812E00
868.57	2.6601E00
868.86	2.9739E00
869.16	2.7284E00
869.45	2.7204E00
869.75	2.6521E00
870.04	2.7392E00
870.33	2.9245E00
870.63	2.7336E00
870.92	2.8844E00
871.22	3.8889E00
871.51	2.8474E00
871.80	2.9407E00
872.10	2.9407E00
>>>>>End Processed Spectral Data<<<<<
