SpectraSuite Data File
++++++++++++++++++++++++++++++++++++
Date: Tue May 12 10:04:09 PDT 2015
User: schluterlab
Dark Spectrum Present: Yes
Reference Spectrum Present: No
Number of Sampled Component Spectra: 1
Spectrometers: USB2E3373
Integration Time (usec): 2000000 (USB2E3373)
Spectra Averaged: 3 (USB2E3373)
Boxcar Smoothing: 0 (USB2E3373)
Correct for Electrical Dark: No (USB2E3373)
Strobe/Lamp Enabled: No (USB2E3373)
Correct for Detector Non-linearity: No (USB2E3373)
Correct for Stray Light: No (USB2E3373)
Number of Pixels in Processed Spectrum: 2048
>>>>>Begin Processed Spectral Data<<<<<
178.53	0.0000E00
178.91	0.0000E00
179.29	0.0000E00
179.67	0.0000E00
180.04	0.0000E00
180.42	0.0000E00
180.80	0.0000E00
181.18	0.0000E00
181.56	0.0000E00
181.94	0.0000E00
182.31	0.0000E00
182.69	0.0000E00
183.07	0.0000E00
183.45	0.0000E00
183.83	0.0000E00
184.20	0.0000E00
184.58	0.0000E00
184.96	0.0000E00
185.34	0.0000E00
185.72	0.0000E00
186.09	0.0000E00
186.47	0.0000E00
186.85	0.0000E00
187.23	0.0000E00
187.61	0.0000E00
187.98	0.0000E00
188.36	0.0000E00
188.74	0.0000E00
189.12	0.0000E00
189.49	0.0000E00
189.87	0.0000E00
190.25	0.0000E00
190.63	0.0000E00
191.00	0.0000E00
191.38	0.0000E00
191.76	0.0000E00
192.14	0.0000E00
192.51	0.0000E00
192.89	0.0000E00
193.27	0.0000E00
193.65	0.0000E00
194.02	0.0000E00
194.40	0.0000E00
194.78	0.0000E00
195.15	0.0000E00
195.53	-0.0000E00
195.91	0.0000E00
196.29	0.0000E00
196.66	0.0000E00
197.04	0.0000E00
197.42	0.0000E00
197.79	0.0000E00
198.17	0.0000E00
198.55	0.0000E00
198.92	0.0000E00
199.30	0.0000E00
199.68	0.0000E00
200.05	0.0000E00
200.43	0.0000E00
200.81	0.0000E00
201.18	0.0000E00
201.56	0.0000E00
201.94	0.0000E00
202.31	-0.0000E00
202.69	0.0000E00
203.07	0.0000E00
203.44	0.0000E00
203.82	0.0000E00
204.19	0.0000E00
204.57	0.0000E00
204.95	0.0000E00
205.32	0.0000E00
205.70	0.0000E00
206.08	0.0000E00
206.45	0.0000E00
206.83	0.0000E00
207.20	0.0000E00
207.58	0.0000E00
207.96	0.0000E00
208.33	0.0000E00
208.71	0.0000E00
209.08	0.0000E00
209.46	0.0000E00
209.84	0.0000E00
210.21	0.0000E00
210.59	0.0000E00
210.96	0.0000E00
211.34	0.0000E00
211.71	0.0000E00
212.09	0.0000E00
212.46	0.0000E00
212.84	0.0000E00
213.22	0.0000E00
213.59	0.0000E00
213.97	0.0000E00
214.34	0.0000E00
214.72	0.0000E00
215.09	0.0000E00
215.47	0.0000E00
215.84	0.0000E00
216.22	0.0000E00
216.59	0.0000E00
216.97	0.0000E00
217.34	0.0000E00
217.72	0.0000E00
218.09	0.0000E00
218.47	0.0000E00
218.84	0.0000E00
219.22	0.0000E00
219.59	0.0000E00
219.97	0.0000E00
220.34	0.0000E00
220.72	0.0000E00
221.09	0.0000E00
221.47	0.0000E00
221.84	0.0000E00
222.22	0.0000E00
222.59	0.0000E00
222.97	0.0000E00
223.34	0.0000E00
223.72	0.0000E00
224.09	0.0000E00
224.46	0.0000E00
224.84	0.0000E00
225.21	0.0000E00
225.59	0.0000E00
225.96	0.0000E00
226.34	0.0000E00
226.71	0.0000E00
227.08	0.0000E00
227.46	0.0000E00
227.83	0.0000E00
228.21	0.0000E00
228.58	0.0000E00
228.95	0.0000E00
229.33	0.0000E00
229.70	0.0000E00
230.08	0.0000E00
230.45	0.0000E00
230.82	0.0000E00
231.20	0.0000E00
231.57	0.0000E00
231.95	0.0000E00
232.32	0.0000E00
232.69	0.0000E00
233.07	0.0000E00
233.44	0.0000E00
233.81	0.0000E00
234.19	0.0000E00
234.56	0.0000E00
234.93	0.0000E00
235.31	0.0000E00
235.68	0.0000E00
236.05	0.0000E00
236.43	0.0000E00
236.80	0.0000E00
237.17	0.0000E00
237.55	0.0000E00
237.92	0.0000E00
238.29	0.0000E00
238.67	0.0000E00
239.04	0.0000E00
239.41	0.0000E00
239.79	0.0000E00
240.16	0.0000E00
240.53	0.0000E00
240.91	0.0000E00
241.28	0.0000E00
241.65	0.0000E00
242.02	0.0000E00
242.40	0.0000E00
242.77	0.0000E00
243.14	0.0000E00
243.51	0.0000E00
243.89	0.0000E00
244.26	0.0000E00
244.63	0.0000E00
245.00	0.0000E00
245.38	0.0000E00
245.75	0.0000E00
246.12	0.0000E00
246.49	0.0000E00
246.87	0.0000E00
247.24	0.0000E00
247.61	0.0000E00
247.98	0.0000E00
248.36	0.0000E00
248.73	0.0000E00
249.10	0.0000E00
249.47	0.0000E00
249.84	0.0000E00
250.22	0.0000E00
250.59	0.0000E00
250.96	0.0000E00
251.33	0.0000E00
251.70	0.0000E00
252.08	0.0000E00
252.45	0.0000E00
252.82	0.0000E00
253.19	0.0000E00
253.56	0.0000E00
253.94	0.0000E00
254.31	0.0000E00
254.68	0.0000E00
255.05	0.0000E00
255.42	0.0000E00
255.79	0.0000E00
256.16	0.0000E00
256.54	0.0000E00
256.91	0.0000E00
257.28	0.0000E00
257.65	0.0000E00
258.02	0.0000E00
258.39	0.0000E00
258.76	0.0000E00
259.14	0.0000E00
259.51	0.0000E00
259.88	0.0000E00
260.25	0.0000E00
260.62	0.0000E00
260.99	0.0000E00
261.36	0.0000E00
261.73	0.0000E00
262.10	0.0000E00
262.47	0.0000E00
262.85	0.0000E00
263.22	0.0000E00
263.59	0.0000E00
263.96	0.0000E00
264.33	0.0000E00
264.70	0.0000E00
265.07	0.0000E00
265.44	0.0000E00
265.81	0.0000E00
266.18	0.0000E00
266.55	0.0000E00
266.92	0.0000E00
267.29	0.0000E00
267.66	0.0000E00
268.03	0.0000E00
268.40	0.0000E00
268.77	0.0000E00
269.14	0.0000E00
269.51	0.0000E00
269.88	0.0000E00
270.25	0.0000E00
270.62	0.0000E00
270.99	0.0000E00
271.36	0.0000E00
271.73	0.0000E00
272.10	0.0000E00
272.47	0.0000E00
272.84	0.0000E00
273.21	0.0000E00
273.58	0.0000E00
273.95	0.0000E00
274.32	0.0000E00
274.69	0.0000E00
275.06	0.0000E00
275.43	0.0000E00
275.80	0.0000E00
276.17	0.0000E00
276.54	0.0000E00
276.91	0.0000E00
277.28	0.0000E00
277.65	0.0000E00
278.02	0.0000E00
278.39	0.0000E00
278.76	0.0000E00
279.13	0.0000E00
279.50	0.0000E00
279.87	0.0000E00
280.23	0.0000E00
280.60	0.0000E00
280.97	0.0000E00
281.34	0.0000E00
281.71	0.0000E00
282.08	0.0000E00
282.45	0.0000E00
282.82	0.0000E00
283.19	0.0000E00
283.56	0.0000E00
283.92	0.0000E00
284.29	0.0000E00
284.66	0.0000E00
285.03	0.0000E00
285.40	0.0000E00
285.77	0.0000E00
286.14	0.0000E00
286.51	0.0000E00
286.87	0.0000E00
287.24	0.0000E00
287.61	0.0000E00
287.98	0.0000E00
288.35	0.0000E00
288.72	0.0000E00
289.08	0.0000E00
289.45	0.0000E00
289.82	0.0000E00
290.19	0.0000E00
290.56	0.0000E00
290.93	0.0000E00
291.29	0.0000E00
291.66	0.0000E00
292.03	0.0000E00
292.40	0.0000E00
292.77	0.0000E00
293.13	0.0000E00
293.50	0.0000E00
293.87	0.0000E00
294.24	0.0000E00
294.60	0.0000E00
294.97	0.0000E00
295.34	0.0000E00
295.71	0.0000E00
296.08	0.0000E00
296.44	0.0000E00
296.81	0.0000E00
297.18	0.0000E00
297.55	0.0000E00
297.91	0.0000E00
298.28	0.0000E00
298.65	0.0000E00
299.02	0.0000E00
299.38	0.0000E00
299.75	0.0000E00
300.12	4.5089E-01
300.48	1.1456E00
300.85	4.7917E-01
301.22	1.2965E00
301.59	3.9720E-01
301.95	4.7836E-01
302.32	7.2553E-01
302.69	7.5915E-01
303.05	4.7599E-01
303.42	6.5620E-01
303.79	7.6919E-01
304.15	4.8643E-01
304.52	5.8643E-01
304.89	5.7035E-01
305.25	1.1462E00
305.62	7.6197E-01
305.99	9.2104E-01
306.35	5.7445E-01
306.72	7.9352E-01
307.09	6.7815E-01
307.45	7.1877E-01
307.82	5.3892E-01
308.19	6.9270E-01
308.55	8.3557E-01
308.92	9.7276E-01
309.29	8.2678E-01
309.65	9.6334E-01
310.02	7.5508E-01
310.38	8.2593E-01
310.75	1.1495E00
311.12	1.1507E00
311.48	2.0332E00
311.85	1.3084E00
312.22	9.1812E-01
312.58	2.1695E00
312.95	1.3147E00
313.31	1.2256E00
313.68	1.5803E00
314.05	2.5558E00
314.41	1.3883E00
314.78	8.1656E-01
315.14	1.3468E00
315.51	2.8268E00
315.87	1.2193E00
316.24	1.8112E00
316.61	1.6528E00
316.97	1.0938E00
317.34	1.6799E00
317.70	1.3176E00
318.07	1.3283E00
318.43	1.5733E00
318.80	1.1769E00
319.16	1.4720E00
319.53	1.0309E00
319.89	2.0802E00
320.26	1.5738E00
320.62	1.9054E00
320.99	1.6706E00
321.35	9.6877E-01
321.72	1.3026E00
322.08	2.0744E00
322.45	1.1349E00
322.81	1.3347E00
323.18	4.0349E00
323.54	2.1400E00
323.91	1.6385E00
324.27	3.1749E00
324.64	2.3068E00
325.00	1.6713E00
325.37	2.8021E00
325.73	1.0319E00
326.10	3.5446E00
326.46	1.6449E00
326.83	1.3430E00
327.19	2.8784E00
327.56	1.1119E00
327.92	1.6106E00
328.29	1.2817E00
328.65	1.6842E00
329.01	1.9941E00
329.38	1.2929E00
329.74	1.1583E00
330.11	1.6935E00
330.47	1.1291E00
330.84	1.6304E00
331.20	1.6298E00
331.56	1.5167E00
331.93	1.6890E00
332.29	1.5665E00
332.66	1.0940E00
333.02	1.3241E00
333.38	1.9802E00
333.75	9.2464E-01
334.11	1.4450E00
334.48	1.4418E00
334.84	1.3493E00
335.20	1.6580E00
335.57	3.0741E00
335.93	2.0438E00
336.29	1.5873E00
336.66	1.5285E00
337.02	1.0695E00
337.38	1.3359E00
337.75	1.2961E00
338.11	1.0980E00
338.47	1.5305E00
338.84	1.2618E00
339.20	1.0486E00
339.56	3.0816E00
339.93	9.6278E-01
340.29	1.1443E00
340.65	1.2499E00
341.02	2.0939E00
341.38	1.4294E00
341.74	1.5378E00
342.11	1.4985E00
342.47	1.5116E00
342.83	8.3121E-01
343.20	1.9204E00
343.56	1.1626E00
343.92	1.6180E00
344.28	1.0766E00
344.65	1.7094E00
345.01	1.0065E00
345.37	1.6271E00
345.73	1.4482E00
346.10	1.2433E00
346.46	1.4768E00
346.82	1.1260E00
347.19	2.5573E00
347.55	1.0532E00
347.91	1.0621E00
348.27	1.1934E00
348.63	1.0374E00
349.00	1.0252E00
349.36	2.0651E00
349.72	1.2868E00
350.08	1.8755E00
350.45	1.0721E00
350.81	9.9972E-01
351.17	1.3172E00
351.53	1.4245E00
351.89	1.1629E00
352.26	1.3343E00
352.62	1.1032E00
352.98	1.2837E00
353.34	1.1341E00
353.70	1.4970E00
354.07	1.0987E00
354.43	1.0424E00
354.79	1.2245E00
355.15	9.7968E-01
355.51	9.3594E-01
355.87	1.0583E00
356.24	1.1035E00
356.60	1.0676E00
356.96	1.1559E00
357.32	1.0400E00
357.68	9.7651E-01
358.04	8.8111E-01
358.40	9.7231E-01
358.77	9.0579E-01
359.13	1.0705E00
359.49	1.1394E00
359.85	1.1079E00
360.21	8.3420E-01
360.57	1.0178E00
360.93	1.0106E00
361.29	1.0709E00
361.66	8.8972E-01
362.02	8.1992E-01
362.38	1.0691E00
362.74	9.3071E-01
363.10	9.8253E-01
363.46	1.1414E00
363.82	9.7586E-01
364.18	1.1694E00
364.54	1.1089E00
364.90	1.0556E00
365.26	1.0380E00
365.62	1.1869E00
365.98	1.0331E00
366.35	8.2830E-01
366.71	1.0027E00
367.07	1.2846E00
367.43	8.1343E-01
367.79	1.1614E00
368.15	1.0648E00
368.51	1.2622E00
368.87	1.1045E00
369.23	1.1794E00
369.59	9.2795E-01
369.95	1.0047E00
370.31	9.5828E-01
370.67	1.1337E00
371.03	9.5677E-01
371.39	9.3641E-01
371.75	9.4428E-01
372.11	9.7395E-01
372.47	8.9608E-01
372.83	9.0428E-01
373.19	7.5612E-01
373.55	9.9006E-01
373.91	1.0105E00
374.27	1.0896E00
374.63	1.0636E00
374.99	9.6583E-01
375.35	9.2734E-01
375.71	9.4460E-01
376.07	9.5341E-01
376.42	9.4348E-01
376.78	8.5558E-01
377.14	9.7014E-01
377.50	1.0596E00
377.86	9.0172E-01
378.22	8.5025E-01
378.58	8.5156E-01
378.94	8.2538E-01
379.30	8.6676E-01
379.66	8.5395E-01
380.02	8.3614E-01
380.38	8.1230E-01
380.74	8.5139E-01
381.09	8.9339E-01
381.45	8.2311E-01
381.81	7.9738E-01
382.17	8.3980E-01
382.53	8.7356E-01
382.89	7.8221E-01
383.25	8.2222E-01
383.61	8.1347E-01
383.97	7.8858E-01
384.32	7.8606E-01
384.68	7.5076E-01
385.04	8.3373E-01
385.40	8.5879E-01
385.76	8.5564E-01
386.12	8.0446E-01
386.48	8.1748E-01
386.83	7.6270E-01
387.19	7.6077E-01
387.55	8.5121E-01
387.91	8.2277E-01
388.27	7.6949E-01
388.62	8.6498E-01
388.98	7.8369E-01
389.34	8.6915E-01
389.70	7.8913E-01
390.06	8.1474E-01
390.42	8.2212E-01
390.77	8.0189E-01
391.13	8.1832E-01
391.49	8.0317E-01
391.85	8.4705E-01
392.20	7.4823E-01
392.56	7.5832E-01
392.92	7.6946E-01
393.28	7.7262E-01
393.64	8.0677E-01
393.99	8.2228E-01
394.35	8.0886E-01
394.71	7.9904E-01
395.07	7.8218E-01
395.42	7.8550E-01
395.78	8.0018E-01
396.14	7.2191E-01
396.50	7.2543E-01
396.85	7.9712E-01
397.21	7.6758E-01
397.57	7.8815E-01
397.92	7.3678E-01
398.28	7.1320E-01
398.64	8.4797E-01
399.00	6.8331E-01
399.35	7.1153E-01
399.71	7.6361E-01
400.07	7.4443E-01
400.42	7.2685E-01
400.78	7.4458E-01
401.14	7.4880E-01
401.49	6.9417E-01
401.85	6.9008E-01
402.21	7.0082E-01
402.57	6.9654E-01
402.92	7.3430E-01
403.28	6.9865E-01
403.63	6.9528E-01
403.99	7.1110E-01
404.35	6.9035E-01
404.70	6.7758E-01
405.06	6.8845E-01
405.42	7.0397E-01
405.77	6.5431E-01
406.13	6.5416E-01
406.49	6.4945E-01
406.84	6.5702E-01
407.20	6.4140E-01
407.55	6.9231E-01
407.91	7.0464E-01
408.27	6.5978E-01
408.62	6.6390E-01
408.98	6.7208E-01
409.34	6.8409E-01
409.69	6.5482E-01
410.05	6.8999E-01
410.40	6.5844E-01
410.76	6.0876E-01
411.11	6.1397E-01
411.47	6.6601E-01
411.83	6.3158E-01
412.18	6.4336E-01
412.54	6.3092E-01
412.89	6.2654E-01
413.25	6.4980E-01
413.60	6.7827E-01
413.96	6.3646E-01
414.31	6.4024E-01
414.67	6.7599E-01
415.03	6.6276E-01
415.38	6.7891E-01
415.74	6.7077E-01
416.09	6.6647E-01
416.45	6.7545E-01
416.80	6.6212E-01
417.16	6.5639E-01
417.51	6.5287E-01
417.87	6.2868E-01
418.22	6.2129E-01
418.58	6.3477E-01
418.93	6.0838E-01
419.29	6.5187E-01
419.64	6.3210E-01
420.00	5.9755E-01
420.35	5.8714E-01
420.71	6.1644E-01
421.06	6.1883E-01
421.42	6.3472E-01
421.77	6.2535E-01
422.12	6.2412E-01
422.48	5.9096E-01
422.83	6.3103E-01
423.19	5.9645E-01
423.54	5.9695E-01
423.90	6.0444E-01
424.25	5.7066E-01
424.61	6.2872E-01
424.96	5.8872E-01
425.31	5.8548E-01
425.67	5.6123E-01
426.02	5.8617E-01
426.38	5.8530E-01
426.73	5.5487E-01
427.09	5.8113E-01
427.44	5.5664E-01
427.79	5.6329E-01
428.15	5.8016E-01
428.50	5.7600E-01
428.85	5.9060E-01
429.21	5.4443E-01
429.56	5.3235E-01
429.92	5.4333E-01
430.27	5.6145E-01
430.62	5.6099E-01
430.98	5.6755E-01
431.33	5.5441E-01
431.68	5.3605E-01
432.04	5.3266E-01
432.39	5.3988E-01
432.74	5.6026E-01
433.10	5.2488E-01
433.45	5.5527E-01
433.80	5.5188E-01
434.16	5.6475E-01
434.51	5.3742E-01
434.86	5.5970E-01
435.22	5.3935E-01
435.57	5.7678E-01
435.92	5.6532E-01
436.28	5.6261E-01
436.63	5.2195E-01
436.98	5.5787E-01
437.34	5.5391E-01
437.69	5.2664E-01
438.04	5.1265E-01
438.39	5.4868E-01
438.75	5.6163E-01
439.10	5.0694E-01
439.45	5.5067E-01
439.81	5.4429E-01
440.16	5.1225E-01
440.51	5.3474E-01
440.86	5.3321E-01
441.22	5.2125E-01
441.57	5.2612E-01
441.92	5.1053E-01
442.27	5.3601E-01
442.63	5.2470E-01
442.98	5.6071E-01
443.33	5.4885E-01
443.68	5.1025E-01
444.03	4.8168E-01
444.39	4.8406E-01
444.74	5.2507E-01
445.09	5.3294E-01
445.44	5.3431E-01
445.79	4.7133E-01
446.15	5.0630E-01
446.50	5.2358E-01
446.85	4.9259E-01
447.20	4.7899E-01
447.55	5.1739E-01
447.91	4.9778E-01
448.26	5.1132E-01
448.61	5.0646E-01
448.96	4.9605E-01
449.31	5.0364E-01
449.66	5.0799E-01
450.02	5.0030E-01
450.37	5.0137E-01
450.72	4.9411E-01
451.07	5.3267E-01
451.42	5.2950E-01
451.77	5.0027E-01
452.12	4.9982E-01
452.47	5.2287E-01
452.83	4.8073E-01
453.18	5.0885E-01
453.53	5.0271E-01
453.88	4.7370E-01
454.23	4.6755E-01
454.58	4.6764E-01
454.93	5.0191E-01
455.28	4.9921E-01
455.63	4.8477E-01
455.98	4.7349E-01
456.34	4.9844E-01
456.69	4.8343E-01
457.04	4.8730E-01
457.39	4.5731E-01
457.74	4.6667E-01
458.09	4.5440E-01
458.44	4.5377E-01
458.79	4.4391E-01
459.14	4.5902E-01
459.49	4.7741E-01
459.84	4.5132E-01
460.19	4.8028E-01
460.54	4.7697E-01
460.89	4.3963E-01
461.24	4.8122E-01
461.59	4.6005E-01
461.94	4.6655E-01
462.29	4.3608E-01
462.64	4.6118E-01
462.99	4.6584E-01
463.34	4.9270E-01
463.69	4.6149E-01
464.04	4.3054E-01
464.39	4.4726E-01
464.74	4.5380E-01
465.09	4.6596E-01
465.44	4.3889E-01
465.79	4.5279E-01
466.14	4.5472E-01
466.49	4.4736E-01
466.84	4.4317E-01
467.19	4.5820E-01
467.54	4.5976E-01
467.89	4.3745E-01
468.24	4.1499E-01
468.59	4.2856E-01
468.94	4.1994E-01
469.29	4.2178E-01
469.64	4.3617E-01
469.99	4.2036E-01
470.34	4.0727E-01
470.68	4.3305E-01
471.03	4.1814E-01
471.38	4.1894E-01
471.73	3.9954E-01
472.08	3.9426E-01
472.43	3.8073E-01
472.78	4.0206E-01
473.13	3.9773E-01
473.48	3.9121E-01
473.83	3.8332E-01
474.17	3.8902E-01
474.52	3.8474E-01
474.87	3.6892E-01
475.22	3.7685E-01
475.57	3.5835E-01
475.92	3.4932E-01
476.27	3.5977E-01
476.61	3.5022E-01
476.96	3.4121E-01
477.31	3.3056E-01
477.66	3.3703E-01
478.01	3.3514E-01
478.36	3.3316E-01
478.70	3.2868E-01
479.05	3.3361E-01
479.40	3.1840E-01
479.75	3.1498E-01
480.10	3.1693E-01
480.45	3.0968E-01
480.79	3.0793E-01
481.14	3.1246E-01
481.49	3.0496E-01
481.84	2.9955E-01
482.19	2.9728E-01
482.53	2.9652E-01
482.88	2.9419E-01
483.23	2.8918E-01
483.58	2.8317E-01
483.92	2.9028E-01
484.27	2.8115E-01
484.62	2.7919E-01
484.97	2.7325E-01
485.31	2.7186E-01
485.66	2.7777E-01
486.01	2.7781E-01
486.36	2.6487E-01
486.70	2.7209E-01
487.05	2.7013E-01
487.40	2.7051E-01
487.75	2.6249E-01
488.09	2.6286E-01
488.44	2.6499E-01
488.79	2.6128E-01
489.13	2.5816E-01
489.48	2.6129E-01
489.83	2.6174E-01
490.17	2.5488E-01
490.52	2.5482E-01
490.87	2.5606E-01
491.22	2.5947E-01
491.56	2.5593E-01
491.91	2.5946E-01
492.26	2.5623E-01
492.60	2.5637E-01
492.95	2.5858E-01
493.30	2.5817E-01
493.64	2.5508E-01
493.99	2.5614E-01
494.34	2.5308E-01
494.68	2.5049E-01
495.03	2.5668E-01
495.37	2.5441E-01
495.72	2.5684E-01
496.07	2.5146E-01
496.41	2.5302E-01
496.76	2.5110E-01
497.11	2.5373E-01
497.45	2.5256E-01
497.80	2.5305E-01
498.14	2.5297E-01
498.49	2.5323E-01
498.84	2.5395E-01
499.18	2.5347E-01
499.53	2.5341E-01
499.87	2.5093E-01
500.22	2.5406E-01
500.56	2.5361E-01
500.91	2.5315E-01
501.26	2.5280E-01
501.60	2.5260E-01
501.95	2.5033E-01
502.29	2.5370E-01
502.64	2.4929E-01
502.98	2.5310E-01
503.33	2.5094E-01
503.67	2.5144E-01
504.02	2.5089E-01
504.36	2.5033E-01
504.71	2.5137E-01
505.06	2.4885E-01
505.40	2.4906E-01
505.75	2.5030E-01
506.09	2.5051E-01
506.44	2.5015E-01
506.78	2.4779E-01
507.13	2.4918E-01
507.47	2.4700E-01
507.82	2.4701E-01
508.16	2.4947E-01
508.51	2.4719E-01
508.85	2.4435E-01
509.19	2.4727E-01
509.54	2.4712E-01
509.88	2.4734E-01
510.23	2.4377E-01
510.57	2.4472E-01
510.92	2.4396E-01
511.26	2.4448E-01
511.61	2.4432E-01
511.95	2.4444E-01
512.30	2.4305E-01
512.64	2.4460E-01
512.98	2.4051E-01
513.33	2.4217E-01
513.67	2.4265E-01
514.02	2.4185E-01
514.36	2.3979E-01
514.70	2.4128E-01
515.05	2.3859E-01
515.39	2.4048E-01
515.74	2.3827E-01
516.08	2.3689E-01
516.42	2.3912E-01
516.77	2.3952E-01
517.11	2.3973E-01
517.46	2.4104E-01
517.80	2.3733E-01
518.14	2.3903E-01
518.49	2.3702E-01
518.83	2.3770E-01
519.17	2.3752E-01
519.52	2.3813E-01
519.86	2.3689E-01
520.20	2.3599E-01
520.55	2.3655E-01
520.89	2.3520E-01
521.23	2.3772E-01
521.58	2.3705E-01
521.92	2.3909E-01
522.26	2.4015E-01
522.61	2.3643E-01
522.95	2.3835E-01
523.29	2.3480E-01
523.64	2.3516E-01
523.98	2.3618E-01
524.32	2.3709E-01
524.66	2.3904E-01
525.01	2.3914E-01
525.35	2.3981E-01
525.69	2.4052E-01
526.04	2.3983E-01
526.38	2.3630E-01
526.72	2.4094E-01
527.06	2.3929E-01
527.41	2.4127E-01
527.75	2.4338E-01
528.09	2.4161E-01
528.43	2.4525E-01
528.78	2.4250E-01
529.12	2.4507E-01
529.46	2.4661E-01
529.80	2.4596E-01
530.15	2.4669E-01
530.49	2.4671E-01
530.83	2.4815E-01
531.17	2.4827E-01
531.51	2.4725E-01
531.86	2.4942E-01
532.20	2.5040E-01
532.54	2.4985E-01
532.88	2.5155E-01
533.22	2.5373E-01
533.57	2.5485E-01
533.91	2.5420E-01
534.25	2.5645E-01
534.59	2.5503E-01
534.93	2.5722E-01
535.27	2.5613E-01
535.62	2.6084E-01
535.96	2.5967E-01
536.30	2.6047E-01
536.64	2.6096E-01
536.98	2.6308E-01
537.32	2.6245E-01
537.66	2.6248E-01
538.01	2.6525E-01
538.35	2.6727E-01
538.69	2.6398E-01
539.03	2.7025E-01
539.37	2.6769E-01
539.71	2.6980E-01
540.05	2.6989E-01
540.39	2.7112E-01
540.73	2.6988E-01
541.07	2.7084E-01
541.42	2.7120E-01
541.76	2.7140E-01
542.10	2.7292E-01
542.44	2.7420E-01
542.78	2.7444E-01
543.12	2.7374E-01
543.46	2.7969E-01
543.80	2.7624E-01
544.14	2.7617E-01
544.48	2.7479E-01
544.82	2.7815E-01
545.16	2.7822E-01
545.50	2.7693E-01
545.84	2.7935E-01
546.18	2.7766E-01
546.52	2.8083E-01
546.86	2.7844E-01
547.20	2.8230E-01
547.54	2.8562E-01
547.88	2.8044E-01
548.22	2.8124E-01
548.56	2.8246E-01
548.90	2.8085E-01
549.24	2.8316E-01
549.58	2.8395E-01
549.92	2.8227E-01
550.26	2.8670E-01
550.60	2.8290E-01
550.94	2.8139E-01
551.28	2.8538E-01
551.62	2.8326E-01
551.96	2.8616E-01
552.30	2.8735E-01
552.64	2.8626E-01
552.98	2.8621E-01
553.32	2.8667E-01
553.66	2.8532E-01
554.00	2.8605E-01
554.34	2.8685E-01
554.68	2.8782E-01
555.02	2.8815E-01
555.36	2.8941E-01
555.69	2.8820E-01
556.03	2.8776E-01
556.37	2.8917E-01
556.71	2.8665E-01
557.05	2.8593E-01
557.39	2.8668E-01
557.73	2.8730E-01
558.07	2.8959E-01
558.41	2.8830E-01
558.75	2.8861E-01
559.08	2.8894E-01
559.42	2.8609E-01
559.76	2.9075E-01
560.10	2.9014E-01
560.44	2.9011E-01
560.78	2.8727E-01
561.12	2.8914E-01
561.45	2.8889E-01
561.79	2.9011E-01
562.13	2.9003E-01
562.47	2.8989E-01
562.81	2.9033E-01
563.15	2.9021E-01
563.48	2.9076E-01
563.82	2.8727E-01
564.16	2.8971E-01
564.50	2.8996E-01
564.84	2.9077E-01
565.17	2.9107E-01
565.51	2.9050E-01
565.85	2.9308E-01
566.19	2.8939E-01
566.52	2.9306E-01
566.86	2.8966E-01
567.20	2.9260E-01
567.54	2.9152E-01
567.88	2.9197E-01
568.21	2.9184E-01
568.55	2.9327E-01
568.89	2.9321E-01
569.23	2.9296E-01
569.56	2.9269E-01
569.90	2.9376E-01
570.24	2.9587E-01
570.57	2.9590E-01
570.91	2.9632E-01
571.25	2.9204E-01
571.59	2.9561E-01
571.92	2.9538E-01
572.26	2.9633E-01
572.60	2.9903E-01
572.93	2.9728E-01
573.27	3.0025E-01
573.61	3.0094E-01
573.95	2.9622E-01
574.28	3.0107E-01
574.62	3.0135E-01
574.96	3.0176E-01
575.29	3.0108E-01
575.63	3.0566E-01
575.97	3.0482E-01
576.30	3.1186E-01
576.64	3.0777E-01
576.98	3.0702E-01
577.31	3.0894E-01
577.65	3.1201E-01
577.98	3.0974E-01
578.32	3.1245E-01
578.66	3.1426E-01
578.99	3.1506E-01
579.33	3.1618E-01
579.67	3.1373E-01
580.00	3.1773E-01
580.34	3.1710E-01
580.67	3.1894E-01
581.01	3.2137E-01
581.35	3.2253E-01
581.68	3.2398E-01
582.02	3.2254E-01
582.35	3.2526E-01
582.69	3.2528E-01
583.02	3.3023E-01
583.36	3.2694E-01
583.70	3.2634E-01
584.03	3.2868E-01
584.37	3.2702E-01
584.70	3.3360E-01
585.04	3.3369E-01
585.37	3.3209E-01
585.71	3.3700E-01
586.04	3.3591E-01
586.38	3.3349E-01
586.72	3.3813E-01
587.05	3.3984E-01
587.39	3.4103E-01
587.72	3.3888E-01
588.06	3.4180E-01
588.39	3.4129E-01
588.73	3.4476E-01
589.06	3.4240E-01
589.40	3.4768E-01
589.73	3.4918E-01
590.07	3.4986E-01
590.40	3.5044E-01
590.73	3.5437E-01
591.07	3.5099E-01
591.40	3.5860E-01
591.74	3.5045E-01
592.07	3.5522E-01
592.41	3.5663E-01
592.74	3.5781E-01
593.08	3.5569E-01
593.41	3.5813E-01
593.75	3.5552E-01
594.08	3.6093E-01
594.41	3.5927E-01
594.75	3.6042E-01
595.08	3.6033E-01
595.42	3.5644E-01
595.75	3.6222E-01
596.09	3.6187E-01
596.42	3.6010E-01
596.75	3.6435E-01
597.09	3.6637E-01
597.42	3.6281E-01
597.75	3.6726E-01
598.09	3.6793E-01
598.42	3.6520E-01
598.76	3.6728E-01
599.09	3.7221E-01
599.42	3.7193E-01
599.76	3.7017E-01
600.09	3.6912E-01
600.42	3.7458E-01
600.76	3.6744E-01
601.09	3.7164E-01
601.42	3.7561E-01
601.76	3.7142E-01
602.09	3.7011E-01
602.42	3.7296E-01
602.76	3.7163E-01
603.09	3.7043E-01
603.42	3.7737E-01
603.76	3.7333E-01
604.09	3.7302E-01
604.42	3.7586E-01
604.76	3.7314E-01
605.09	3.7900E-01
605.42	3.7547E-01
605.75	3.7720E-01
606.09	3.7520E-01
606.42	3.7663E-01
606.75	3.7816E-01
607.09	3.7862E-01
607.42	3.7921E-01
607.75	3.7976E-01
608.08	3.7843E-01
608.42	3.8175E-01
608.75	3.7730E-01
609.08	3.8165E-01
609.41	3.8143E-01
609.75	3.7934E-01
610.08	3.8132E-01
610.41	3.8372E-01
610.74	3.8256E-01
611.07	3.8284E-01
611.41	3.8217E-01
611.74	3.8339E-01
612.07	3.8582E-01
612.40	3.8014E-01
612.73	3.8428E-01
613.07	3.8648E-01
613.40	3.8215E-01
613.73	3.8069E-01
614.06	3.8453E-01
614.39	3.8556E-01
614.72	3.8730E-01
615.06	3.8648E-01
615.39	3.9111E-01
615.72	3.8495E-01
616.05	3.8827E-01
616.38	3.8956E-01
616.71	3.9040E-01
617.05	3.8782E-01
617.38	3.9042E-01
617.71	3.8827E-01
618.04	3.8990E-01
618.37	3.8761E-01
618.70	3.8892E-01
619.03	3.9022E-01
619.36	3.8439E-01
619.69	3.9270E-01
620.03	3.8859E-01
620.36	3.8911E-01
620.69	3.8718E-01
621.02	3.9037E-01
621.35	3.8943E-01
621.68	3.8567E-01
622.01	3.8500E-01
622.34	3.8697E-01
622.67	3.8579E-01
623.00	3.8737E-01
623.33	3.8833E-01
623.66	3.8531E-01
623.99	3.8611E-01
624.32	3.8506E-01
624.65	3.8621E-01
624.99	3.8643E-01
625.32	3.8748E-01
625.65	3.8697E-01
625.98	3.8116E-01
626.31	3.8613E-01
626.64	3.8681E-01
626.97	3.8733E-01
627.30	3.8478E-01
627.63	3.8660E-01
627.96	3.8322E-01
628.29	3.8343E-01
628.62	3.8708E-01
628.95	3.8653E-01
629.28	3.8072E-01
629.61	3.9283E-01
629.94	3.8699E-01
630.26	3.8802E-01
630.59	3.9020E-01
630.92	3.8776E-01
631.25	3.8985E-01
631.58	3.9408E-01
631.91	3.8849E-01
632.24	3.9669E-01
632.57	3.9264E-01
632.90	3.9300E-01
633.23	3.9359E-01
633.56	3.9583E-01
633.89	3.9651E-01
634.22	3.9818E-01
634.55	3.9906E-01
634.88	4.0363E-01
635.20	4.0260E-01
635.53	4.0544E-01
635.86	4.0542E-01
636.19	4.1023E-01
636.52	4.1180E-01
636.85	4.0836E-01
637.18	4.1332E-01
637.51	4.1000E-01
637.83	4.1425E-01
638.16	4.1032E-01
638.49	4.2237E-01
638.82	4.2067E-01
639.15	4.2378E-01
639.48	4.2715E-01
639.81	4.2950E-01
640.13	4.2547E-01
640.46	4.3171E-01
640.79	4.3123E-01
641.12	4.3566E-01
641.45	4.3472E-01
641.77	4.3196E-01
642.10	4.4202E-01
642.43	4.4274E-01
642.76	4.4456E-01
643.09	4.4261E-01
643.41	4.4627E-01
643.74	4.4635E-01
644.07	4.4634E-01
644.40	4.5000E-01
644.73	4.5483E-01
645.05	4.5680E-01
645.38	4.5989E-01
645.71	4.6119E-01
646.04	4.6109E-01
646.36	4.6054E-01
646.69	4.6737E-01
647.02	4.6787E-01
647.35	4.6497E-01
647.67	4.7103E-01
648.00	4.6936E-01
648.33	4.7550E-01
648.66	4.7266E-01
648.98	4.7908E-01
649.31	4.7786E-01
649.64	4.8029E-01
649.96	4.8469E-01
650.29	4.8658E-01
650.62	4.8709E-01
650.94	4.8715E-01
651.27	4.8700E-01
651.60	4.8761E-01
651.92	4.9592E-01
652.25	4.9718E-01
652.58	4.9579E-01
652.90	4.9818E-01
653.23	4.9849E-01
653.56	5.0039E-01
653.88	5.0183E-01
654.21	5.0243E-01
654.54	5.0458E-01
654.86	5.1080E-01
655.19	5.0484E-01
655.52	5.1304E-01
655.84	5.1160E-01
656.17	5.1460E-01
656.49	5.2007E-01
656.82	5.1410E-01
657.15	5.1994E-01
657.47	5.1963E-01
657.80	5.2048E-01
658.13	5.2188E-01
658.45	5.2529E-01
658.78	5.2432E-01
659.10	5.3050E-01
659.43	5.3012E-01
659.75	5.2841E-01
660.08	5.2685E-01
660.41	5.3359E-01
660.73	5.3418E-01
661.06	5.3796E-01
661.38	5.3630E-01
661.71	5.3845E-01
662.03	5.3817E-01
662.36	5.4534E-01
662.68	5.4414E-01
663.01	5.3734E-01
663.33	5.4210E-01
663.66	5.4663E-01
663.98	5.4318E-01
664.31	5.4327E-01
664.63	5.5467E-01
664.96	5.5087E-01
665.28	5.5480E-01
665.61	5.5343E-01
665.93	5.5492E-01
666.26	5.5766E-01
666.58	5.5839E-01
666.91	5.5399E-01
667.23	5.6039E-01
667.56	5.5395E-01
667.88	5.6281E-01
668.21	5.6215E-01
668.53	5.5936E-01
668.86	5.7107E-01
669.18	5.6309E-01
669.50	5.7485E-01
669.83	5.7289E-01
670.15	5.7510E-01
670.48	5.7381E-01
670.80	5.7165E-01
671.13	5.6879E-01
671.45	5.7585E-01
671.77	5.7912E-01
672.10	5.7504E-01
672.42	5.8348E-01
672.75	5.8036E-01
673.07	5.8531E-01
673.39	5.7943E-01
673.72	5.8333E-01
674.04	5.8722E-01
674.37	5.9160E-01
674.69	5.8779E-01
675.01	5.9261E-01
675.34	5.9466E-01
675.66	5.9559E-01
675.98	5.9019E-01
676.31	5.9934E-01
676.63	6.0051E-01
676.95	5.9681E-01
677.28	6.0169E-01
677.60	6.0257E-01
677.92	6.0005E-01
678.25	6.0699E-01
678.57	6.0838E-01
678.89	6.0616E-01
679.22	6.1531E-01
679.54	6.1271E-01
679.86	6.1350E-01
680.18	6.1531E-01
680.51	6.1669E-01
680.83	6.2320E-01
681.15	6.1641E-01
681.48	6.2095E-01
681.80	6.2522E-01
682.12	6.2120E-01
682.44	6.3127E-01
682.77	6.3200E-01
683.09	6.3591E-01
683.41	6.3267E-01
683.73	6.3855E-01
684.06	6.3764E-01
684.38	6.4040E-01
684.70	6.3783E-01
685.02	6.4482E-01
685.34	6.5137E-01
685.67	6.4564E-01
685.99	6.5353E-01
686.31	6.4835E-01
686.63	6.5931E-01
686.96	6.5605E-01
687.28	6.6339E-01
687.60	6.5390E-01
687.92	6.6193E-01
688.24	6.6875E-01
688.56	6.7037E-01
688.89	6.7194E-01
689.21	6.6861E-01
689.53	6.7286E-01
689.85	6.8279E-01
690.17	6.7754E-01
690.49	6.8850E-01
690.82	6.8784E-01
691.14	6.8798E-01
691.46	6.9153E-01
691.78	6.9649E-01
692.10	6.8826E-01
692.42	6.9587E-01
692.74	7.0194E-01
693.06	7.0358E-01
693.39	7.1502E-01
693.71	7.1630E-01
694.03	7.1640E-01
694.35	7.1892E-01
694.67	7.2080E-01
694.99	7.2813E-01
695.31	7.3007E-01
695.63	7.2922E-01
695.95	7.3549E-01
696.27	7.3304E-01
696.59	7.3921E-01
696.91	7.4976E-01
697.23	7.4899E-01
697.56	7.4677E-01
697.88	7.5507E-01
698.20	7.5400E-01
698.52	7.6160E-01
698.84	7.6696E-01
699.16	7.7339E-01
699.48	7.6517E-01
699.80	7.7585E-01
700.12	7.8243E-01
700.44	7.8383E-01
700.76	7.8561E-01
701.08	7.8997E-01
701.40	7.9355E-01
701.72	8.0224E-01
702.04	8.0155E-01
702.36	8.0766E-01
702.68	8.1112E-01
703.00	8.1784E-01
703.32	8.2181E-01
703.64	8.2267E-01
703.96	8.1407E-01
704.28	8.2622E-01
704.60	8.3720E-01
704.91	8.3909E-01
705.23	8.4030E-01
705.55	8.5018E-01
705.87	8.4420E-01
706.19	8.4683E-01
706.51	8.5315E-01
706.83	8.5697E-01
707.15	8.7877E-01
707.47	8.6147E-01
707.79	8.7727E-01
708.11	8.7803E-01
708.43	8.8218E-01
708.74	8.9078E-01
709.06	9.0309E-01
709.38	8.9722E-01
709.70	8.9174E-01
710.02	9.0439E-01
710.34	9.0108E-01
710.66	9.2309E-01
710.98	9.1784E-01
711.29	9.1772E-01
711.61	9.3381E-01
711.93	9.3873E-01
712.25	9.3104E-01
712.57	9.4409E-01
712.89	9.4798E-01
713.20	9.4914E-01
713.52	9.5784E-01
713.84	9.6631E-01
714.16	9.5994E-01
714.48	9.6252E-01
714.80	9.7848E-01
715.11	9.7568E-01
715.43	9.8862E-01
715.75	9.9481E-01
716.07	1.0060E00
716.39	9.8728E-01
716.70	9.9863E-01
717.02	9.9410E-01
717.34	1.0229E00
717.66	1.0136E00
717.97	1.0258E00
718.29	1.0313E00
718.61	1.0451E00
718.93	1.0449E00
719.24	1.0480E00
719.56	1.0708E00
719.88	1.0614E00
720.20	1.0741E00
720.51	1.0883E00
720.83	1.0835E00
721.15	1.1056E00
721.46	1.1018E00
721.78	1.1091E00
722.10	1.1244E00
722.42	1.1350E00
722.73	1.1423E00
723.05	1.1269E00
723.37	1.1442E00
723.68	1.1553E00
724.00	1.1561E00
724.32	1.1764E00
724.63	1.1729E00
724.95	1.1672E00
725.27	1.1779E00
725.58	1.1856E00
725.90	1.1857E00
726.22	1.2055E00
726.53	1.1802E00
726.85	1.1970E00
727.16	1.2213E00
727.48	1.2015E00
727.80	1.2134E00
728.11	1.2190E00
728.43	1.2164E00
728.74	1.2108E00
729.06	1.2330E00
729.38	1.2281E00
729.69	1.2340E00
730.01	1.2429E00
730.32	1.2523E00
730.64	1.2493E00
730.96	1.2374E00
731.27	1.2712E00
731.59	1.2420E00
731.90	1.2575E00
732.22	1.2668E00
732.53	1.2659E00
732.85	1.2818E00
733.16	1.2773E00
733.48	1.2846E00
733.80	1.2767E00
734.11	1.3003E00
734.43	1.2992E00
734.74	1.2979E00
735.06	1.3154E00
735.37	1.3257E00
735.69	1.3080E00
736.00	1.3234E00
736.32	1.3246E00
736.63	1.3326E00
736.95	1.3319E00
737.26	1.3567E00
737.58	1.3546E00
737.89	1.3645E00
738.21	1.3523E00
738.52	1.3607E00
738.83	1.3658E00
739.15	1.3635E00
739.46	1.3832E00
739.78	1.3783E00
740.09	1.3957E00
740.41	1.3875E00
740.72	1.3825E00
741.04	1.3842E00
741.35	1.3860E00
741.66	1.4099E00
741.98	1.4001E00
742.29	1.4094E00
742.61	1.4025E00
742.92	1.4063E00
743.23	1.4062E00
743.55	1.4156E00
743.86	1.4043E00
744.18	1.4128E00
744.49	1.4154E00
744.80	1.4147E00
745.12	1.4161E00
745.43	1.4195E00
745.74	1.4191E00
746.06	1.4082E00
746.37	1.4075E00
746.68	1.4176E00
747.00	1.4151E00
747.31	1.4039E00
747.62	1.3943E00
747.94	1.4174E00
748.25	1.4190E00
748.56	1.4221E00
748.88	1.4015E00
749.19	1.4119E00
749.50	1.4143E00
749.82	1.4048E00
750.13	1.4149E00
750.44	1.4152E00
750.75	1.3983E00
751.07	1.4184E00
751.38	1.4262E00
751.69	1.3999E00
752.01	1.4170E00
752.32	1.4169E00
752.63	1.4193E00
752.94	1.4282E00
753.26	1.4346E00
753.57	1.4207E00
753.88	1.4300E00
754.19	1.4295E00
754.51	1.4334E00
754.82	1.4289E00
755.13	1.4447E00
755.44	1.4426E00
755.75	1.4476E00
756.07	1.4471E00
756.38	1.4640E00
756.69	1.4604E00
757.00	1.4704E00
757.31	1.4874E00
757.63	1.4952E00
757.94	1.4988E00
758.25	1.5149E00
758.56	1.4776E00
758.87	1.5281E00
759.18	1.5329E00
759.50	1.5290E00
759.81	1.5236E00
760.12	1.5347E00
760.43	1.5473E00
760.74	1.5397E00
761.05	1.5712E00
761.36	1.5770E00
761.67	1.5880E00
761.99	1.5988E00
762.30	1.5762E00
762.61	1.6131E00
762.92	1.6094E00
763.23	1.6120E00
763.54	1.6282E00
763.85	1.6544E00
764.16	1.6595E00
764.47	1.6787E00
764.78	1.6908E00
765.10	1.6923E00
765.41	1.6933E00
765.72	1.7037E00
766.03	1.7429E00
766.34	1.7556E00
766.65	1.7663E00
766.96	1.8025E00
767.27	1.7886E00
767.58	1.7911E00
767.89	1.8107E00
768.20	1.8373E00
768.51	1.8364E00
768.82	1.8418E00
769.13	1.8763E00
769.44	1.9023E00
769.75	1.9012E00
770.06	1.9035E00
770.37	1.9027E00
770.68	1.9475E00
770.99	1.9629E00
771.30	1.9745E00
771.61	2.0333E00
771.92	1.9885E00
772.23	2.0149E00
772.54	2.0594E00
772.85	2.0400E00
773.16	2.0615E00
773.47	2.1214E00
773.78	2.1077E00
774.09	2.1395E00
774.39	2.1426E00
774.70	2.1483E00
775.01	2.1911E00
775.32	2.2016E00
775.63	2.2241E00
775.94	2.2488E00
776.25	2.2358E00
776.56	2.2587E00
776.87	2.3161E00
777.18	2.3096E00
777.48	2.3341E00
777.79	2.3556E00
778.10	2.3771E00
778.41	2.3954E00
778.72	2.4235E00
779.03	2.4347E00
779.34	2.4869E00
779.65	2.4873E00
779.95	2.5339E00
780.26	2.5102E00
780.57	2.5554E00
780.88	2.5470E00
781.19	2.5956E00
781.50	2.5981E00
781.80	2.6203E00
782.11	2.6267E00
782.42	2.6899E00
782.73	2.6408E00
783.04	2.7420E00
783.34	2.7429E00
783.65	2.7640E00
783.96	2.7720E00
784.27	2.7860E00
784.57	2.8106E00
784.88	2.8432E00
785.19	2.8586E00
785.50	2.8925E00
785.81	2.9288E00
786.11	2.8904E00
786.42	2.9217E00
786.73	2.9522E00
787.04	2.9874E00
787.34	3.0398E00
787.65	3.0502E00
787.96	3.1236E00
788.26	3.0998E00
788.57	3.1635E00
788.88	3.1259E00
789.19	3.2257E00
789.49	3.1953E00
789.80	3.2526E00
790.11	3.2623E00
790.41	3.2935E00
790.72	3.3264E00
791.03	3.3424E00
791.33	3.3757E00
791.64	3.4511E00
791.95	3.3916E00
792.25	3.5016E00
792.56	3.4671E00
792.87	3.5184E00
793.17	3.5445E00
793.48	3.5585E00
793.79	3.5909E00
794.09	3.6634E00
794.40	3.6116E00
794.70	3.6224E00
795.01	3.6358E00
795.32	3.6855E00
795.62	3.7571E00
795.93	3.7653E00
796.23	3.7763E00
796.54	3.8282E00
796.85	3.8132E00
797.15	3.8613E00
797.46	3.8910E00
797.76	3.9946E00
798.07	3.9789E00
798.37	3.9824E00
798.68	4.0429E00
798.99	4.0442E00
799.29	4.0843E00
799.60	4.1575E00
799.90	4.1602E00
800.21	4.2181E00
800.51	4.2515E00
800.82	4.2428E00
801.12	4.3182E00
801.43	4.3088E00
801.73	4.4012E00
802.04	4.3907E00
802.34	4.3828E00
802.65	4.4378E00
802.95	4.5891E00
803.26	4.5502E00
803.56	4.4709E00
803.87	4.5446E00
804.17	4.5790E00
804.48	4.5711E00
804.78	4.6579E00
805.09	4.7395E00
805.39	4.7034E00
805.70	4.7307E00
806.00	4.8035E00
806.30	4.8016E00
806.61	4.8686E00
806.91	4.8968E00
807.22	4.9489E00
807.52	4.9731E00
807.83	4.9951E00
808.13	5.0546E00
808.43	4.9583E00
808.74	5.0917E00
809.04	5.1349E00
809.35	5.1099E00
809.65	5.2357E00
809.95	5.2618E00
810.26	5.3193E00
810.56	5.3411E00
810.86	5.4137E00
811.17	5.4536E00
811.47	5.4473E00
811.77	5.4469E00
812.08	5.4386E00
812.38	5.6090E00
812.69	5.4940E00
812.99	5.6761E00
813.29	5.7081E00
813.59	5.7527E00
813.90	5.7702E00
814.20	5.7774E00
814.50	5.8610E00
814.81	5.7907E00
815.11	5.9276E00
815.41	6.0732E00
815.72	5.9989E00
816.02	6.0368E00
816.32	6.0597E00
816.62	6.0135E00
816.93	6.1254E00
817.23	6.3140E00
817.53	6.1985E00
817.84	6.3232E00
818.14	6.3178E00
818.44	6.2958E00
818.74	6.4837E00
819.04	6.6069E00
819.35	6.5275E00
819.65	6.5770E00
819.95	6.7489E00
820.25	6.7569E00
820.56	6.7416E00
820.86	6.8249E00
821.16	6.8852E00
821.46	6.8821E00
821.76	6.9141E00
822.07	6.8644E00
822.37	6.9843E00
822.67	7.1063E00
822.97	7.1550E00
823.27	7.1417E00
823.57	7.2489E00
823.88	7.2152E00
824.18	7.3360E00
824.48	7.3173E00
824.78	7.4126E00
825.08	7.3797E00
825.38	7.5085E00
825.69	7.5100E00
825.99	7.6213E00
826.29	7.6640E00
826.59	7.6281E00
826.89	7.7743E00
827.19	7.5720E00
827.49	8.0667E00
827.79	7.9528E00
828.09	7.8844E00
828.39	8.0782E00
828.70	8.0506E00
829.00	8.0364E00
829.30	8.1811E00
829.60	8.3108E00
829.90	8.1970E00
830.20	8.1341E00
830.50	8.4956E00
830.80	8.5413E00
831.10	8.3770E00
831.40	8.6783E00
831.70	8.5840E00
832.00	8.6302E00
832.30	8.8808E00
832.60	8.7487E00
832.90	8.9153E00
833.20	9.0862E00
833.50	8.8799E00
833.80	9.0451E00
834.10	9.1324E00
834.40	8.9747E00
834.70	9.1774E00
835.00	9.2287E00
835.30	9.1795E00
835.60	9.3380E00
835.90	9.4188E00
836.20	9.6433E00
836.50	9.6319E00
836.80	9.6439E00
837.10	9.5843E00
837.40	9.7722E00
837.70	9.8304E00
838.00	9.8272E00
838.30	9.7938E00
838.60	1.0181E01
838.90	1.0169E01
839.19	1.0061E01
839.49	1.0452E01
839.79	1.0315E01
840.09	1.0421E01
840.39	1.0261E01
840.69	1.0459E01
840.99	1.1028E01
841.29	1.0864E01
841.59	1.0891E01
841.88	1.0951E01
842.18	1.1019E01
842.48	1.1292E01
842.78	1.1234E01
843.08	1.1356E01
843.38	1.1197E01
843.68	1.1543E01
843.97	1.1589E01
844.27	1.1641E01
844.57	1.1839E01
844.87	1.1904E01
845.17	1.1790E01
845.47	1.1643E01
845.76	1.1984E01
846.06	1.2191E01
846.36	1.2070E01
846.66	1.2330E01
846.96	1.2260E01
847.25	1.2301E01
847.55	1.2404E01
847.85	1.2713E01
848.15	1.2498E01
848.44	1.2899E01
848.74	1.2579E01
849.04	1.2923E01
849.34	1.2999E01
849.63	1.3280E01
849.93	1.3224E01
850.23	1.3755E01
850.53	1.3176E01
850.82	1.3542E01
851.12	1.3518E01
851.42	1.3359E01
851.71	1.3719E01
852.01	1.4019E01
852.31	1.4255E01
852.61	1.4332E01
852.90	1.4353E01
853.20	1.4481E01
853.50	1.4713E01
853.79	1.5086E01
854.09	1.4545E01
854.39	1.4776E01
854.68	1.5587E01
854.98	1.5350E01
855.28	1.5320E01
855.57	1.5508E01
855.87	1.5565E01
856.17	1.5634E01
856.46	1.5599E01
856.76	1.5753E01
857.05	1.6035E01
857.35	1.6150E01
857.65	1.5961E01
857.94	1.6369E01
858.24	1.6320E01
858.53	1.6744E01
858.83	1.6678E01
859.13	1.6956E01
859.42	1.6789E01
859.72	1.7368E01
860.01	1.7981E01
860.31	1.7546E01
860.60	1.7959E01
860.90	1.7914E01
861.20	1.8166E01
861.49	1.7881E01
861.79	1.8699E01
862.08	1.8745E01
862.38	1.9088E01
862.67	1.9022E01
862.97	1.9155E01
863.26	1.8983E01
863.56	2.0015E01
863.85	1.9873E01
864.15	1.9615E01
864.44	2.0305E01
864.74	2.0095E01
865.03	2.0264E01
865.33	2.0439E01
865.62	2.0923E01
865.92	2.0683E01
866.21	2.2061E01
866.51	2.1896E01
866.80	2.1788E01
867.10	2.2247E01
867.39	2.1886E01
867.69	2.2786E01
867.98	2.1854E01
868.27	2.2598E01
868.57	2.2627E01
868.86	2.3965E01
869.16	2.3609E01
869.45	2.3761E01
869.75	2.3153E01
870.04	2.4110E01
870.33	2.4372E01
870.63	2.4125E01
870.92	2.5290E01
871.22	2.5635E01
871.51	2.5204E01
871.80	2.5492E01
872.10	2.5492E01
>>>>>End Processed Spectral Data<<<<<
