SpectraSuite Data File
++++++++++++++++++++++++++++++++++++
Date: Tue May 12 10:22:11 PDT 2015
User: schluterlab
Dark Spectrum Present: Yes
Reference Spectrum Present: No
Number of Sampled Component Spectra: 1
Spectrometers: USB2E3373
Integration Time (usec): 2000000 (USB2E3373)
Spectra Averaged: 3 (USB2E3373)
Boxcar Smoothing: 0 (USB2E3373)
Correct for Electrical Dark: No (USB2E3373)
Strobe/Lamp Enabled: No (USB2E3373)
Correct for Detector Non-linearity: No (USB2E3373)
Correct for Stray Light: No (USB2E3373)
Number of Pixels in Processed Spectrum: 2048
>>>>>Begin Processed Spectral Data<<<<<
178.53	0.0000E00
178.91	0.0000E00
179.29	0.0000E00
179.67	0.0000E00
180.04	0.0000E00
180.42	0.0000E00
180.80	0.0000E00
181.18	0.0000E00
181.56	0.0000E00
181.94	0.0000E00
182.31	0.0000E00
182.69	0.0000E00
183.07	0.0000E00
183.45	0.0000E00
183.83	0.0000E00
184.20	0.0000E00
184.58	0.0000E00
184.96	0.0000E00
185.34	0.0000E00
185.72	0.0000E00
186.09	0.0000E00
186.47	0.0000E00
186.85	0.0000E00
187.23	0.0000E00
187.61	0.0000E00
187.98	0.0000E00
188.36	0.0000E00
188.74	0.0000E00
189.12	0.0000E00
189.49	0.0000E00
189.87	0.0000E00
190.25	0.0000E00
190.63	0.0000E00
191.00	0.0000E00
191.38	0.0000E00
191.76	0.0000E00
192.14	0.0000E00
192.51	0.0000E00
192.89	0.0000E00
193.27	0.0000E00
193.65	0.0000E00
194.02	0.0000E00
194.40	0.0000E00
194.78	0.0000E00
195.15	0.0000E00
195.53	-0.0000E00
195.91	0.0000E00
196.29	0.0000E00
196.66	0.0000E00
197.04	0.0000E00
197.42	0.0000E00
197.79	0.0000E00
198.17	0.0000E00
198.55	0.0000E00
198.92	0.0000E00
199.30	0.0000E00
199.68	0.0000E00
200.05	0.0000E00
200.43	0.0000E00
200.81	0.0000E00
201.18	0.0000E00
201.56	0.0000E00
201.94	0.0000E00
202.31	-0.0000E00
202.69	0.0000E00
203.07	0.0000E00
203.44	0.0000E00
203.82	0.0000E00
204.19	0.0000E00
204.57	0.0000E00
204.95	0.0000E00
205.32	0.0000E00
205.70	0.0000E00
206.08	0.0000E00
206.45	0.0000E00
206.83	0.0000E00
207.20	0.0000E00
207.58	0.0000E00
207.96	0.0000E00
208.33	0.0000E00
208.71	0.0000E00
209.08	0.0000E00
209.46	0.0000E00
209.84	0.0000E00
210.21	0.0000E00
210.59	0.0000E00
210.96	0.0000E00
211.34	0.0000E00
211.71	0.0000E00
212.09	0.0000E00
212.46	0.0000E00
212.84	0.0000E00
213.22	0.0000E00
213.59	0.0000E00
213.97	0.0000E00
214.34	0.0000E00
214.72	0.0000E00
215.09	0.0000E00
215.47	0.0000E00
215.84	0.0000E00
216.22	0.0000E00
216.59	0.0000E00
216.97	0.0000E00
217.34	0.0000E00
217.72	0.0000E00
218.09	0.0000E00
218.47	0.0000E00
218.84	0.0000E00
219.22	0.0000E00
219.59	0.0000E00
219.97	0.0000E00
220.34	0.0000E00
220.72	0.0000E00
221.09	0.0000E00
221.47	0.0000E00
221.84	0.0000E00
222.22	0.0000E00
222.59	0.0000E00
222.97	0.0000E00
223.34	0.0000E00
223.72	0.0000E00
224.09	0.0000E00
224.46	0.0000E00
224.84	0.0000E00
225.21	0.0000E00
225.59	0.0000E00
225.96	0.0000E00
226.34	0.0000E00
226.71	0.0000E00
227.08	0.0000E00
227.46	0.0000E00
227.83	0.0000E00
228.21	0.0000E00
228.58	0.0000E00
228.95	0.0000E00
229.33	0.0000E00
229.70	0.0000E00
230.08	0.0000E00
230.45	0.0000E00
230.82	0.0000E00
231.20	0.0000E00
231.57	0.0000E00
231.95	0.0000E00
232.32	0.0000E00
232.69	0.0000E00
233.07	0.0000E00
233.44	0.0000E00
233.81	0.0000E00
234.19	0.0000E00
234.56	0.0000E00
234.93	0.0000E00
235.31	0.0000E00
235.68	0.0000E00
236.05	0.0000E00
236.43	0.0000E00
236.80	0.0000E00
237.17	0.0000E00
237.55	0.0000E00
237.92	0.0000E00
238.29	0.0000E00
238.67	0.0000E00
239.04	0.0000E00
239.41	0.0000E00
239.79	0.0000E00
240.16	0.0000E00
240.53	0.0000E00
240.91	0.0000E00
241.28	0.0000E00
241.65	0.0000E00
242.02	0.0000E00
242.40	0.0000E00
242.77	0.0000E00
243.14	0.0000E00
243.51	0.0000E00
243.89	0.0000E00
244.26	0.0000E00
244.63	0.0000E00
245.00	0.0000E00
245.38	0.0000E00
245.75	0.0000E00
246.12	0.0000E00
246.49	0.0000E00
246.87	0.0000E00
247.24	0.0000E00
247.61	0.0000E00
247.98	0.0000E00
248.36	0.0000E00
248.73	0.0000E00
249.10	0.0000E00
249.47	0.0000E00
249.84	0.0000E00
250.22	0.0000E00
250.59	0.0000E00
250.96	0.0000E00
251.33	0.0000E00
251.70	0.0000E00
252.08	0.0000E00
252.45	0.0000E00
252.82	0.0000E00
253.19	0.0000E00
253.56	0.0000E00
253.94	0.0000E00
254.31	0.0000E00
254.68	0.0000E00
255.05	0.0000E00
255.42	0.0000E00
255.79	0.0000E00
256.16	0.0000E00
256.54	0.0000E00
256.91	0.0000E00
257.28	0.0000E00
257.65	0.0000E00
258.02	0.0000E00
258.39	0.0000E00
258.76	0.0000E00
259.14	0.0000E00
259.51	0.0000E00
259.88	0.0000E00
260.25	0.0000E00
260.62	0.0000E00
260.99	0.0000E00
261.36	0.0000E00
261.73	0.0000E00
262.10	0.0000E00
262.47	0.0000E00
262.85	0.0000E00
263.22	0.0000E00
263.59	0.0000E00
263.96	0.0000E00
264.33	0.0000E00
264.70	0.0000E00
265.07	0.0000E00
265.44	0.0000E00
265.81	0.0000E00
266.18	0.0000E00
266.55	0.0000E00
266.92	0.0000E00
267.29	0.0000E00
267.66	0.0000E00
268.03	0.0000E00
268.40	0.0000E00
268.77	0.0000E00
269.14	0.0000E00
269.51	0.0000E00
269.88	0.0000E00
270.25	0.0000E00
270.62	0.0000E00
270.99	0.0000E00
271.36	0.0000E00
271.73	0.0000E00
272.10	0.0000E00
272.47	0.0000E00
272.84	0.0000E00
273.21	0.0000E00
273.58	0.0000E00
273.95	0.0000E00
274.32	0.0000E00
274.69	0.0000E00
275.06	0.0000E00
275.43	0.0000E00
275.80	0.0000E00
276.17	0.0000E00
276.54	0.0000E00
276.91	0.0000E00
277.28	0.0000E00
277.65	0.0000E00
278.02	0.0000E00
278.39	0.0000E00
278.76	0.0000E00
279.13	0.0000E00
279.50	0.0000E00
279.87	0.0000E00
280.23	0.0000E00
280.60	0.0000E00
280.97	0.0000E00
281.34	0.0000E00
281.71	0.0000E00
282.08	0.0000E00
282.45	0.0000E00
282.82	0.0000E00
283.19	0.0000E00
283.56	0.0000E00
283.92	0.0000E00
284.29	0.0000E00
284.66	0.0000E00
285.03	0.0000E00
285.40	0.0000E00
285.77	0.0000E00
286.14	0.0000E00
286.51	0.0000E00
286.87	0.0000E00
287.24	0.0000E00
287.61	0.0000E00
287.98	0.0000E00
288.35	0.0000E00
288.72	0.0000E00
289.08	0.0000E00
289.45	0.0000E00
289.82	0.0000E00
290.19	0.0000E00
290.56	0.0000E00
290.93	0.0000E00
291.29	0.0000E00
291.66	0.0000E00
292.03	0.0000E00
292.40	0.0000E00
292.77	0.0000E00
293.13	0.0000E00
293.50	0.0000E00
293.87	0.0000E00
294.24	0.0000E00
294.60	0.0000E00
294.97	0.0000E00
295.34	0.0000E00
295.71	0.0000E00
296.08	0.0000E00
296.44	0.0000E00
296.81	0.0000E00
297.18	0.0000E00
297.55	0.0000E00
297.91	0.0000E00
298.28	0.0000E00
298.65	0.0000E00
299.02	0.0000E00
299.38	0.0000E00
299.75	0.0000E00
300.12	4.6587E-01
300.48	1.1577E00
300.85	4.8547E-01
301.22	1.2778E00
301.59	3.8348E-01
301.95	4.5435E-01
302.32	6.8395E-01
302.69	6.8546E-01
303.05	4.1227E-01
303.42	5.5321E-01
303.79	6.2571E-01
304.15	3.8914E-01
304.52	4.5902E-01
304.89	4.2931E-01
305.25	8.5227E-01
305.62	5.3939E-01
305.99	6.5934E-01
306.35	3.9078E-01
306.72	5.2581E-01
307.09	4.4866E-01
307.45	4.5693E-01
307.82	3.2894E-01
308.19	4.1655E-01
308.55	4.7956E-01
308.92	5.5527E-01
309.29	4.6389E-01
309.65	5.7231E-01
310.02	4.1803E-01
310.38	4.3520E-01
310.75	5.7783E-01
311.12	5.5326E-01
311.48	9.5703E-01
311.85	6.1557E-01
312.22	4.3293E-01
312.58	1.0001E00
312.95	6.1719E-01
313.31	5.8834E-01
313.68	7.6258E-01
314.05	1.2687E00
314.41	7.0127E-01
314.78	4.2312E-01
315.14	7.7155E-01
315.51	1.4735E00
315.87	6.4366E-01
316.24	9.4890E-01
316.61	8.9096E-01
316.97	6.1064E-01
317.34	1.0111E00
317.70	8.0320E-01
318.07	8.1399E-01
318.43	9.6234E-01
318.80	7.2430E-01
319.16	9.2153E-01
319.53	6.4550E-01
319.89	1.3383E00
320.26	1.0270E00
320.62	1.2684E00
320.99	1.1211E00
321.35	6.5452E-01
321.72	8.7890E-01
322.08	1.3804E00
322.45	8.1642E-01
322.81	9.0023E-01
323.18	2.7851E00
323.54	1.4762E00
323.91	1.1375E00
324.27	2.3204E00
324.64	1.7893E00
325.00	1.3491E00
325.37	2.2798E00
325.73	8.6813E-01
326.10	3.0791E00
326.46	1.4516E00
326.83	1.2268E00
327.19	2.6132E00
327.56	1.0217E00
327.92	1.4772E00
328.29	1.1626E00
328.65	1.4968E00
329.01	1.8052E00
329.38	1.1947E00
329.74	1.0854E00
330.11	1.6129E00
330.47	1.0764E00
330.84	1.5228E00
331.20	1.5296E00
331.56	1.4064E00
331.93	1.5878E00
332.29	1.4970E00
332.66	1.0442E00
333.02	1.2557E00
333.38	1.8810E00
333.75	8.8245E-01
334.11	1.4242E00
334.48	1.3971E00
334.84	1.3041E00
335.20	1.6093E00
335.57	3.0043E00
335.93	1.9955E00
336.29	1.5371E00
336.66	1.4663E00
337.02	1.0261E00
337.38	1.2562E00
337.75	1.2521E00
338.11	1.0663E00
338.47	1.5058E00
338.84	1.2528E00
339.20	1.0440E00
339.56	3.0765E00
339.93	9.6768E-01
340.29	1.1499E00
340.65	1.2551E00
341.02	2.1047E00
341.38	1.4337E00
341.74	1.5439E00
342.11	1.5025E00
342.47	1.5134E00
342.83	8.3171E-01
343.20	1.9195E00
343.56	1.1624E00
343.92	1.6178E00
344.28	1.0764E00
344.65	1.7094E00
345.01	1.0063E00
345.37	1.6275E00
345.73	1.4479E00
346.10	1.2432E00
346.46	1.4760E00
346.82	1.1257E00
347.19	2.5567E00
347.55	1.0525E00
347.91	1.0616E00
348.27	1.1922E00
348.63	1.0371E00
349.00	1.0245E00
349.36	2.0646E00
349.72	1.2862E00
350.08	1.8764E00
350.45	1.0718E00
350.81	9.9972E-01
351.17	1.3159E00
351.53	1.4239E00
351.89	1.1617E00
352.26	1.3338E00
352.62	1.1031E00
352.98	1.2838E00
353.34	1.1337E00
353.70	1.4977E00
354.07	1.0984E00
354.43	1.0418E00
354.79	1.2255E00
355.15	9.7858E-01
355.51	9.3481E-01
355.87	1.0574E00
356.24	1.1032E00
356.60	1.0673E00
356.96	1.1559E00
357.32	1.0393E00
357.68	9.7651E-01
358.04	8.8126E-01
358.40	9.7189E-01
358.77	9.0461E-01
359.13	1.0707E00
359.49	1.1379E00
359.85	1.1068E00
360.21	8.3406E-01
360.57	1.0172E00
360.93	1.0096E00
361.29	1.0700E00
361.66	8.8865E-01
362.02	8.1942E-01
362.38	1.0684E00
362.74	9.2999E-01
363.10	9.8152E-01
363.46	1.1410E00
363.82	9.7544E-01
364.18	1.1678E00
364.54	1.1075E00
364.90	1.0555E00
365.26	1.0362E00
365.62	1.1849E00
365.98	1.0324E00
366.35	8.2709E-01
366.71	1.0021E00
367.07	1.2840E00
367.43	8.1272E-01
367.79	1.1597E00
368.15	1.0639E00
368.51	1.2609E00
368.87	1.1028E00
369.23	1.1788E00
369.59	9.2699E-01
369.95	1.0044E00
370.31	9.5795E-01
370.67	1.1332E00
371.03	9.5677E-01
371.39	9.3536E-01
371.75	9.4322E-01
372.11	9.7378E-01
372.47	8.9531E-01
372.83	9.0413E-01
373.19	7.5547E-01
373.55	9.8921E-01
373.91	1.0093E00
374.27	1.0895E00
374.63	1.0616E00
374.99	9.6474E-01
375.35	9.2678E-01
375.71	9.4460E-01
376.07	9.5300E-01
376.42	9.4275E-01
376.78	8.5536E-01
377.14	9.7014E-01
377.50	1.0597E00
377.86	9.0211E-01
378.22	8.5040E-01
378.58	8.5127E-01
378.94	8.2560E-01
379.30	8.6706E-01
379.66	8.5476E-01
380.02	8.3657E-01
380.38	8.1286E-01
380.74	8.5146E-01
381.09	8.9378E-01
381.45	8.2354E-01
381.81	7.9745E-01
382.17	8.4060E-01
382.53	8.7356E-01
382.89	7.8187E-01
383.25	8.2272E-01
383.61	8.1298E-01
383.97	7.8872E-01
384.32	7.8708E-01
384.68	7.5134E-01
385.04	8.3452E-01
385.40	8.5939E-01
385.76	8.5623E-01
386.12	8.0494E-01
386.48	8.1790E-01
386.83	7.6369E-01
387.19	7.6136E-01
387.55	8.5224E-01
387.91	8.2377E-01
388.27	7.6983E-01
388.62	8.6580E-01
388.98	7.8443E-01
389.34	8.7028E-01
389.70	7.9063E-01
390.06	8.1580E-01
390.42	8.2290E-01
390.77	8.0320E-01
391.13	8.1910E-01
391.49	8.0324E-01
391.85	8.4792E-01
392.20	7.4953E-01
392.56	7.5943E-01
392.92	7.6993E-01
393.28	7.7296E-01
393.64	8.0816E-01
393.99	8.2306E-01
394.35	8.0935E-01
394.71	7.9980E-01
395.07	7.8319E-01
395.42	7.8665E-01
395.78	8.0129E-01
396.14	7.2266E-01
396.50	7.2581E-01
396.85	7.9719E-01
397.21	7.6784E-01
397.57	7.8897E-01
397.92	7.3812E-01
398.28	7.1394E-01
398.64	8.4922E-01
399.00	6.8432E-01
399.35	7.1196E-01
399.71	7.6427E-01
400.07	7.4527E-01
400.42	7.2741E-01
400.78	7.4497E-01
401.14	7.4983E-01
401.49	6.9423E-01
401.85	6.9037E-01
402.21	7.0076E-01
402.57	6.9696E-01
402.92	7.3462E-01
403.28	6.9890E-01
403.63	6.9552E-01
403.99	7.1159E-01
404.35	6.9065E-01
404.70	6.7781E-01
405.06	6.8856E-01
405.42	7.0410E-01
405.77	6.5425E-01
406.13	6.5427E-01
406.49	6.4979E-01
406.84	6.5696E-01
407.20	6.4185E-01
407.55	6.9279E-01
407.91	7.0488E-01
408.27	6.6001E-01
408.62	6.6430E-01
408.98	6.7208E-01
409.34	6.8409E-01
409.69	6.5477E-01
410.05	6.8988E-01
410.40	6.5884E-01
410.76	6.0923E-01
411.11	6.1413E-01
411.47	6.6613E-01
411.83	6.3109E-01
412.18	6.4336E-01
412.54	6.3141E-01
412.89	6.2665E-01
413.25	6.5014E-01
413.60	6.7827E-01
413.96	6.3696E-01
414.31	6.4019E-01
414.67	6.7587E-01
415.03	6.6322E-01
415.38	6.7955E-01
415.74	6.7106E-01
416.09	6.6675E-01
416.45	6.7540E-01
416.80	6.6240E-01
417.16	6.5730E-01
417.51	6.5355E-01
417.87	6.2923E-01
418.22	6.2183E-01
418.58	6.3548E-01
418.93	6.0833E-01
419.29	6.5159E-01
419.64	6.3276E-01
420.00	5.9781E-01
420.35	5.8745E-01
420.71	6.1644E-01
421.06	6.1910E-01
421.42	6.3494E-01
421.77	6.2584E-01
422.12	6.2439E-01
422.48	5.9102E-01
422.83	6.3130E-01
423.19	5.9691E-01
423.54	5.9695E-01
423.90	6.0470E-01
424.25	5.7110E-01
424.61	6.2916E-01
424.96	5.8898E-01
425.31	5.8548E-01
425.67	5.6157E-01
426.02	5.8663E-01
426.38	5.8586E-01
426.73	5.5468E-01
427.09	5.8133E-01
427.44	5.5698E-01
427.79	5.6300E-01
428.15	5.8006E-01
428.50	5.7600E-01
428.85	5.9060E-01
429.21	5.4453E-01
429.56	5.3294E-01
429.92	5.4351E-01
430.27	5.6165E-01
430.62	5.6084E-01
430.98	5.6809E-01
431.33	5.5499E-01
431.68	5.3642E-01
432.04	5.3248E-01
432.39	5.4025E-01
432.74	5.6007E-01
433.10	5.2497E-01
433.45	5.5542E-01
433.80	5.5211E-01
434.16	5.6499E-01
434.51	5.3780E-01
434.86	5.5975E-01
435.22	5.3963E-01
435.57	5.7659E-01
435.92	5.6571E-01
436.28	5.6300E-01
436.63	5.2214E-01
436.98	5.5802E-01
437.34	5.5405E-01
437.69	5.2659E-01
438.04	5.1274E-01
438.39	5.4906E-01
438.75	5.6183E-01
439.10	5.0680E-01
439.45	5.5048E-01
439.81	5.4495E-01
440.16	5.1207E-01
440.51	5.3479E-01
440.86	5.3325E-01
441.22	5.2143E-01
441.57	5.2639E-01
441.92	5.1097E-01
442.27	5.3624E-01
442.63	5.2497E-01
442.98	5.6062E-01
443.33	5.4895E-01
443.68	5.1047E-01
444.03	4.8164E-01
444.39	4.8406E-01
444.74	5.2539E-01
445.09	5.3312E-01
445.44	5.3422E-01
445.79	4.7157E-01
446.15	5.0643E-01
446.50	5.2326E-01
446.85	4.9268E-01
447.20	4.7890E-01
447.55	5.1774E-01
447.91	4.9830E-01
448.26	5.1114E-01
448.61	5.0650E-01
448.96	4.9610E-01
449.31	5.0373E-01
449.66	5.0843E-01
450.02	5.0060E-01
450.37	5.0142E-01
450.72	4.9437E-01
451.07	5.3303E-01
451.42	5.2946E-01
451.77	5.0049E-01
452.12	4.9995E-01
452.47	5.2291E-01
452.83	4.8094E-01
453.18	5.0863E-01
453.53	5.0297E-01
453.88	4.7358E-01
454.23	4.6755E-01
454.58	4.6768E-01
454.93	5.0191E-01
455.28	4.9930E-01
455.63	4.8498E-01
455.98	4.7366E-01
456.34	4.9874E-01
456.69	4.8401E-01
457.04	4.8764E-01
457.39	4.5750E-01
457.74	4.6671E-01
458.09	4.5455E-01
458.44	4.5361E-01
458.79	4.4410E-01
459.14	4.5874E-01
459.49	4.7778E-01
459.84	4.5108E-01
460.19	4.8033E-01
460.54	4.7693E-01
460.89	4.3997E-01
461.24	4.8134E-01
461.59	4.6033E-01
461.94	4.6655E-01
462.29	4.3619E-01
462.64	4.6126E-01
462.99	4.6580E-01
463.34	4.9287E-01
463.69	4.6145E-01
464.04	4.3076E-01
464.39	4.4769E-01
464.74	4.5376E-01
465.09	4.6579E-01
465.44	4.3893E-01
465.79	4.5282E-01
466.14	4.5484E-01
466.49	4.4752E-01
466.84	4.4325E-01
467.19	4.5836E-01
467.54	4.5984E-01
467.89	4.3753E-01
468.24	4.1496E-01
468.59	4.2871E-01
468.94	4.1976E-01
469.29	4.2200E-01
469.64	4.3610E-01
469.99	4.2025E-01
470.34	4.0720E-01
470.68	4.3347E-01
471.03	4.1810E-01
471.38	4.1934E-01
471.73	3.9944E-01
472.08	3.9443E-01
472.43	3.8089E-01
472.78	4.0223E-01
473.13	3.9749E-01
473.48	3.9108E-01
473.83	3.8362E-01
474.17	3.8888E-01
474.52	3.8484E-01
474.87	3.6892E-01
475.22	3.7685E-01
475.57	3.5856E-01
475.92	3.4959E-01
476.27	3.5977E-01
476.61	3.5040E-01
476.96	3.4144E-01
477.31	3.3076E-01
477.66	3.3717E-01
478.01	3.3528E-01
478.36	3.3339E-01
478.70	3.2890E-01
479.05	3.3373E-01
479.40	3.1859E-01
479.75	3.1514E-01
480.10	3.1696E-01
480.45	3.0970E-01
480.79	3.0830E-01
481.14	3.1241E-01
481.49	3.0496E-01
481.84	2.9952E-01
482.19	2.9744E-01
482.53	2.9665E-01
482.88	2.9416E-01
483.23	2.8928E-01
483.58	2.8314E-01
483.92	2.9048E-01
484.27	2.8127E-01
484.62	2.7931E-01
484.97	2.7347E-01
485.31	2.7214E-01
485.66	2.7810E-01
486.01	2.7786E-01
486.36	2.6464E-01
486.70	2.7206E-01
487.05	2.7027E-01
487.40	2.7067E-01
487.75	2.6260E-01
488.09	2.6289E-01
488.44	2.6510E-01
488.79	2.6141E-01
489.13	2.5829E-01
489.48	2.6140E-01
489.83	2.6181E-01
490.17	2.5492E-01
490.52	2.5497E-01
490.87	2.5624E-01
491.22	2.5961E-01
491.56	2.5582E-01
491.91	2.5948E-01
492.26	2.5634E-01
492.60	2.5641E-01
492.95	2.5874E-01
493.30	2.5806E-01
493.64	2.5506E-01
493.99	2.5647E-01
494.34	2.5319E-01
494.68	2.5045E-01
495.03	2.5682E-01
495.37	2.5436E-01
495.72	2.5727E-01
496.07	2.5135E-01
496.41	2.5313E-01
496.76	2.5134E-01
497.11	2.5386E-01
497.45	2.5261E-01
497.80	2.5305E-01
498.14	2.5308E-01
498.49	2.5343E-01
498.84	2.5399E-01
499.18	2.5351E-01
499.53	2.5355E-01
499.87	2.5123E-01
500.22	2.5413E-01
500.56	2.5361E-01
500.91	2.5328E-01
501.26	2.5291E-01
501.60	2.5258E-01
501.95	2.5050E-01
502.29	2.5372E-01
502.64	2.4901E-01
502.98	2.5321E-01
503.33	2.5107E-01
503.67	2.5140E-01
504.02	2.5091E-01
504.36	2.5041E-01
504.71	2.5132E-01
505.06	2.4902E-01
505.40	2.4917E-01
505.75	2.5045E-01
506.09	2.5056E-01
506.44	2.5039E-01
506.78	2.4796E-01
507.13	2.4920E-01
507.47	2.4715E-01
507.82	2.4727E-01
508.16	2.4945E-01
508.51	2.4740E-01
508.85	2.4443E-01
509.19	2.4744E-01
509.54	2.4721E-01
509.88	2.4764E-01
510.23	2.4362E-01
510.57	2.4487E-01
510.92	2.4400E-01
511.26	2.4446E-01
511.61	2.4432E-01
511.95	2.4457E-01
512.30	2.4305E-01
512.64	2.4477E-01
512.98	2.4039E-01
513.33	2.4208E-01
513.67	2.4276E-01
514.02	2.4187E-01
514.36	2.3998E-01
514.70	2.4134E-01
515.05	2.3877E-01
515.39	2.4069E-01
515.74	2.3834E-01
516.08	2.3711E-01
516.42	2.3908E-01
516.77	2.3954E-01
517.11	2.3981E-01
517.46	2.4096E-01
517.80	2.3744E-01
518.14	2.3911E-01
518.49	2.3691E-01
518.83	2.3772E-01
519.17	2.3769E-01
519.52	2.3821E-01
519.86	2.3708E-01
520.20	2.3589E-01
520.55	2.3678E-01
520.89	2.3524E-01
521.23	2.3764E-01
521.58	2.3721E-01
521.92	2.3924E-01
522.26	2.4032E-01
522.61	2.3639E-01
522.95	2.3829E-01
523.29	2.3472E-01
523.64	2.3514E-01
523.98	2.3624E-01
524.32	2.3703E-01
524.66	2.3904E-01
525.01	2.3902E-01
525.35	2.3972E-01
525.69	2.4052E-01
526.04	2.3977E-01
526.38	2.3624E-01
526.72	2.4102E-01
527.06	2.3939E-01
527.41	2.4140E-01
527.75	2.4334E-01
528.09	2.4176E-01
528.43	2.4546E-01
528.78	2.4248E-01
529.12	2.4500E-01
529.46	2.4689E-01
529.80	2.4603E-01
530.15	2.4684E-01
530.49	2.4692E-01
530.83	2.4813E-01
531.17	2.4801E-01
531.51	2.4732E-01
531.86	2.4927E-01
532.20	2.5056E-01
532.54	2.4985E-01
532.88	2.5174E-01
533.22	2.5375E-01
533.57	2.5489E-01
533.91	2.5429E-01
534.25	2.5661E-01
534.59	2.5516E-01
534.93	2.5727E-01
535.27	2.5624E-01
535.62	2.6095E-01
535.96	2.5980E-01
536.30	2.6043E-01
536.64	2.6084E-01
536.98	2.6310E-01
537.32	2.6252E-01
537.66	2.6246E-01
538.01	2.6536E-01
538.35	2.6717E-01
538.69	2.6402E-01
539.03	2.7044E-01
539.37	2.6776E-01
539.71	2.7006E-01
540.05	2.7015E-01
540.39	2.7112E-01
540.73	2.6979E-01
541.07	2.7084E-01
541.42	2.7134E-01
541.76	2.7135E-01
542.10	2.7297E-01
542.44	2.7439E-01
542.78	2.7463E-01
543.12	2.7390E-01
543.46	2.7969E-01
543.80	2.7627E-01
544.14	2.7624E-01
544.48	2.7505E-01
544.82	2.7822E-01
545.16	2.7829E-01
545.50	2.7681E-01
545.84	2.7964E-01
546.18	2.7761E-01
546.52	2.8090E-01
546.86	2.7859E-01
547.20	2.8240E-01
547.54	2.8570E-01
547.88	2.8048E-01
548.22	2.8105E-01
548.56	2.8264E-01
548.90	2.8085E-01
549.24	2.8328E-01
549.58	2.8415E-01
549.92	2.8205E-01
550.26	2.8697E-01
550.60	2.8297E-01
550.94	2.8180E-01
551.28	2.8538E-01
551.62	2.8343E-01
551.96	2.8604E-01
552.30	2.8735E-01
552.64	2.8621E-01
552.98	2.8648E-01
553.32	2.8689E-01
553.66	2.8532E-01
554.00	2.8610E-01
554.34	2.8683E-01
554.68	2.8787E-01
555.02	2.8832E-01
555.36	2.8953E-01
555.69	2.8833E-01
556.03	2.8776E-01
556.37	2.8912E-01
556.71	2.8687E-01
557.05	2.8603E-01
557.39	2.8703E-01
557.73	2.8743E-01
558.07	2.8956E-01
558.41	2.8830E-01
558.75	2.8869E-01
559.08	2.8874E-01
559.42	2.8638E-01
559.76	2.9070E-01
560.10	2.9029E-01
560.44	2.9024E-01
560.78	2.8718E-01
561.12	2.8904E-01
561.45	2.8894E-01
561.79	2.9031E-01
562.13	2.9013E-01
562.47	2.9009E-01
562.81	2.9016E-01
563.15	2.9008E-01
563.48	2.9083E-01
563.82	2.8737E-01
564.16	2.8976E-01
564.50	2.9019E-01
564.84	2.9067E-01
565.17	2.9102E-01
565.51	2.9055E-01
565.85	2.9298E-01
566.19	2.8947E-01
566.52	2.9319E-01
566.86	2.8969E-01
567.20	2.9270E-01
567.54	2.9157E-01
567.88	2.9202E-01
568.21	2.9179E-01
568.55	2.9343E-01
568.89	2.9336E-01
569.23	2.9329E-01
569.56	2.9251E-01
569.90	2.9414E-01
570.24	2.9597E-01
570.57	2.9595E-01
570.91	2.9609E-01
571.25	2.9209E-01
571.59	2.9581E-01
571.92	2.9541E-01
572.26	2.9644E-01
572.60	2.9906E-01
572.93	2.9741E-01
573.27	3.0036E-01
573.61	3.0107E-01
573.95	2.9622E-01
574.28	3.0128E-01
574.62	3.0148E-01
574.96	3.0163E-01
575.29	3.0116E-01
575.63	3.0582E-01
575.97	3.0493E-01
576.30	3.1175E-01
576.64	3.0801E-01
576.98	3.0705E-01
577.31	3.0918E-01
577.65	3.1214E-01
577.98	3.1015E-01
578.32	3.1264E-01
578.66	3.1461E-01
578.99	3.1517E-01
579.33	3.1604E-01
579.67	3.1392E-01
580.00	3.1767E-01
580.34	3.1704E-01
580.67	3.1897E-01
581.01	3.2148E-01
581.35	3.2256E-01
581.68	3.2381E-01
582.02	3.2254E-01
582.35	3.2529E-01
582.69	3.2514E-01
583.02	3.3026E-01
583.36	3.2694E-01
583.70	3.2651E-01
584.03	3.2899E-01
584.37	3.2719E-01
584.70	3.3366E-01
585.04	3.3377E-01
585.37	3.3189E-01
585.71	3.3682E-01
586.04	3.3611E-01
586.38	3.3354E-01
586.72	3.3813E-01
587.05	3.3990E-01
587.39	3.4136E-01
587.72	3.3880E-01
588.06	3.4201E-01
588.39	3.4123E-01
588.73	3.4461E-01
589.06	3.4234E-01
589.40	3.4753E-01
589.73	3.4939E-01
590.07	3.5010E-01
590.40	3.5053E-01
590.73	3.5459E-01
591.07	3.5117E-01
591.40	3.5870E-01
591.74	3.5069E-01
592.07	3.5522E-01
592.41	3.5700E-01
592.74	3.5815E-01
593.08	3.5584E-01
593.41	3.5841E-01
593.75	3.5574E-01
594.08	3.6118E-01
594.41	3.5939E-01
594.75	3.6057E-01
595.08	3.6046E-01
595.42	3.5663E-01
595.75	3.6212E-01
596.09	3.6218E-01
596.42	3.5995E-01
596.75	3.6466E-01
597.09	3.6659E-01
597.42	3.6315E-01
597.75	3.6729E-01
598.09	3.6816E-01
598.42	3.6523E-01
598.76	3.6753E-01
599.09	3.7233E-01
599.42	3.7213E-01
599.76	3.7049E-01
600.09	3.6915E-01
600.42	3.7497E-01
600.76	3.6769E-01
601.09	3.7196E-01
601.42	3.7584E-01
601.76	3.7155E-01
602.09	3.7043E-01
602.42	3.7287E-01
602.76	3.7156E-01
603.09	3.7092E-01
603.42	3.7766E-01
603.76	3.7343E-01
604.09	3.7354E-01
604.42	3.7629E-01
604.76	3.7320E-01
605.09	3.7913E-01
605.42	3.7544E-01
605.75	3.7742E-01
606.09	3.7529E-01
606.42	3.7666E-01
606.75	3.7845E-01
607.09	3.7895E-01
607.42	3.7947E-01
607.75	3.7976E-01
608.08	3.7876E-01
608.42	3.8189E-01
608.75	3.7743E-01
609.08	3.8211E-01
609.41	3.8163E-01
609.75	3.7947E-01
610.08	3.8181E-01
610.41	3.8402E-01
610.74	3.8296E-01
611.07	3.8307E-01
611.41	3.8254E-01
611.74	3.8376E-01
612.07	3.8606E-01
612.40	3.8063E-01
612.73	3.8452E-01
613.07	3.8685E-01
613.40	3.8228E-01
613.73	3.8089E-01
614.06	3.8493E-01
614.39	3.8603E-01
614.72	3.8733E-01
615.06	3.8682E-01
615.39	3.9151E-01
615.72	3.8519E-01
616.05	3.8894E-01
616.38	3.8970E-01
616.71	3.9077E-01
617.05	3.8833E-01
617.38	3.9065E-01
617.71	3.8850E-01
618.04	3.9000E-01
618.37	3.8797E-01
618.70	3.8939E-01
619.03	3.9086E-01
619.36	3.8469E-01
619.69	3.9290E-01
620.03	3.8849E-01
620.36	3.8954E-01
620.69	3.8748E-01
621.02	3.9101E-01
621.35	3.8963E-01
621.68	3.8591E-01
622.01	3.8530E-01
622.34	3.8730E-01
622.67	3.8630E-01
623.00	3.8784E-01
623.33	3.8863E-01
623.66	3.8534E-01
623.99	3.8665E-01
624.32	3.8556E-01
624.65	3.8658E-01
624.99	3.8633E-01
625.32	3.8795E-01
625.65	3.8717E-01
625.98	3.8162E-01
626.31	3.8657E-01
626.64	3.8711E-01
626.97	3.8776E-01
627.30	3.8478E-01
627.63	3.8704E-01
627.96	3.8359E-01
628.29	3.8353E-01
628.62	3.8745E-01
628.95	3.8720E-01
629.28	3.8091E-01
629.61	3.9303E-01
629.94	3.8753E-01
630.26	3.8812E-01
630.59	3.9027E-01
630.92	3.8812E-01
631.25	3.9025E-01
631.58	3.9442E-01
631.91	3.8893E-01
632.24	3.9721E-01
632.57	3.9295E-01
632.90	3.9337E-01
633.23	3.9400E-01
633.56	3.9628E-01
633.89	3.9699E-01
634.22	3.9843E-01
634.55	3.9933E-01
634.88	4.0405E-01
635.20	4.0302E-01
635.53	4.0569E-01
635.86	4.0574E-01
636.19	4.1083E-01
636.52	4.1190E-01
636.85	4.0860E-01
637.18	4.1357E-01
637.51	4.1028E-01
637.83	4.1436E-01
638.16	4.1064E-01
638.49	4.2318E-01
638.82	4.2107E-01
639.15	4.2397E-01
639.48	4.2770E-01
639.81	4.2983E-01
640.13	4.2565E-01
640.46	4.3208E-01
640.79	4.3179E-01
641.12	4.3596E-01
641.45	4.3502E-01
641.77	4.3271E-01
642.10	4.4236E-01
642.43	4.4328E-01
642.76	4.4533E-01
643.09	4.4295E-01
643.41	4.4639E-01
643.74	4.4674E-01
644.07	4.4680E-01
644.40	4.5050E-01
644.73	4.5499E-01
645.05	4.5696E-01
645.38	4.6025E-01
645.71	4.6187E-01
646.04	4.6173E-01
646.36	4.6078E-01
646.69	4.6794E-01
647.02	4.6807E-01
647.35	4.6533E-01
647.67	4.7156E-01
648.00	4.6977E-01
648.33	4.7587E-01
648.66	4.7299E-01
648.98	4.7958E-01
649.31	4.7824E-01
649.64	4.8021E-01
649.96	4.8494E-01
650.29	4.8713E-01
650.62	4.8768E-01
650.94	4.8753E-01
651.27	4.8717E-01
651.60	4.8795E-01
651.92	4.9631E-01
652.25	4.9718E-01
652.58	4.9656E-01
652.90	4.9848E-01
653.23	4.9926E-01
653.56	5.0065E-01
653.88	5.0279E-01
654.21	5.0261E-01
654.54	5.0506E-01
654.86	5.1168E-01
655.19	5.0533E-01
655.52	5.1340E-01
655.84	5.1231E-01
656.17	5.1509E-01
656.49	5.2115E-01
656.82	5.1463E-01
657.15	5.2034E-01
657.47	5.2017E-01
657.80	5.2102E-01
658.13	5.2242E-01
658.45	5.2516E-01
658.78	5.2482E-01
659.10	5.3119E-01
659.43	5.3063E-01
659.75	5.2891E-01
660.08	5.2726E-01
660.41	5.3387E-01
660.73	5.3464E-01
661.06	5.3875E-01
661.38	5.3644E-01
661.71	5.3887E-01
662.03	5.3868E-01
662.36	5.4544E-01
662.68	5.4457E-01
663.01	5.3785E-01
663.33	5.4294E-01
663.66	5.4696E-01
663.98	5.4365E-01
664.31	5.4383E-01
664.63	5.5472E-01
664.96	5.5154E-01
665.28	5.5538E-01
665.61	5.5424E-01
665.93	5.5555E-01
666.26	5.5814E-01
666.58	5.5868E-01
666.91	5.5475E-01
667.23	5.6087E-01
667.56	5.5481E-01
667.88	5.6276E-01
668.21	5.6239E-01
668.53	5.6008E-01
668.86	5.7132E-01
669.18	5.6319E-01
669.50	5.7569E-01
669.83	5.7373E-01
670.15	5.7559E-01
670.48	5.7421E-01
670.80	5.7190E-01
671.13	5.6904E-01
671.45	5.7605E-01
671.77	5.7937E-01
672.10	5.7504E-01
672.42	5.8364E-01
672.75	5.8041E-01
673.07	5.8531E-01
673.39	5.7958E-01
673.72	5.8323E-01
674.04	5.8808E-01
674.37	5.9185E-01
674.69	5.8809E-01
675.01	5.9302E-01
675.34	5.9430E-01
675.66	5.9601E-01
675.98	5.8983E-01
676.31	5.9924E-01
676.63	6.0103E-01
676.95	5.9743E-01
677.28	6.0179E-01
677.60	6.0273E-01
677.92	6.0067E-01
678.25	6.0730E-01
678.57	6.0865E-01
678.89	6.0601E-01
679.22	6.1531E-01
679.54	6.1335E-01
679.86	6.1340E-01
680.18	6.1525E-01
680.51	6.1685E-01
680.83	6.2315E-01
681.15	6.1630E-01
681.48	6.2058E-01
681.80	6.2512E-01
682.12	6.2141E-01
682.44	6.3155E-01
682.77	6.3222E-01
683.09	6.3624E-01
683.41	6.3305E-01
683.73	6.3949E-01
684.06	6.3808E-01
684.38	6.4045E-01
684.70	6.3800E-01
685.02	6.4471E-01
685.34	6.5125E-01
685.67	6.4592E-01
685.99	6.5393E-01
686.31	6.4869E-01
686.63	6.5977E-01
686.96	6.5650E-01
687.28	6.6379E-01
687.60	6.5407E-01
687.92	6.6193E-01
688.24	6.6886E-01
688.56	6.7037E-01
688.89	6.7182E-01
689.21	6.6954E-01
689.53	6.7309E-01
689.85	6.8279E-01
690.17	6.7795E-01
690.49	6.8886E-01
690.82	6.8778E-01
691.14	6.8845E-01
691.46	6.9195E-01
691.78	6.9655E-01
692.10	6.8838E-01
692.42	6.9629E-01
692.74	7.0230E-01
693.06	7.0321E-01
693.39	7.1514E-01
693.71	7.1586E-01
694.03	7.1659E-01
694.35	7.1929E-01
694.67	7.2049E-01
694.99	7.2813E-01
695.31	7.3045E-01
695.63	7.2972E-01
695.95	7.3600E-01
696.27	7.3310E-01
696.59	7.3953E-01
696.91	7.4963E-01
697.23	7.4912E-01
697.56	7.4735E-01
697.88	7.5552E-01
698.20	7.5458E-01
698.52	7.6154E-01
698.84	7.6776E-01
699.16	7.7393E-01
699.48	7.6517E-01
699.80	7.7618E-01
700.12	7.8257E-01
700.44	7.8397E-01
700.76	7.8581E-01
701.08	7.9018E-01
701.40	7.9362E-01
701.72	8.0280E-01
702.04	8.0128E-01
702.36	8.0835E-01
702.68	8.1168E-01
703.00	8.1784E-01
703.32	8.2202E-01
703.64	8.2246E-01
703.96	8.1442E-01
704.28	8.2715E-01
704.60	8.3669E-01
704.91	8.3887E-01
705.23	8.4096E-01
705.55	8.5099E-01
705.87	8.4435E-01
706.19	8.4668E-01
706.51	8.5344E-01
706.83	8.5682E-01
707.15	8.7983E-01
707.47	8.6140E-01
707.79	8.7719E-01
708.11	8.7841E-01
708.43	8.8225E-01
708.74	8.9078E-01
709.06	9.0356E-01
709.38	8.9745E-01
709.70	8.9159E-01
710.02	9.0361E-01
710.34	9.0132E-01
710.66	9.2397E-01
710.98	9.1824E-01
711.29	9.1819E-01
711.61	9.3430E-01
711.93	9.3971E-01
712.25	9.3088E-01
712.57	9.4474E-01
712.89	9.4855E-01
713.20	9.4964E-01
713.52	9.5817E-01
713.84	9.6731E-01
714.16	9.6036E-01
714.48	9.6277E-01
714.80	9.7890E-01
715.11	9.7611E-01
715.43	9.8921E-01
715.75	9.9515E-01
716.07	1.0062E00
716.39	9.8779E-01
716.70	9.9940E-01
717.02	9.9402E-01
717.34	1.0239E00
717.66	1.0141E00
717.97	1.0260E00
718.29	1.0314E00
718.61	1.0454E00
718.93	1.0448E00
719.24	1.0480E00
719.56	1.0709E00
719.88	1.0613E00
720.20	1.0740E00
720.51	1.0878E00
720.83	1.0838E00
721.15	1.1057E00
721.46	1.1021E00
721.78	1.1085E00
722.10	1.1248E00
722.42	1.1348E00
722.73	1.1428E00
723.05	1.1275E00
723.37	1.1446E00
723.68	1.1553E00
724.00	1.1562E00
724.32	1.1761E00
724.63	1.1735E00
724.95	1.1674E00
725.27	1.1789E00
725.58	1.1856E00
725.90	1.1857E00
726.22	1.2057E00
726.53	1.1799E00
726.85	1.1975E00
727.16	1.2218E00
727.48	1.2016E00
727.80	1.2139E00
728.11	1.2190E00
728.43	1.2166E00
728.74	1.2112E00
729.06	1.2330E00
729.38	1.2290E00
729.69	1.2347E00
730.01	1.2428E00
730.32	1.2523E00
730.64	1.2499E00
730.96	1.2382E00
731.27	1.2727E00
731.59	1.2421E00
731.90	1.2584E00
732.22	1.2675E00
732.53	1.2658E00
732.85	1.2828E00
733.16	1.2773E00
733.48	1.2851E00
733.80	1.2770E00
734.11	1.3007E00
734.43	1.2998E00
734.74	1.2995E00
735.06	1.3156E00
735.37	1.3256E00
735.69	1.3087E00
736.00	1.3231E00
736.32	1.3251E00
736.63	1.3337E00
736.95	1.3324E00
737.26	1.3580E00
737.58	1.3560E00
737.89	1.3659E00
738.21	1.3537E00
738.52	1.3606E00
738.83	1.3651E00
739.15	1.3641E00
739.46	1.3843E00
739.78	1.3794E00
740.09	1.3953E00
740.41	1.3872E00
740.72	1.3824E00
741.04	1.3832E00
741.35	1.3870E00
741.66	1.4109E00
741.98	1.4001E00
742.29	1.4093E00
742.61	1.4014E00
742.92	1.4065E00
743.23	1.4065E00
743.55	1.4157E00
743.86	1.4053E00
744.18	1.4138E00
744.49	1.4150E00
744.80	1.4144E00
745.12	1.4149E00
745.43	1.4198E00
745.74	1.4191E00
746.06	1.4090E00
746.37	1.4075E00
746.68	1.4193E00
747.00	1.4156E00
747.31	1.4040E00
747.62	1.3955E00
747.94	1.4174E00
748.25	1.4206E00
748.56	1.4219E00
748.88	1.4017E00
749.19	1.4119E00
749.50	1.4149E00
749.82	1.4061E00
750.13	1.4146E00
750.44	1.4158E00
750.75	1.3985E00
751.07	1.4186E00
751.38	1.4264E00
751.69	1.3994E00
752.01	1.4186E00
752.32	1.4174E00
752.63	1.4205E00
752.94	1.4288E00
753.26	1.4348E00
753.57	1.4209E00
753.88	1.4302E00
754.19	1.4297E00
754.51	1.4337E00
754.82	1.4292E00
755.13	1.4462E00
755.44	1.4439E00
755.75	1.4472E00
756.07	1.4490E00
756.38	1.4650E00
756.69	1.4599E00
757.00	1.4716E00
757.31	1.4875E00
757.63	1.4953E00
757.94	1.4990E00
758.25	1.5159E00
758.56	1.4776E00
758.87	1.5282E00
759.18	1.5333E00
759.50	1.5305E00
759.81	1.5248E00
760.12	1.5352E00
760.43	1.5463E00
760.74	1.5416E00
761.05	1.5720E00
761.36	1.5781E00
761.67	1.5886E00
761.99	1.5997E00
762.30	1.5762E00
762.61	1.6142E00
762.92	1.6095E00
763.23	1.6121E00
763.54	1.6301E00
763.85	1.6560E00
764.16	1.6587E00
764.47	1.6797E00
764.78	1.6914E00
765.10	1.6920E00
765.41	1.6943E00
765.72	1.7038E00
766.03	1.7433E00
766.34	1.7570E00
766.65	1.7683E00
766.96	1.8036E00
767.27	1.7900E00
767.58	1.7916E00
767.89	1.8104E00
768.20	1.8394E00
768.51	1.8389E00
768.82	1.8415E00
769.13	1.8776E00
769.44	1.9040E00
769.75	1.9014E00
770.06	1.9053E00
770.37	1.9029E00
770.68	1.9492E00
770.99	1.9629E00
771.30	1.9746E00
771.61	2.0340E00
771.92	1.9900E00
772.23	2.0157E00
772.54	2.0592E00
772.85	2.0406E00
773.16	2.0611E00
773.47	2.1232E00
773.78	2.1089E00
774.09	2.1399E00
774.39	2.1434E00
774.70	2.1483E00
775.01	2.1926E00
775.32	2.2018E00
775.63	2.2245E00
775.94	2.2501E00
776.25	2.2369E00
776.56	2.2608E00
776.87	2.3171E00
777.18	2.3104E00
777.48	2.3337E00
777.79	2.3556E00
778.10	2.3783E00
778.41	2.3960E00
778.72	2.4233E00
779.03	2.4341E00
779.34	2.4892E00
779.65	2.4894E00
779.95	2.5361E00
780.26	2.5126E00
780.57	2.5554E00
780.88	2.5499E00
781.19	2.5956E00
781.50	2.5996E00
781.80	2.6214E00
782.11	2.6285E00
782.42	2.6922E00
782.73	2.6417E00
783.04	2.7444E00
783.34	2.7429E00
783.65	2.7674E00
783.96	2.7732E00
784.27	2.7874E00
784.57	2.8123E00
784.88	2.8437E00
785.19	2.8608E00
785.50	2.8930E00
785.81	2.9301E00
786.11	2.8896E00
786.42	2.9217E00
786.73	2.9539E00
787.04	2.9882E00
787.34	3.0425E00
787.65	3.0531E00
787.96	3.1249E00
788.26	3.1046E00
788.57	3.1621E00
788.88	3.1289E00
789.19	3.2260E00
789.49	3.1977E00
789.80	3.2565E00
790.11	3.2646E00
790.41	3.2941E00
790.72	3.3273E00
791.03	3.3418E00
791.33	3.3760E00
791.64	3.4532E00
791.95	3.3925E00
792.25	3.5025E00
792.56	3.4680E00
792.87	3.5184E00
793.17	3.5435E00
793.48	3.5585E00
793.79	3.5953E00
794.09	3.6641E00
794.40	3.6100E00
794.70	3.6255E00
795.01	3.6355E00
795.32	3.6862E00
795.62	3.7610E00
795.93	3.7653E00
796.23	3.7789E00
796.54	3.8295E00
796.85	3.8132E00
797.15	3.8630E00
797.46	3.8937E00
797.76	3.9949E00
798.07	3.9795E00
798.37	3.9841E00
798.68	4.0460E00
798.99	4.0445E00
799.29	4.0857E00
799.60	4.1589E00
799.90	4.1599E00
800.21	4.2177E00
800.51	4.2526E00
800.82	4.2439E00
801.12	4.3205E00
801.43	4.3099E00
801.73	4.4043E00
802.04	4.3907E00
802.34	4.3892E00
802.65	4.4386E00
802.95	4.5879E00
803.26	4.5537E00
803.56	4.4728E00
803.87	4.5462E00
804.17	4.5786E00
804.48	4.5723E00
804.78	4.6607E00
805.09	4.7407E00
805.39	4.7095E00
805.70	4.7336E00
806.00	4.8052E00
806.30	4.8012E00
806.61	4.8715E00
806.91	4.8989E00
807.22	4.9519E00
807.52	4.9756E00
807.83	4.9985E00
808.13	5.0581E00
808.43	4.9613E00
808.74	5.0961E00
809.04	5.1358E00
809.35	5.1130E00
809.65	5.2353E00
809.95	5.2641E00
810.26	5.3221E00
810.56	5.3434E00
810.86	5.4170E00
811.17	5.4588E00
811.47	5.4515E00
811.77	5.4502E00
812.08	5.4409E00
812.38	5.6123E00
812.69	5.4992E00
812.99	5.6780E00
813.29	5.7076E00
813.59	5.7577E00
813.90	5.7717E00
814.20	5.7759E00
814.50	5.8589E00
814.81	5.7937E00
815.11	5.9312E00
815.41	6.0742E00
815.72	5.9958E00
816.02	6.0400E00
816.32	6.0602E00
816.62	6.0172E00
816.93	6.1280E00
817.23	6.3129E00
817.53	6.1991E00
817.84	6.3238E00
818.14	6.3222E00
818.44	6.2980E00
818.74	6.4820E00
819.04	6.6120E00
819.35	6.5303E00
819.65	6.5753E00
819.95	6.7483E00
820.25	6.7586E00
820.56	6.7416E00
820.86	6.8243E00
821.16	6.8816E00
821.46	6.8797E00
821.76	6.9106E00
822.07	6.8662E00
822.37	6.9903E00
822.67	7.1044E00
822.97	7.1532E00
823.27	7.1392E00
823.57	7.2464E00
823.88	7.2102E00
824.18	7.3360E00
824.48	7.3173E00
824.78	7.4114E00
825.08	7.3880E00
825.38	7.5137E00
825.69	7.5087E00
825.99	7.6279E00
826.29	7.6587E00
826.59	7.6295E00
826.89	7.7743E00
827.19	7.5759E00
827.49	8.0709E00
827.79	7.9494E00
828.09	7.8851E00
828.39	8.0789E00
828.70	8.0513E00
829.00	8.0392E00
829.30	8.1818E00
829.60	8.3137E00
829.90	8.1921E00
830.20	8.1341E00
830.50	8.4993E00
830.80	8.5501E00
831.10	8.3806E00
831.40	8.6813E00
831.70	8.5825E00
832.00	8.6332E00
832.30	8.8755E00
832.60	8.7510E00
832.90	8.9169E00
833.20	9.0830E00
833.50	8.8845E00
833.80	9.0498E00
834.10	9.1443E00
834.40	8.9825E00
834.70	9.1917E00
835.00	9.2366E00
835.30	9.1898E00
835.60	9.3510E00
835.90	9.4269E00
836.20	9.6533E00
836.50	9.6477E00
836.80	9.6439E00
837.10	9.5918E00
837.40	9.7782E00
837.70	9.8389E00
838.00	9.8289E00
838.30	9.8006E00
838.60	1.0190E01
838.90	1.0177E01
839.19	1.0073E01
839.49	1.0460E01
839.79	1.0328E01
840.09	1.0444E01
840.39	1.0273E01
840.69	1.0475E01
840.99	1.1063E01
841.29	1.0888E01
841.59	1.0921E01
841.88	1.0990E01
842.18	1.1061E01
842.48	1.1338E01
842.78	1.1279E01
843.08	1.1410E01
843.38	1.1242E01
843.68	1.1476E01
843.97	1.1343E01
844.27	1.1313E01
844.57	1.1482E01
844.87	1.1574E01
845.17	1.1445E01
845.47	1.1291E01
845.76	1.1595E01
846.06	1.1809E01
846.36	1.1867E01
846.66	1.1904E01
846.96	1.1838E01
847.25	1.1774E01
847.55	1.1902E01
847.85	1.2189E01
848.15	1.2005E01
848.44	1.2343E01
848.74	1.2033E01
849.04	1.2289E01
849.34	1.2389E01
849.63	1.2622E01
849.93	1.2236E01
850.23	1.2248E01
850.53	1.1766E01
850.82	1.1935E01
851.12	1.1792E01
851.42	1.1857E01
851.71	1.2150E01
852.01	1.2256E01
852.31	1.2506E01
852.61	1.2466E01
852.90	1.2389E01
853.20	1.2606E01
853.50	1.2800E01
853.79	1.3048E01
854.09	1.2409E01
854.39	1.2356E01
854.68	1.2721E01
854.98	1.2482E01
855.28	1.2403E01
855.57	1.2566E01
855.87	1.2584E01
856.17	1.2683E01
856.46	1.2648E01
856.76	1.2674E01
857.05	1.3078E01
857.35	1.3105E01
857.65	1.3159E01
857.94	1.3452E01
858.24	1.3435E01
858.53	1.3636E01
858.83	1.3767E01
859.13	1.3801E01
859.42	1.3576E01
859.72	1.4052E01
860.01	1.4308E01
860.31	1.3923E01
860.60	1.4262E01
860.90	1.4337E01
861.20	1.4376E01
861.49	1.4085E01
861.79	1.4702E01
862.08	1.5255E01
862.38	1.5017E01
862.67	1.4741E01
862.97	1.4830E01
863.26	1.4681E01
863.56	1.5442E01
863.85	1.5372E01
864.15	1.4733E01
864.44	1.4829E01
864.74	1.4624E01
865.03	1.4748E01
865.33	1.4624E01
865.62	1.4644E01
865.92	1.4328E01
866.21	1.5062E01
866.51	1.4566E01
866.80	1.4537E01
867.10	1.4571E01
867.39	1.3841E01
867.69	1.4350E01
867.98	1.3323E01
868.27	1.3625E01
868.57	1.3545E01
868.86	1.4547E01
869.16	1.4097E01
869.45	1.4052E01
869.75	1.3761E01
870.04	1.4261E01
870.33	1.4585E01
870.63	1.4179E01
870.92	1.4925E01
871.22	1.5939E01
871.51	1.4505E01
871.80	1.4615E01
872.10	1.4615E01
>>>>>End Processed Spectral Data<<<<<
