SpectraSuite Data File
++++++++++++++++++++++++++++++++++++
Date: Tue May 12 10:20:22 PDT 2015
User: schluterlab
Dark Spectrum Present: Yes
Reference Spectrum Present: No
Number of Sampled Component Spectra: 1
Spectrometers: USB2E3373
Integration Time (usec): 2000000 (USB2E3373)
Spectra Averaged: 3 (USB2E3373)
Boxcar Smoothing: 0 (USB2E3373)
Correct for Electrical Dark: No (USB2E3373)
Strobe/Lamp Enabled: No (USB2E3373)
Correct for Detector Non-linearity: No (USB2E3373)
Correct for Stray Light: No (USB2E3373)
Number of Pixels in Processed Spectrum: 2048
>>>>>Begin Processed Spectral Data<<<<<
178.53	0.0000E00
178.91	0.0000E00
179.29	0.0000E00
179.67	0.0000E00
180.04	0.0000E00
180.42	0.0000E00
180.80	0.0000E00
181.18	0.0000E00
181.56	0.0000E00
181.94	0.0000E00
182.31	0.0000E00
182.69	0.0000E00
183.07	0.0000E00
183.45	0.0000E00
183.83	0.0000E00
184.20	0.0000E00
184.58	0.0000E00
184.96	0.0000E00
185.34	0.0000E00
185.72	0.0000E00
186.09	0.0000E00
186.47	0.0000E00
186.85	0.0000E00
187.23	0.0000E00
187.61	0.0000E00
187.98	0.0000E00
188.36	0.0000E00
188.74	0.0000E00
189.12	0.0000E00
189.49	0.0000E00
189.87	0.0000E00
190.25	0.0000E00
190.63	0.0000E00
191.00	0.0000E00
191.38	0.0000E00
191.76	0.0000E00
192.14	0.0000E00
192.51	0.0000E00
192.89	0.0000E00
193.27	0.0000E00
193.65	0.0000E00
194.02	0.0000E00
194.40	0.0000E00
194.78	0.0000E00
195.15	0.0000E00
195.53	-0.0000E00
195.91	0.0000E00
196.29	0.0000E00
196.66	0.0000E00
197.04	0.0000E00
197.42	0.0000E00
197.79	0.0000E00
198.17	0.0000E00
198.55	0.0000E00
198.92	0.0000E00
199.30	0.0000E00
199.68	0.0000E00
200.05	0.0000E00
200.43	0.0000E00
200.81	0.0000E00
201.18	0.0000E00
201.56	0.0000E00
201.94	0.0000E00
202.31	-0.0000E00
202.69	0.0000E00
203.07	0.0000E00
203.44	0.0000E00
203.82	0.0000E00
204.19	0.0000E00
204.57	0.0000E00
204.95	0.0000E00
205.32	0.0000E00
205.70	0.0000E00
206.08	0.0000E00
206.45	0.0000E00
206.83	0.0000E00
207.20	0.0000E00
207.58	0.0000E00
207.96	0.0000E00
208.33	0.0000E00
208.71	0.0000E00
209.08	0.0000E00
209.46	0.0000E00
209.84	0.0000E00
210.21	0.0000E00
210.59	0.0000E00
210.96	0.0000E00
211.34	0.0000E00
211.71	0.0000E00
212.09	0.0000E00
212.46	0.0000E00
212.84	0.0000E00
213.22	0.0000E00
213.59	0.0000E00
213.97	0.0000E00
214.34	0.0000E00
214.72	0.0000E00
215.09	0.0000E00
215.47	0.0000E00
215.84	0.0000E00
216.22	0.0000E00
216.59	0.0000E00
216.97	0.0000E00
217.34	0.0000E00
217.72	0.0000E00
218.09	0.0000E00
218.47	0.0000E00
218.84	0.0000E00
219.22	0.0000E00
219.59	0.0000E00
219.97	0.0000E00
220.34	0.0000E00
220.72	0.0000E00
221.09	0.0000E00
221.47	0.0000E00
221.84	0.0000E00
222.22	0.0000E00
222.59	0.0000E00
222.97	0.0000E00
223.34	0.0000E00
223.72	0.0000E00
224.09	0.0000E00
224.46	0.0000E00
224.84	0.0000E00
225.21	0.0000E00
225.59	0.0000E00
225.96	0.0000E00
226.34	0.0000E00
226.71	0.0000E00
227.08	0.0000E00
227.46	0.0000E00
227.83	0.0000E00
228.21	0.0000E00
228.58	0.0000E00
228.95	0.0000E00
229.33	0.0000E00
229.70	0.0000E00
230.08	0.0000E00
230.45	0.0000E00
230.82	0.0000E00
231.20	0.0000E00
231.57	0.0000E00
231.95	0.0000E00
232.32	0.0000E00
232.69	0.0000E00
233.07	0.0000E00
233.44	0.0000E00
233.81	0.0000E00
234.19	0.0000E00
234.56	0.0000E00
234.93	0.0000E00
235.31	0.0000E00
235.68	0.0000E00
236.05	0.0000E00
236.43	0.0000E00
236.80	0.0000E00
237.17	0.0000E00
237.55	0.0000E00
237.92	0.0000E00
238.29	0.0000E00
238.67	0.0000E00
239.04	0.0000E00
239.41	0.0000E00
239.79	0.0000E00
240.16	0.0000E00
240.53	0.0000E00
240.91	0.0000E00
241.28	0.0000E00
241.65	0.0000E00
242.02	0.0000E00
242.40	0.0000E00
242.77	0.0000E00
243.14	0.0000E00
243.51	0.0000E00
243.89	0.0000E00
244.26	0.0000E00
244.63	0.0000E00
245.00	0.0000E00
245.38	0.0000E00
245.75	0.0000E00
246.12	0.0000E00
246.49	0.0000E00
246.87	0.0000E00
247.24	0.0000E00
247.61	0.0000E00
247.98	0.0000E00
248.36	0.0000E00
248.73	0.0000E00
249.10	0.0000E00
249.47	0.0000E00
249.84	0.0000E00
250.22	0.0000E00
250.59	0.0000E00
250.96	0.0000E00
251.33	0.0000E00
251.70	0.0000E00
252.08	0.0000E00
252.45	0.0000E00
252.82	0.0000E00
253.19	0.0000E00
253.56	0.0000E00
253.94	0.0000E00
254.31	0.0000E00
254.68	0.0000E00
255.05	0.0000E00
255.42	0.0000E00
255.79	0.0000E00
256.16	0.0000E00
256.54	0.0000E00
256.91	0.0000E00
257.28	0.0000E00
257.65	0.0000E00
258.02	0.0000E00
258.39	0.0000E00
258.76	0.0000E00
259.14	0.0000E00
259.51	0.0000E00
259.88	0.0000E00
260.25	0.0000E00
260.62	0.0000E00
260.99	0.0000E00
261.36	0.0000E00
261.73	0.0000E00
262.10	0.0000E00
262.47	0.0000E00
262.85	0.0000E00
263.22	0.0000E00
263.59	0.0000E00
263.96	0.0000E00
264.33	0.0000E00
264.70	0.0000E00
265.07	0.0000E00
265.44	0.0000E00
265.81	0.0000E00
266.18	0.0000E00
266.55	0.0000E00
266.92	0.0000E00
267.29	0.0000E00
267.66	0.0000E00
268.03	0.0000E00
268.40	0.0000E00
268.77	0.0000E00
269.14	0.0000E00
269.51	0.0000E00
269.88	0.0000E00
270.25	0.0000E00
270.62	0.0000E00
270.99	0.0000E00
271.36	0.0000E00
271.73	0.0000E00
272.10	0.0000E00
272.47	0.0000E00
272.84	0.0000E00
273.21	0.0000E00
273.58	0.0000E00
273.95	0.0000E00
274.32	0.0000E00
274.69	0.0000E00
275.06	0.0000E00
275.43	0.0000E00
275.80	0.0000E00
276.17	0.0000E00
276.54	0.0000E00
276.91	0.0000E00
277.28	0.0000E00
277.65	0.0000E00
278.02	0.0000E00
278.39	0.0000E00
278.76	0.0000E00
279.13	0.0000E00
279.50	0.0000E00
279.87	0.0000E00
280.23	0.0000E00
280.60	0.0000E00
280.97	0.0000E00
281.34	0.0000E00
281.71	0.0000E00
282.08	0.0000E00
282.45	0.0000E00
282.82	0.0000E00
283.19	0.0000E00
283.56	0.0000E00
283.92	0.0000E00
284.29	0.0000E00
284.66	0.0000E00
285.03	0.0000E00
285.40	0.0000E00
285.77	0.0000E00
286.14	0.0000E00
286.51	0.0000E00
286.87	0.0000E00
287.24	0.0000E00
287.61	0.0000E00
287.98	0.0000E00
288.35	0.0000E00
288.72	0.0000E00
289.08	0.0000E00
289.45	0.0000E00
289.82	0.0000E00
290.19	0.0000E00
290.56	0.0000E00
290.93	0.0000E00
291.29	0.0000E00
291.66	0.0000E00
292.03	0.0000E00
292.40	0.0000E00
292.77	0.0000E00
293.13	0.0000E00
293.50	0.0000E00
293.87	0.0000E00
294.24	0.0000E00
294.60	0.0000E00
294.97	0.0000E00
295.34	0.0000E00
295.71	0.0000E00
296.08	0.0000E00
296.44	0.0000E00
296.81	0.0000E00
297.18	0.0000E00
297.55	0.0000E00
297.91	0.0000E00
298.28	0.0000E00
298.65	0.0000E00
299.02	0.0000E00
299.38	0.0000E00
299.75	0.0000E00
300.12	8.4173E-01
300.48	2.1072E00
300.85	8.9573E-01
301.22	2.3879E00
301.59	7.2290E-01
301.95	8.6818E-01
302.32	1.3317E00
302.69	1.3636E00
303.05	8.5439E-01
303.42	1.1625E00
303.79	1.3557E00
304.15	8.3995E-01
304.52	1.0328E00
304.89	9.8794E-01
305.25	1.9538E00
305.62	1.2984E00
305.99	1.5719E00
306.35	9.7066E-01
306.72	1.3383E00
307.09	1.1083E00
307.45	1.1759E00
307.82	8.7048E-01
308.19	1.0950E00
308.55	1.2814E00
308.92	1.4608E00
309.29	1.2355E00
309.65	1.2829E00
310.02	1.0666E00
310.38	1.1020E00
310.75	1.3893E00
311.12	1.2785E00
311.48	2.1376E00
311.85	1.3397E00
312.22	9.2186E-01
312.58	2.1592E00
312.95	1.3011E00
313.31	1.2103E00
313.68	1.5649E00
314.05	2.5417E00
314.41	1.3846E00
314.78	8.1635E-01
315.14	1.3477E00
315.51	2.8276E00
315.87	1.2214E00
316.24	1.8124E00
316.61	1.6538E00
316.97	1.0938E00
317.34	1.6815E00
317.70	1.3194E00
318.07	1.3293E00
318.43	1.5755E00
318.80	1.1773E00
319.16	1.4725E00
319.53	1.0311E00
319.89	2.0827E00
320.26	1.5749E00
320.62	1.9065E00
320.99	1.6726E00
321.35	9.6986E-01
321.72	1.3033E00
322.08	2.0754E00
322.45	1.1356E00
322.81	1.3362E00
323.18	4.0384E00
323.54	2.1417E00
323.91	1.6397E00
324.27	3.1765E00
324.64	2.3086E00
325.00	1.6724E00
325.37	2.8038E00
325.73	1.0331E00
326.10	3.5495E00
326.46	1.6465E00
326.83	1.3442E00
327.19	2.8787E00
327.56	1.1127E00
327.92	1.6128E00
328.29	1.2825E00
328.65	1.6840E00
329.01	1.9960E00
329.38	1.2934E00
329.74	1.1599E00
330.11	1.6944E00
330.47	1.1298E00
330.84	1.6325E00
331.20	1.6323E00
331.56	1.5176E00
331.93	1.6906E00
332.29	1.5680E00
332.66	1.0944E00
333.02	1.3245E00
333.38	1.9827E00
333.75	9.2560E-01
334.11	1.4455E00
334.48	1.4440E00
334.84	1.3499E00
335.20	1.6600E00
335.57	3.0765E00
335.93	2.0474E00
336.29	1.5894E00
336.66	1.5308E00
337.02	1.0699E00
337.38	1.3377E00
337.75	1.2968E00
338.11	1.0983E00
338.47	1.5316E00
338.84	1.2631E00
339.20	1.0496E00
339.56	3.0832E00
339.93	9.6361E-01
340.29	1.1457E00
340.65	1.2515E00
341.02	2.0968E00
341.38	1.4302E00
341.74	1.5399E00
342.11	1.5001E00
342.47	1.5122E00
342.83	8.3193E-01
343.20	1.9222E00
343.56	1.1631E00
343.92	1.6197E00
344.28	1.0779E00
344.65	1.7125E00
345.01	1.0075E00
345.37	1.6280E00
345.73	1.4503E00
346.10	1.2448E00
346.46	1.4785E00
346.82	1.1274E00
347.19	2.5589E00
347.55	1.0540E00
347.91	1.0638E00
348.27	1.1946E00
348.63	1.0385E00
349.00	1.0262E00
349.36	2.0685E00
349.72	1.2880E00
350.08	1.8780E00
350.45	1.0734E00
350.81	1.0012E00
351.17	1.3181E00
351.53	1.4256E00
351.89	1.1638E00
352.26	1.3360E00
352.62	1.1049E00
352.98	1.2859E00
353.34	1.1351E00
353.70	1.5003E00
354.07	1.0997E00
354.43	1.0439E00
354.79	1.2263E00
355.15	9.8019E-01
355.51	9.3570E-01
355.87	1.0598E00
356.24	1.1040E00
356.60	1.0689E00
356.96	1.1576E00
357.32	1.0410E00
357.68	9.7837E-01
358.04	8.8210E-01
358.40	9.7331E-01
358.77	9.0563E-01
359.13	1.0723E00
359.49	1.1394E00
359.85	1.1089E00
360.21	8.3499E-01
360.57	1.0184E00
360.93	1.0106E00
361.29	1.0711E00
361.66	8.8988E-01
362.02	8.2020E-01
362.38	1.0696E00
362.74	9.3087E-01
363.10	9.8194E-01
363.46	1.1418E00
363.82	9.7620E-01
364.18	1.1682E00
364.54	1.1084E00
364.90	1.0558E00
365.26	1.0376E00
365.62	1.1855E00
365.98	1.0330E00
366.35	8.2730E-01
366.71	1.0017E00
367.07	1.2847E00
367.43	8.1272E-01
367.79	1.1603E00
368.15	1.0642E00
368.51	1.2620E00
368.87	1.1033E00
369.23	1.1792E00
369.59	9.2747E-01
369.95	1.0043E00
370.31	9.5836E-01
370.67	1.1333E00
371.03	9.5669E-01
371.39	9.3520E-01
371.75	9.4330E-01
372.11	9.7463E-01
372.47	8.9585E-01
372.83	9.0374E-01
373.19	7.5534E-01
373.55	9.9015E-01
373.91	1.0097E00
374.27	1.0894E00
374.63	1.0626E00
374.99	9.6458E-01
375.35	9.2702E-01
375.71	9.4427E-01
376.07	9.5316E-01
376.42	9.4283E-01
376.78	8.5536E-01
377.14	9.6913E-01
377.50	1.0589E00
377.86	9.0156E-01
378.22	8.5003E-01
378.58	8.5127E-01
378.94	8.2552E-01
379.30	8.6631E-01
379.66	8.5424E-01
380.02	8.3664E-01
380.38	8.1272E-01
380.74	8.5161E-01
381.09	8.9309E-01
381.45	8.2418E-01
381.81	7.9703E-01
382.17	8.4002E-01
382.53	8.7356E-01
382.89	7.8180E-01
383.25	8.2264E-01
383.61	8.1389E-01
383.97	7.8913E-01
384.32	7.8661E-01
384.68	7.5128E-01
385.04	8.3423E-01
385.40	8.5931E-01
385.76	8.5542E-01
386.12	8.0494E-01
386.48	8.1790E-01
386.83	7.6303E-01
387.19	7.6143E-01
387.55	8.5187E-01
387.91	8.2284E-01
388.27	7.6969E-01
388.62	8.6513E-01
388.98	7.8450E-01
389.34	8.6990E-01
389.70	7.8981E-01
390.06	8.1495E-01
390.42	8.2290E-01
390.77	8.0203E-01
391.13	8.1860E-01
391.49	8.0282E-01
391.85	8.4690E-01
392.20	7.4888E-01
392.56	7.5878E-01
392.92	7.6939E-01
393.28	7.7329E-01
393.64	8.0760E-01
393.99	8.2285E-01
394.35	8.0907E-01
394.71	7.9932E-01
395.07	7.8258E-01
395.42	7.8618E-01
395.78	8.0025E-01
396.14	7.2272E-01
396.50	7.2556E-01
396.85	7.9712E-01
397.21	7.6764E-01
397.57	7.8829E-01
397.92	7.3729E-01
398.28	7.1339E-01
398.64	8.4812E-01
399.00	6.8426E-01
399.35	7.1165E-01
399.71	7.6381E-01
400.07	7.4475E-01
400.42	7.2691E-01
400.78	7.4535E-01
401.14	7.4893E-01
401.49	6.9435E-01
401.85	6.9008E-01
402.21	7.0076E-01
402.57	6.9702E-01
402.92	7.3500E-01
403.28	6.9908E-01
403.63	6.9522E-01
403.99	7.1189E-01
404.35	6.9076E-01
404.70	6.7799E-01
405.06	6.8892E-01
405.42	7.0403E-01
405.77	6.5448E-01
406.13	6.5427E-01
406.49	6.5007E-01
406.84	6.5719E-01
407.20	6.4162E-01
407.55	6.9309E-01
407.91	7.0525E-01
408.27	6.6007E-01
408.62	6.6430E-01
408.98	6.7226E-01
409.34	6.8433E-01
409.69	6.5482E-01
410.05	6.9023E-01
410.40	6.5907E-01
410.76	6.0902E-01
411.11	6.1434E-01
411.47	6.6642E-01
411.83	6.3202E-01
412.18	6.4392E-01
412.54	6.3152E-01
412.89	6.2654E-01
413.25	6.5020E-01
413.60	6.7892E-01
413.96	6.3646E-01
414.31	6.4091E-01
414.67	6.7622E-01
415.03	6.6328E-01
415.38	6.7973E-01
415.74	6.7106E-01
416.09	6.6681E-01
416.45	6.7580E-01
416.80	6.6269E-01
417.16	6.5724E-01
417.51	6.5343E-01
417.87	6.2961E-01
418.22	6.2177E-01
418.58	6.3515E-01
418.93	6.0812E-01
419.29	6.5221E-01
419.64	6.3292E-01
420.00	5.9792E-01
420.35	5.8745E-01
420.71	6.1681E-01
421.06	6.1947E-01
421.42	6.3522E-01
421.77	6.2600E-01
422.12	6.2439E-01
422.48	5.9122E-01
422.83	6.3168E-01
423.19	5.9670E-01
423.54	5.9737E-01
423.90	6.0481E-01
424.25	5.7091E-01
424.61	6.2959E-01
424.96	5.8908E-01
425.31	5.8583E-01
425.67	5.6147E-01
426.02	5.8673E-01
426.38	5.8581E-01
426.73	5.5535E-01
427.09	5.8178E-01
427.44	5.5693E-01
427.79	5.6309E-01
428.15	5.8036E-01
428.50	5.7635E-01
428.85	5.9060E-01
429.21	5.4509E-01
429.56	5.3271E-01
429.92	5.4333E-01
430.27	5.6189E-01
430.62	5.6123E-01
430.98	5.6838E-01
431.33	5.5485E-01
431.68	5.3642E-01
432.04	5.3261E-01
432.39	5.4067E-01
432.74	5.6051E-01
433.10	5.2524E-01
433.45	5.5566E-01
433.80	5.5254E-01
434.16	5.6455E-01
434.51	5.3812E-01
434.86	5.5994E-01
435.22	5.3954E-01
435.57	5.7733E-01
435.92	5.6595E-01
436.28	5.6314E-01
436.63	5.2223E-01
436.98	5.5859E-01
437.34	5.5429E-01
437.69	5.2705E-01
438.04	5.1305E-01
438.39	5.4901E-01
438.75	5.6207E-01
439.10	5.0698E-01
439.45	5.5106E-01
439.81	5.4514E-01
440.16	5.1260E-01
440.51	5.3530E-01
440.86	5.3381E-01
441.22	5.2166E-01
441.57	5.2666E-01
441.92	5.1093E-01
442.27	5.3601E-01
442.63	5.2515E-01
442.98	5.6062E-01
443.33	5.4895E-01
443.68	5.1060E-01
444.03	4.8193E-01
444.39	4.8422E-01
444.74	5.2571E-01
445.09	5.3340E-01
445.44	5.3441E-01
445.79	4.7165E-01
446.15	5.0660E-01
446.50	5.2399E-01
446.85	4.9285E-01
447.20	4.7907E-01
447.55	5.1783E-01
447.91	4.9873E-01
448.26	5.1145E-01
448.61	5.0676E-01
448.96	4.9614E-01
449.31	5.0368E-01
449.66	5.0852E-01
450.02	5.0060E-01
450.37	5.0159E-01
450.72	4.9445E-01
451.07	5.3322E-01
451.42	5.2978E-01
451.77	5.0049E-01
452.12	4.9990E-01
452.47	5.2305E-01
452.83	4.8073E-01
453.18	5.0889E-01
453.53	5.0319E-01
453.88	4.7387E-01
454.23	4.6771E-01
454.58	4.6785E-01
454.93	5.0247E-01
455.28	4.9964E-01
455.63	4.8477E-01
455.98	4.7378E-01
456.34	4.9921E-01
456.69	4.8376E-01
457.04	4.8739E-01
457.39	4.5746E-01
457.74	4.6739E-01
458.09	4.5475E-01
458.44	4.5377E-01
458.79	4.4395E-01
459.14	4.5914E-01
459.49	4.7782E-01
459.84	4.5136E-01
460.19	4.8033E-01
460.54	4.7730E-01
460.89	4.3993E-01
461.24	4.8122E-01
461.59	4.6017E-01
461.94	4.6679E-01
462.29	4.3661E-01
462.64	4.6102E-01
462.99	4.6584E-01
463.34	4.9270E-01
463.69	4.6161E-01
464.04	4.3083E-01
464.39	4.4745E-01
464.74	4.5396E-01
465.09	4.6612E-01
465.44	4.3908E-01
465.79	4.5263E-01
466.14	4.5484E-01
466.49	4.4725E-01
466.84	4.4321E-01
467.19	4.5863E-01
467.54	4.6004E-01
467.89	4.3775E-01
468.24	4.1514E-01
468.59	4.2882E-01
468.94	4.1979E-01
469.29	4.2203E-01
469.64	4.3659E-01
469.99	4.2061E-01
470.34	4.0727E-01
470.68	4.3354E-01
471.03	4.1814E-01
471.38	4.1952E-01
471.73	3.9950E-01
472.08	3.9460E-01
472.43	3.8102E-01
472.78	4.0247E-01
473.13	3.9773E-01
473.48	3.9145E-01
473.83	3.8349E-01
474.17	3.8935E-01
474.52	3.8508E-01
474.87	3.6898E-01
475.22	3.7714E-01
475.57	3.5856E-01
475.92	3.4956E-01
476.27	3.6005E-01
476.61	3.5052E-01
476.96	3.4174E-01
477.31	3.3085E-01
477.66	3.3717E-01
478.01	3.3522E-01
478.36	3.3350E-01
478.70	3.2890E-01
479.05	3.3384E-01
479.40	3.1865E-01
479.75	3.1547E-01
480.10	3.1726E-01
480.45	3.0973E-01
480.79	3.0814E-01
481.14	3.1276E-01
481.49	3.0506E-01
481.84	2.9955E-01
482.19	2.9746E-01
482.53	2.9665E-01
482.88	2.9429E-01
483.23	2.8928E-01
483.58	2.8331E-01
483.92	2.9056E-01
484.27	2.8139E-01
484.62	2.7955E-01
484.97	2.7347E-01
485.31	2.7219E-01
485.66	2.7815E-01
486.01	2.7798E-01
486.36	2.6493E-01
486.70	2.7232E-01
487.05	2.7032E-01
487.40	2.7067E-01
487.75	2.6258E-01
488.09	2.6298E-01
488.44	2.6529E-01
488.79	2.6137E-01
489.13	2.5845E-01
489.48	2.6158E-01
489.83	2.6195E-01
490.17	2.5494E-01
490.52	2.5491E-01
490.87	2.5615E-01
491.22	2.5945E-01
491.56	2.5602E-01
491.91	2.5946E-01
492.26	2.5641E-01
492.60	2.5646E-01
492.95	2.5874E-01
493.30	2.5817E-01
493.64	2.5528E-01
493.99	2.5638E-01
494.34	2.5313E-01
494.68	2.5056E-01
495.03	2.5688E-01
495.37	2.5458E-01
495.72	2.5722E-01
496.07	2.5168E-01
496.41	2.5339E-01
496.76	2.5130E-01
497.11	2.5393E-01
497.45	2.5256E-01
497.80	2.5314E-01
498.14	2.5310E-01
498.49	2.5343E-01
498.84	2.5416E-01
499.18	2.5369E-01
499.53	2.5357E-01
499.87	2.5114E-01
500.22	2.5424E-01
500.56	2.5381E-01
500.91	2.5317E-01
501.26	2.5293E-01
501.60	2.5269E-01
501.95	2.5057E-01
502.29	2.5379E-01
502.64	2.4920E-01
502.98	2.5323E-01
503.33	2.5109E-01
503.67	2.5155E-01
504.02	2.5095E-01
504.36	2.5044E-01
504.71	2.5163E-01
505.06	2.4915E-01
505.40	2.4917E-01
505.75	2.5067E-01
506.09	2.5073E-01
506.44	2.5026E-01
506.78	2.4809E-01
507.13	2.4926E-01
507.47	2.4728E-01
507.82	2.4718E-01
508.16	2.4973E-01
508.51	2.4729E-01
508.85	2.4464E-01
509.19	2.4750E-01
509.54	2.4719E-01
509.88	2.4766E-01
510.23	2.4377E-01
510.57	2.4498E-01
510.92	2.4430E-01
511.26	2.4455E-01
511.61	2.4457E-01
511.95	2.4484E-01
512.30	2.4324E-01
512.64	2.4489E-01
512.98	2.4055E-01
513.33	2.4236E-01
513.67	2.4286E-01
514.02	2.4208E-01
514.36	2.3983E-01
514.70	2.4138E-01
515.05	2.3869E-01
515.39	2.4089E-01
515.74	2.3850E-01
516.08	2.3732E-01
516.42	2.3933E-01
516.77	2.3962E-01
517.11	2.3971E-01
517.46	2.4113E-01
517.80	2.3754E-01
518.14	2.3917E-01
518.49	2.3695E-01
518.83	2.3780E-01
519.17	2.3781E-01
519.52	2.3831E-01
519.86	2.3704E-01
520.20	2.3605E-01
520.55	2.3680E-01
520.89	2.3528E-01
521.23	2.3793E-01
521.58	2.3738E-01
521.92	2.3922E-01
522.26	2.4040E-01
522.61	2.3650E-01
522.95	2.3852E-01
523.29	2.3505E-01
523.64	2.3534E-01
523.98	2.3636E-01
524.32	2.3729E-01
524.66	2.3916E-01
525.01	2.3908E-01
525.35	2.3993E-01
525.69	2.4066E-01
526.04	2.3983E-01
526.38	2.3648E-01
526.72	2.4115E-01
527.06	2.3956E-01
527.41	2.4140E-01
527.75	2.4357E-01
528.09	2.4180E-01
528.43	2.4552E-01
528.78	2.4252E-01
529.12	2.4509E-01
529.46	2.4695E-01
529.80	2.4622E-01
530.15	2.4705E-01
530.49	2.4700E-01
530.83	2.4811E-01
531.17	2.4842E-01
531.51	2.4740E-01
531.86	2.4944E-01
532.20	2.5064E-01
532.54	2.5011E-01
532.88	2.5179E-01
533.22	2.5390E-01
533.57	2.5507E-01
533.91	2.5431E-01
534.25	2.5661E-01
534.59	2.5532E-01
534.93	2.5747E-01
535.27	2.5639E-01
535.62	2.6081E-01
535.96	2.5974E-01
536.30	2.6045E-01
536.64	2.6078E-01
536.98	2.6324E-01
537.32	2.6254E-01
537.66	2.6284E-01
538.01	2.6541E-01
538.35	2.6738E-01
538.69	2.6407E-01
539.03	2.7060E-01
539.37	2.6785E-01
539.71	2.6999E-01
540.05	2.7020E-01
540.39	2.7119E-01
540.73	2.6998E-01
541.07	2.7099E-01
541.42	2.7155E-01
541.76	2.7140E-01
542.10	2.7299E-01
542.44	2.7458E-01
542.78	2.7463E-01
543.12	2.7390E-01
543.46	2.7979E-01
543.80	2.7627E-01
544.14	2.7629E-01
544.48	2.7520E-01
544.82	2.7827E-01
545.16	2.7841E-01
545.50	2.7700E-01
545.84	2.7950E-01
546.18	2.7778E-01
546.52	2.8086E-01
546.86	2.7875E-01
547.20	2.8250E-01
547.54	2.8560E-01
547.88	2.8080E-01
548.22	2.8127E-01
548.56	2.8264E-01
548.90	2.8100E-01
549.24	2.8333E-01
549.58	2.8429E-01
549.92	2.8200E-01
550.26	2.8697E-01
550.60	2.8280E-01
550.94	2.8156E-01
551.28	2.8545E-01
551.62	2.8348E-01
551.96	2.8623E-01
552.30	2.8752E-01
552.64	2.8634E-01
552.98	2.8658E-01
553.32	2.8696E-01
553.66	2.8544E-01
554.00	2.8615E-01
554.34	2.8703E-01
554.68	2.8800E-01
555.02	2.8844E-01
555.36	2.8948E-01
555.69	2.8823E-01
556.03	2.8784E-01
556.37	2.8940E-01
556.71	2.8684E-01
557.05	2.8643E-01
557.39	2.8693E-01
557.73	2.8768E-01
558.07	2.8967E-01
558.41	2.8848E-01
558.75	2.8889E-01
559.08	2.8881E-01
559.42	2.8638E-01
559.76	2.9058E-01
560.10	2.9046E-01
560.44	2.9026E-01
560.78	2.8732E-01
561.12	2.8934E-01
561.45	2.8906E-01
561.79	2.9036E-01
562.13	2.9026E-01
562.47	2.9029E-01
562.81	2.9026E-01
563.15	2.9026E-01
563.48	2.9098E-01
563.82	2.8742E-01
564.16	2.8999E-01
564.50	2.9026E-01
564.84	2.9105E-01
565.17	2.9110E-01
565.51	2.9045E-01
565.85	2.9308E-01
566.19	2.8954E-01
566.52	2.9337E-01
566.86	2.8981E-01
567.20	2.9277E-01
567.54	2.9182E-01
567.88	2.9217E-01
568.21	2.9184E-01
568.55	2.9360E-01
568.89	2.9354E-01
569.23	2.9332E-01
569.56	2.9263E-01
569.90	2.9414E-01
570.24	2.9607E-01
570.57	2.9608E-01
570.91	2.9632E-01
571.25	2.9216E-01
571.59	2.9591E-01
571.92	2.9572E-01
572.26	2.9667E-01
572.60	2.9927E-01
572.93	2.9744E-01
573.27	3.0038E-01
573.61	3.0125E-01
573.95	2.9640E-01
574.28	3.0148E-01
574.62	3.0174E-01
574.96	3.0192E-01
575.29	3.0147E-01
575.63	3.0595E-01
575.97	3.0498E-01
576.30	3.1202E-01
576.64	3.0815E-01
576.98	3.0731E-01
577.31	3.0902E-01
577.65	3.1211E-01
577.98	3.1006E-01
578.32	3.1264E-01
578.66	3.1448E-01
578.99	3.1525E-01
579.33	3.1632E-01
579.67	3.1413E-01
580.00	3.1786E-01
580.34	3.1726E-01
580.67	3.1897E-01
581.01	3.2159E-01
581.35	3.2283E-01
581.68	3.2398E-01
582.02	3.2287E-01
582.35	3.2546E-01
582.69	3.2539E-01
583.02	3.3028E-01
583.36	3.2691E-01
583.70	3.2642E-01
584.03	3.2916E-01
584.37	3.2725E-01
584.70	3.3392E-01
585.04	3.3386E-01
585.37	3.3221E-01
585.71	3.3717E-01
586.04	3.3611E-01
586.38	3.3354E-01
586.72	3.3827E-01
587.05	3.4031E-01
587.39	3.4136E-01
587.72	3.3906E-01
588.06	3.4204E-01
588.39	3.4153E-01
588.73	3.4494E-01
589.06	3.4249E-01
589.40	3.4798E-01
589.73	3.4966E-01
590.07	3.5022E-01
590.40	3.5068E-01
590.73	3.5471E-01
591.07	3.5126E-01
591.40	3.5882E-01
591.74	3.5075E-01
592.07	3.5534E-01
592.41	3.5703E-01
592.74	3.5837E-01
593.08	3.5575E-01
593.41	3.5847E-01
593.75	3.5599E-01
594.08	3.6115E-01
594.41	3.5939E-01
594.75	3.6082E-01
595.08	3.6046E-01
595.42	3.5647E-01
595.75	3.6247E-01
596.09	3.6218E-01
596.42	3.5995E-01
596.75	3.6469E-01
597.09	3.6644E-01
597.42	3.6306E-01
597.75	3.6729E-01
598.09	3.6816E-01
598.42	3.6545E-01
598.76	3.6741E-01
599.09	3.7221E-01
599.42	3.7225E-01
599.76	3.7033E-01
600.09	3.6931E-01
600.42	3.7494E-01
600.76	3.6791E-01
601.09	3.7212E-01
601.42	3.7574E-01
601.76	3.7155E-01
602.09	3.7055E-01
602.42	3.7313E-01
602.76	3.7182E-01
603.09	3.7104E-01
603.42	3.7757E-01
603.76	3.7326E-01
604.09	3.7351E-01
604.42	3.7638E-01
604.76	3.7317E-01
605.09	3.7926E-01
605.42	3.7547E-01
605.75	3.7739E-01
606.09	3.7542E-01
606.42	3.7679E-01
606.75	3.7868E-01
607.09	3.7911E-01
607.42	3.7947E-01
607.75	3.7982E-01
608.08	3.7889E-01
608.42	3.8185E-01
608.75	3.7730E-01
609.08	3.8208E-01
609.41	3.8173E-01
609.75	3.7960E-01
610.08	3.8178E-01
610.41	3.8398E-01
610.74	3.8289E-01
611.07	3.8317E-01
611.41	3.8234E-01
611.74	3.8373E-01
612.07	3.8616E-01
612.40	3.8033E-01
612.73	3.8498E-01
613.07	3.8682E-01
613.40	3.8232E-01
613.73	3.8109E-01
614.06	3.8480E-01
614.39	3.8606E-01
614.72	3.8733E-01
615.06	3.8682E-01
615.39	3.9162E-01
615.72	3.8519E-01
616.05	3.8853E-01
616.38	3.8960E-01
616.71	3.9104E-01
617.05	3.8826E-01
617.38	3.9058E-01
617.71	3.8847E-01
618.04	3.9004E-01
618.37	3.8797E-01
618.70	3.8925E-01
619.03	3.9059E-01
619.36	3.8472E-01
619.69	3.9293E-01
620.03	3.8865E-01
620.36	3.8958E-01
620.69	3.8755E-01
621.02	3.9081E-01
621.35	3.8970E-01
621.68	3.8584E-01
622.01	3.8490E-01
622.34	3.8730E-01
622.67	3.8620E-01
623.00	3.8768E-01
623.33	3.8873E-01
623.66	3.8534E-01
623.99	3.8628E-01
624.32	3.8539E-01
624.65	3.8661E-01
624.99	3.8637E-01
625.32	3.8765E-01
625.65	3.8697E-01
625.98	3.8155E-01
626.31	3.8650E-01
626.64	3.8728E-01
626.97	3.8759E-01
627.30	3.8474E-01
627.63	3.8704E-01
627.96	3.8362E-01
628.29	3.8339E-01
628.62	3.8738E-01
628.95	3.8700E-01
629.28	3.8075E-01
629.61	3.9300E-01
629.94	3.8726E-01
630.26	3.8802E-01
630.59	3.9034E-01
630.92	3.8796E-01
631.25	3.9005E-01
631.58	3.9419E-01
631.91	3.8873E-01
632.24	3.9703E-01
632.57	3.9278E-01
632.90	3.9337E-01
633.23	3.9407E-01
633.56	3.9617E-01
633.89	3.9661E-01
634.22	3.9818E-01
634.55	3.9926E-01
634.88	4.0391E-01
635.20	4.0260E-01
635.53	4.0548E-01
635.86	4.0557E-01
636.19	4.1051E-01
636.52	4.1190E-01
636.85	4.0843E-01
637.18	4.1339E-01
637.51	4.1032E-01
637.83	4.1432E-01
638.16	4.1042E-01
638.49	4.2270E-01
638.82	4.2092E-01
639.15	4.2415E-01
639.48	4.2744E-01
639.81	4.2968E-01
640.13	4.2547E-01
640.46	4.3178E-01
640.79	4.3175E-01
641.12	4.3589E-01
641.45	4.3483E-01
641.77	4.3233E-01
642.10	4.4202E-01
642.43	4.4324E-01
642.76	4.4518E-01
643.09	4.4265E-01
643.41	4.4647E-01
643.74	4.4658E-01
644.07	4.4645E-01
644.40	4.5011E-01
644.73	4.5522E-01
645.05	4.5704E-01
645.38	4.6005E-01
645.71	4.6143E-01
646.04	4.6145E-01
646.36	4.6094E-01
646.69	4.6786E-01
647.02	4.6767E-01
647.35	4.6545E-01
647.67	4.7123E-01
648.00	4.6957E-01
648.33	4.7559E-01
648.66	4.7271E-01
648.98	4.7916E-01
649.31	4.7807E-01
649.64	4.8025E-01
649.96	4.8477E-01
650.29	4.8700E-01
650.62	4.8739E-01
650.94	4.8727E-01
651.27	4.8692E-01
651.60	4.8799E-01
651.92	4.9622E-01
652.25	4.9701E-01
652.58	4.9600E-01
652.90	4.9857E-01
653.23	4.9883E-01
653.56	5.0048E-01
653.88	5.0279E-01
654.21	5.0265E-01
654.54	5.0467E-01
654.86	5.1133E-01
655.19	5.0506E-01
655.52	5.1335E-01
655.84	5.1209E-01
656.17	5.1473E-01
656.49	5.2061E-01
656.82	5.1459E-01
657.15	5.2016E-01
657.47	5.2026E-01
657.80	5.2080E-01
658.13	5.2215E-01
658.45	5.2561E-01
658.78	5.2428E-01
659.10	5.3055E-01
659.43	5.3072E-01
659.75	5.2841E-01
660.08	5.2698E-01
660.41	5.3364E-01
660.73	5.3464E-01
661.06	5.3862E-01
661.38	5.3616E-01
661.71	5.3854E-01
662.03	5.3863E-01
662.36	5.4553E-01
662.68	5.4433E-01
663.01	5.3744E-01
663.33	5.4229E-01
663.66	5.4668E-01
663.98	5.4365E-01
664.31	5.4379E-01
664.63	5.5496E-01
664.96	5.5144E-01
665.28	5.5538E-01
665.61	5.5376E-01
665.93	5.5483E-01
666.26	5.5809E-01
666.58	5.5873E-01
666.91	5.5466E-01
667.23	5.6097E-01
667.56	5.5462E-01
667.88	5.6296E-01
668.21	5.6234E-01
668.53	5.6023E-01
668.86	5.7141E-01
669.18	5.6324E-01
669.50	5.7559E-01
669.83	5.7319E-01
670.15	5.7524E-01
670.48	5.7416E-01
670.80	5.7175E-01
671.13	5.6894E-01
671.45	5.7625E-01
671.77	5.7937E-01
672.10	5.7470E-01
672.42	5.8328E-01
672.75	5.8041E-01
673.07	5.8526E-01
673.39	5.7953E-01
673.72	5.8368E-01
674.04	5.8712E-01
674.37	5.9129E-01
674.69	5.8763E-01
675.01	5.9266E-01
675.34	5.9446E-01
675.66	5.9539E-01
675.98	5.8998E-01
676.31	5.9919E-01
676.63	6.0072E-01
676.95	5.9717E-01
677.28	6.0179E-01
677.60	6.0283E-01
677.92	6.0057E-01
678.25	6.0746E-01
678.57	6.0859E-01
678.89	6.0595E-01
679.22	6.1552E-01
679.54	6.1314E-01
679.86	6.1319E-01
680.18	6.1499E-01
680.51	6.1696E-01
680.83	6.2250E-01
681.15	6.1646E-01
681.48	6.2106E-01
681.80	6.2506E-01
682.12	6.2082E-01
682.44	6.3117E-01
682.77	6.3167E-01
683.09	6.3558E-01
683.41	6.3283E-01
683.73	6.3916E-01
684.06	6.3819E-01
684.38	6.4012E-01
684.70	6.3783E-01
685.02	6.4460E-01
685.34	6.5125E-01
685.67	6.4592E-01
685.99	6.5365E-01
686.31	6.4835E-01
686.63	6.5971E-01
686.96	6.5628E-01
687.28	6.6379E-01
687.60	6.5402E-01
687.92	6.6153E-01
688.24	6.6909E-01
688.56	6.6997E-01
688.89	6.7153E-01
689.21	6.6919E-01
689.53	6.7298E-01
689.85	6.8262E-01
690.17	6.7766E-01
690.49	6.8821E-01
690.82	6.8814E-01
691.14	6.8786E-01
691.46	6.9129E-01
691.78	6.9655E-01
692.10	6.8832E-01
692.42	6.9581E-01
692.74	7.0157E-01
693.06	7.0351E-01
693.39	7.1502E-01
693.71	7.1555E-01
694.03	7.1634E-01
694.35	7.1886E-01
694.67	7.2142E-01
694.99	7.2775E-01
695.31	7.3026E-01
695.63	7.2966E-01
695.95	7.3587E-01
696.27	7.3285E-01
696.59	7.3966E-01
696.91	7.5021E-01
697.23	7.4932E-01
697.56	7.4710E-01
697.88	7.5591E-01
698.20	7.5419E-01
698.52	7.6154E-01
698.84	7.6683E-01
699.16	7.7319E-01
699.48	7.6530E-01
699.80	7.7518E-01
700.12	7.8196E-01
700.44	7.8404E-01
700.76	7.8540E-01
701.08	7.9032E-01
701.40	7.9375E-01
701.72	8.0231E-01
702.04	8.0128E-01
702.36	8.0808E-01
702.68	8.1133E-01
703.00	8.1763E-01
703.32	8.2160E-01
703.64	8.2281E-01
703.96	8.1414E-01
704.28	8.2686E-01
704.60	8.3698E-01
704.91	8.3844E-01
705.23	8.4038E-01
705.55	8.5040E-01
705.87	8.4347E-01
706.19	8.4690E-01
706.51	8.5352E-01
706.83	8.5667E-01
707.15	8.7907E-01
707.47	8.6058E-01
707.79	8.7681E-01
708.11	8.7803E-01
708.43	8.8187E-01
708.74	8.9062E-01
709.06	9.0316E-01
709.38	8.9699E-01
709.70	8.9159E-01
710.02	9.0385E-01
710.34	9.0062E-01
710.66	9.2397E-01
710.98	9.1864E-01
711.29	9.1756E-01
711.61	9.3406E-01
711.93	9.3922E-01
712.25	9.3064E-01
712.57	9.4466E-01
712.89	9.4814E-01
713.20	9.4923E-01
713.52	9.5759E-01
713.84	9.6673E-01
714.16	9.6036E-01
714.48	9.6277E-01
714.80	9.7882E-01
715.11	9.7568E-01
715.43	9.8862E-01
715.75	9.9472E-01
716.07	1.0057E00
716.39	9.8693E-01
716.70	9.9888E-01
717.02	9.9410E-01
717.34	1.0237E00
717.66	1.0136E00
717.97	1.0255E00
718.29	1.0313E00
718.61	1.0453E00
718.93	1.0440E00
719.24	1.0480E00
719.56	1.0700E00
719.88	1.0607E00
720.20	1.0745E00
720.51	1.0882E00
720.83	1.0835E00
721.15	1.1059E00
721.46	1.1022E00
721.78	1.1093E00
722.10	1.1246E00
722.42	1.1349E00
722.73	1.1420E00
723.05	1.1273E00
723.37	1.1439E00
723.68	1.1555E00
724.00	1.1560E00
724.32	1.1767E00
724.63	1.1735E00
724.95	1.1674E00
725.27	1.1786E00
725.58	1.1855E00
725.90	1.1849E00
726.22	1.2051E00
726.53	1.1796E00
726.85	1.1963E00
727.16	1.2219E00
727.48	1.2010E00
727.80	1.2141E00
728.11	1.2189E00
728.43	1.2154E00
728.74	1.2109E00
729.06	1.2326E00
729.38	1.2282E00
729.69	1.2348E00
730.01	1.2434E00
730.32	1.2515E00
730.64	1.2494E00
730.96	1.2376E00
731.27	1.2713E00
731.59	1.2422E00
731.90	1.2566E00
732.22	1.2670E00
732.53	1.2652E00
732.85	1.2825E00
733.16	1.2772E00
733.48	1.2855E00
733.80	1.2771E00
734.11	1.3016E00
734.43	1.2998E00
734.74	1.2983E00
735.06	1.3152E00
735.37	1.3256E00
735.69	1.3090E00
736.00	1.3226E00
736.32	1.3245E00
736.63	1.3334E00
736.95	1.3318E00
737.26	1.3571E00
737.58	1.3544E00
737.89	1.3653E00
738.21	1.3523E00
738.52	1.3602E00
738.83	1.3646E00
739.15	1.3647E00
739.46	1.3828E00
739.78	1.3787E00
740.09	1.3956E00
740.41	1.3871E00
740.72	1.3819E00
741.04	1.3829E00
741.35	1.3869E00
741.66	1.4105E00
741.98	1.4009E00
742.29	1.4093E00
742.61	1.4012E00
742.92	1.4065E00
743.23	1.4062E00
743.55	1.4161E00
743.86	1.4045E00
744.18	1.4138E00
744.49	1.4156E00
744.80	1.4138E00
745.12	1.4157E00
745.43	1.4201E00
745.74	1.4188E00
746.06	1.4093E00
746.37	1.4069E00
746.68	1.4186E00
747.00	1.4153E00
747.31	1.4037E00
747.62	1.3945E00
747.94	1.4182E00
748.25	1.4196E00
748.56	1.4221E00
748.88	1.4011E00
749.19	1.4125E00
749.50	1.4140E00
749.82	1.4052E00
750.13	1.4146E00
750.44	1.4157E00
750.75	1.3985E00
751.07	1.4175E00
751.38	1.4264E00
751.69	1.3993E00
752.01	1.4189E00
752.32	1.4173E00
752.63	1.4195E00
752.94	1.4279E00
753.26	1.4338E00
753.57	1.4200E00
753.88	1.4292E00
754.19	1.4295E00
754.51	1.4332E00
754.82	1.4294E00
755.13	1.4447E00
755.44	1.4441E00
755.75	1.4476E00
756.07	1.4474E00
756.38	1.4640E00
756.69	1.4603E00
757.00	1.4711E00
757.31	1.4876E00
757.63	1.4949E00
757.94	1.4989E00
758.25	1.5149E00
758.56	1.4773E00
758.87	1.5286E00
759.18	1.5316E00
759.50	1.5297E00
759.81	1.5242E00
760.12	1.5348E00
760.43	1.5466E00
760.74	1.5413E00
761.05	1.5713E00
761.36	1.5767E00
761.67	1.5892E00
761.99	1.5994E00
762.30	1.5760E00
762.61	1.6139E00
762.92	1.6095E00
763.23	1.6121E00
763.54	1.6285E00
763.85	1.6559E00
764.16	1.6592E00
764.47	1.6787E00
764.78	1.6903E00
765.10	1.6930E00
765.41	1.6927E00
765.72	1.7041E00
766.03	1.7441E00
766.34	1.7561E00
766.65	1.7673E00
766.96	1.8031E00
767.27	1.7894E00
767.58	1.7906E00
767.89	1.8100E00
768.20	1.8381E00
768.51	1.8373E00
768.82	1.8408E00
769.13	1.8763E00
769.44	1.9031E00
769.75	1.9004E00
770.06	1.9051E00
770.37	1.9020E00
770.68	1.9480E00
770.99	1.9624E00
771.30	1.9740E00
771.61	2.0349E00
771.92	1.9892E00
772.23	2.0159E00
772.54	2.0608E00
772.85	2.0420E00
773.16	2.0604E00
773.47	2.1218E00
773.78	2.1073E00
774.09	2.1399E00
774.39	2.1425E00
774.70	2.1492E00
775.01	2.1924E00
775.32	2.2021E00
775.63	2.2243E00
775.94	2.2496E00
776.25	2.2364E00
776.56	2.2597E00
776.87	2.3169E00
777.18	2.3082E00
777.48	2.3345E00
777.79	2.3566E00
778.10	2.3771E00
778.41	2.3962E00
778.72	2.4237E00
779.03	2.4351E00
779.34	2.4864E00
779.65	2.4860E00
779.95	2.5339E00
780.26	2.5104E00
780.57	2.5534E00
780.88	2.5497E00
781.19	2.5927E00
781.50	2.5999E00
781.80	2.6223E00
782.11	2.6276E00
782.42	2.6906E00
782.73	2.6415E00
783.04	2.7427E00
783.34	2.7414E00
783.65	2.7633E00
783.96	2.7725E00
784.27	2.7867E00
784.57	2.8113E00
784.88	2.8435E00
785.19	2.8576E00
785.50	2.8910E00
785.81	2.9273E00
786.11	2.8886E00
786.42	2.9212E00
786.73	2.9511E00
787.04	2.9874E00
787.34	3.0404E00
787.65	3.0524E00
787.96	3.1247E00
788.26	3.1014E00
788.57	3.1654E00
788.88	3.1270E00
789.19	3.2232E00
789.49	3.1958E00
789.80	3.2574E00
790.11	3.2623E00
790.41	3.2924E00
790.72	3.3253E00
791.03	3.3409E00
791.33	3.3731E00
791.64	3.4517E00
791.95	3.3925E00
792.25	3.4983E00
792.56	3.4665E00
792.87	3.5187E00
793.17	3.5408E00
793.48	3.5585E00
793.79	3.5931E00
794.09	3.6634E00
794.40	3.6119E00
794.70	3.6236E00
795.01	3.6333E00
795.32	3.6884E00
795.62	3.7600E00
795.93	3.7673E00
796.23	3.7789E00
796.54	3.8305E00
796.85	3.8139E00
797.15	3.8630E00
797.46	3.8927E00
797.76	3.9960E00
798.07	3.9799E00
798.37	3.9831E00
798.68	4.0436E00
798.99	4.0463E00
799.29	4.0833E00
799.60	4.1597E00
799.90	4.1606E00
800.21	4.2199E00
800.51	4.2534E00
800.82	4.2439E00
801.12	4.3194E00
801.43	4.3107E00
801.73	4.4005E00
802.04	4.3903E00
802.34	4.3884E00
802.65	4.4405E00
802.95	4.5891E00
803.26	4.5517E00
803.56	4.4728E00
803.87	4.5450E00
804.17	4.5759E00
804.48	4.5758E00
804.78	4.6583E00
805.09	4.7382E00
805.39	4.7079E00
805.70	4.7303E00
806.00	4.8060E00
806.30	4.8016E00
806.61	4.8702E00
806.91	4.8951E00
807.22	4.9510E00
807.52	4.9782E00
807.83	4.9972E00
808.13	5.0568E00
808.43	4.9592E00
808.74	5.0983E00
809.04	5.1336E00
809.35	5.1139E00
809.65	5.2330E00
809.95	5.2623E00
810.26	5.3235E00
810.56	5.3420E00
810.86	5.4141E00
811.17	5.4550E00
811.47	5.4530E00
811.77	5.4474E00
812.08	5.4404E00
812.38	5.6094E00
812.69	5.4959E00
812.99	5.6795E00
813.29	5.7076E00
813.59	5.7527E00
813.90	5.7707E00
814.20	5.7769E00
814.50	5.8625E00
814.81	5.7937E00
815.11	5.9276E00
815.41	6.0748E00
815.72	5.9953E00
816.02	6.0374E00
816.32	6.0555E00
816.62	6.0182E00
816.93	6.1296E00
817.23	6.3134E00
817.53	6.1969E00
817.84	6.3282E00
818.14	6.3194E00
818.44	6.2997E00
818.74	6.4837E00
819.04	6.6098E00
819.35	6.5275E00
819.65	6.5753E00
819.95	6.7448E00
820.25	6.7569E00
820.56	6.7416E00
820.86	6.8225E00
821.16	6.8875E00
821.46	6.8815E00
821.76	6.9159E00
822.07	6.8650E00
822.37	6.9873E00
822.67	7.1112E00
822.97	7.1569E00
823.27	7.1398E00
823.57	7.2564E00
823.88	7.2114E00
824.18	7.3354E00
824.48	7.3218E00
824.78	7.4184E00
825.08	7.3893E00
825.38	7.5104E00
825.69	7.5139E00
825.99	7.6246E00
826.29	7.6646E00
826.59	7.6314E00
826.89	7.7763E00
827.19	7.5759E00
827.49	8.0730E00
827.79	7.9590E00
828.09	7.8858E00
828.39	8.0831E00
828.70	8.0499E00
829.00	8.0420E00
829.30	8.1839E00
829.60	8.3173E00
829.90	8.2013E00
830.20	8.1398E00
830.50	8.5000E00
830.80	8.5450E00
831.10	8.3755E00
831.40	8.6791E00
831.70	8.5840E00
832.00	8.6346E00
832.30	8.8801E00
832.60	8.7525E00
832.90	8.9199E00
833.20	9.0885E00
833.50	8.8845E00
833.80	9.0427E00
834.10	9.1395E00
834.40	8.9724E00
834.70	9.1822E00
835.00	9.2342E00
835.30	9.1906E00
835.60	9.3413E00
835.90	9.4220E00
836.20	9.6517E00
836.50	9.6452E00
836.80	9.6489E00
837.10	9.5984E00
837.40	9.7790E00
837.70	9.8321E00
838.00	9.8340E00
838.30	9.7980E00
838.60	1.0186E01
838.90	1.0171E01
839.19	1.0069E01
839.49	1.0452E01
839.79	1.0319E01
840.09	1.0429E01
840.39	1.0264E01
840.69	1.0466E01
840.99	1.1038E01
841.29	1.0879E01
841.59	1.0891E01
841.88	1.0958E01
842.18	1.1032E01
842.48	1.1305E01
842.78	1.1245E01
843.08	1.1369E01
843.38	1.1197E01
843.68	1.1554E01
843.97	1.1599E01
844.27	1.1648E01
844.57	1.1846E01
844.87	1.1911E01
845.17	1.1796E01
845.47	1.1656E01
845.76	1.1988E01
846.06	1.2198E01
846.36	1.2077E01
846.66	1.2336E01
846.96	1.2266E01
847.25	1.2305E01
847.55	1.2415E01
847.85	1.2730E01
848.15	1.2500E01
848.44	1.2900E01
848.74	1.2583E01
849.04	1.2929E01
849.34	1.3015E01
849.63	1.3288E01
849.93	1.3239E01
850.23	1.3759E01
850.53	1.3190E01
850.82	1.3530E01
851.12	1.3521E01
851.42	1.3368E01
851.71	1.3723E01
852.01	1.4019E01
852.31	1.4262E01
852.61	1.4342E01
852.90	1.4361E01
853.20	1.4496E01
853.50	1.4717E01
853.79	1.5094E01
854.09	1.4549E01
854.39	1.4783E01
854.68	1.5588E01
854.98	1.5372E01
855.28	1.5331E01
855.57	1.5513E01
855.87	1.5562E01
856.17	1.5638E01
856.46	1.5617E01
856.76	1.5755E01
857.05	1.6057E01
857.35	1.6165E01
857.65	1.5961E01
857.94	1.6377E01
858.24	1.6330E01
858.53	1.6754E01
858.83	1.6682E01
859.13	1.6970E01
859.42	1.6801E01
859.72	1.7380E01
860.01	1.7996E01
860.31	1.7554E01
860.60	1.7959E01
860.90	1.7922E01
861.20	1.8183E01
861.49	1.7878E01
861.79	1.8703E01
862.08	1.8748E01
862.38	1.9087E01
862.67	1.9032E01
862.97	1.9169E01
863.26	1.8987E01
863.56	2.0024E01
863.85	1.9899E01
864.15	1.9638E01
864.44	2.0316E01
864.74	2.0094E01
865.03	2.0278E01
865.33	2.0446E01
865.62	2.0936E01
865.92	2.0697E01
866.21	2.2075E01
866.51	2.1902E01
866.80	2.1818E01
867.10	2.2262E01
867.39	2.1892E01
867.69	2.2796E01
867.98	2.1858E01
868.27	2.2603E01
868.57	2.2633E01
868.86	2.3957E01
869.16	2.3623E01
869.45	2.3759E01
869.75	2.3145E01
870.04	2.4146E01
870.33	2.4393E01
870.63	2.4159E01
870.92	2.5321E01
871.22	2.5632E01
871.51	2.5204E01
871.80	2.5516E01
872.10	2.5516E01
>>>>>End Processed Spectral Data<<<<<
