SpectraSuite Data File
++++++++++++++++++++++++++++++++++++
Date: Tue May 12 09:47:07 PDT 2015
User: schluterlab
Dark Spectrum Present: Yes
Reference Spectrum Present: No
Number of Sampled Component Spectra: 1
Spectrometers: USB2E3373
Integration Time (usec): 2000000 (USB2E3373)
Spectra Averaged: 3 (USB2E3373)
Boxcar Smoothing: 0 (USB2E3373)
Correct for Electrical Dark: No (USB2E3373)
Strobe/Lamp Enabled: No (USB2E3373)
Correct for Detector Non-linearity: No (USB2E3373)
Correct for Stray Light: No (USB2E3373)
Number of Pixels in Processed Spectrum: 2048
>>>>>Begin Processed Spectral Data<<<<<
178.53	0.0000E00
178.91	0.0000E00
179.29	-0.0000E00
179.67	0.0000E00
180.04	0.0000E00
180.42	0.0000E00
180.80	0.0000E00
181.18	0.0000E00
181.56	0.0000E00
181.94	0.0000E00
182.31	0.0000E00
182.69	0.0000E00
183.07	0.0000E00
183.45	0.0000E00
183.83	0.0000E00
184.20	0.0000E00
184.58	0.0000E00
184.96	0.0000E00
185.34	0.0000E00
185.72	0.0000E00
186.09	0.0000E00
186.47	0.0000E00
186.85	0.0000E00
187.23	0.0000E00
187.61	0.0000E00
187.98	0.0000E00
188.36	0.0000E00
188.74	0.0000E00
189.12	0.0000E00
189.49	0.0000E00
189.87	0.0000E00
190.25	0.0000E00
190.63	0.0000E00
191.00	0.0000E00
191.38	0.0000E00
191.76	0.0000E00
192.14	0.0000E00
192.51	0.0000E00
192.89	0.0000E00
193.27	0.0000E00
193.65	0.0000E00
194.02	0.0000E00
194.40	0.0000E00
194.78	0.0000E00
195.15	0.0000E00
195.53	-0.0000E00
195.91	0.0000E00
196.29	0.0000E00
196.66	0.0000E00
197.04	0.0000E00
197.42	0.0000E00
197.79	0.0000E00
198.17	0.0000E00
198.55	0.0000E00
198.92	0.0000E00
199.30	0.0000E00
199.68	0.0000E00
200.05	0.0000E00
200.43	0.0000E00
200.81	0.0000E00
201.18	0.0000E00
201.56	0.0000E00
201.94	0.0000E00
202.31	-0.0000E00
202.69	0.0000E00
203.07	0.0000E00
203.44	0.0000E00
203.82	0.0000E00
204.19	0.0000E00
204.57	0.0000E00
204.95	0.0000E00
205.32	0.0000E00
205.70	0.0000E00
206.08	0.0000E00
206.45	0.0000E00
206.83	0.0000E00
207.20	0.0000E00
207.58	0.0000E00
207.96	0.0000E00
208.33	0.0000E00
208.71	0.0000E00
209.08	0.0000E00
209.46	0.0000E00
209.84	0.0000E00
210.21	0.0000E00
210.59	0.0000E00
210.96	0.0000E00
211.34	0.0000E00
211.71	0.0000E00
212.09	0.0000E00
212.46	0.0000E00
212.84	0.0000E00
213.22	0.0000E00
213.59	0.0000E00
213.97	0.0000E00
214.34	0.0000E00
214.72	0.0000E00
215.09	0.0000E00
215.47	0.0000E00
215.84	0.0000E00
216.22	0.0000E00
216.59	0.0000E00
216.97	0.0000E00
217.34	0.0000E00
217.72	0.0000E00
218.09	0.0000E00
218.47	0.0000E00
218.84	0.0000E00
219.22	0.0000E00
219.59	0.0000E00
219.97	0.0000E00
220.34	0.0000E00
220.72	0.0000E00
221.09	0.0000E00
221.47	0.0000E00
221.84	0.0000E00
222.22	0.0000E00
222.59	0.0000E00
222.97	0.0000E00
223.34	0.0000E00
223.72	0.0000E00
224.09	0.0000E00
224.46	0.0000E00
224.84	0.0000E00
225.21	0.0000E00
225.59	0.0000E00
225.96	0.0000E00
226.34	0.0000E00
226.71	0.0000E00
227.08	0.0000E00
227.46	0.0000E00
227.83	0.0000E00
228.21	0.0000E00
228.58	0.0000E00
228.95	0.0000E00
229.33	0.0000E00
229.70	0.0000E00
230.08	0.0000E00
230.45	0.0000E00
230.82	0.0000E00
231.20	0.0000E00
231.57	0.0000E00
231.95	0.0000E00
232.32	0.0000E00
232.69	0.0000E00
233.07	0.0000E00
233.44	0.0000E00
233.81	0.0000E00
234.19	0.0000E00
234.56	0.0000E00
234.93	0.0000E00
235.31	0.0000E00
235.68	0.0000E00
236.05	0.0000E00
236.43	0.0000E00
236.80	0.0000E00
237.17	0.0000E00
237.55	0.0000E00
237.92	0.0000E00
238.29	0.0000E00
238.67	0.0000E00
239.04	0.0000E00
239.41	0.0000E00
239.79	0.0000E00
240.16	0.0000E00
240.53	0.0000E00
240.91	0.0000E00
241.28	0.0000E00
241.65	0.0000E00
242.02	0.0000E00
242.40	0.0000E00
242.77	0.0000E00
243.14	0.0000E00
243.51	0.0000E00
243.89	0.0000E00
244.26	0.0000E00
244.63	0.0000E00
245.00	0.0000E00
245.38	0.0000E00
245.75	0.0000E00
246.12	0.0000E00
246.49	0.0000E00
246.87	0.0000E00
247.24	0.0000E00
247.61	0.0000E00
247.98	0.0000E00
248.36	0.0000E00
248.73	0.0000E00
249.10	0.0000E00
249.47	0.0000E00
249.84	0.0000E00
250.22	0.0000E00
250.59	0.0000E00
250.96	0.0000E00
251.33	0.0000E00
251.70	0.0000E00
252.08	0.0000E00
252.45	0.0000E00
252.82	0.0000E00
253.19	0.0000E00
253.56	0.0000E00
253.94	0.0000E00
254.31	0.0000E00
254.68	0.0000E00
255.05	0.0000E00
255.42	0.0000E00
255.79	0.0000E00
256.16	0.0000E00
256.54	0.0000E00
256.91	0.0000E00
257.28	0.0000E00
257.65	0.0000E00
258.02	0.0000E00
258.39	0.0000E00
258.76	0.0000E00
259.14	0.0000E00
259.51	0.0000E00
259.88	0.0000E00
260.25	0.0000E00
260.62	0.0000E00
260.99	0.0000E00
261.36	0.0000E00
261.73	0.0000E00
262.10	0.0000E00
262.47	0.0000E00
262.85	0.0000E00
263.22	0.0000E00
263.59	0.0000E00
263.96	0.0000E00
264.33	0.0000E00
264.70	0.0000E00
265.07	0.0000E00
265.44	0.0000E00
265.81	0.0000E00
266.18	0.0000E00
266.55	0.0000E00
266.92	0.0000E00
267.29	0.0000E00
267.66	0.0000E00
268.03	0.0000E00
268.40	0.0000E00
268.77	0.0000E00
269.14	0.0000E00
269.51	0.0000E00
269.88	0.0000E00
270.25	0.0000E00
270.62	0.0000E00
270.99	0.0000E00
271.36	0.0000E00
271.73	0.0000E00
272.10	0.0000E00
272.47	0.0000E00
272.84	0.0000E00
273.21	0.0000E00
273.58	0.0000E00
273.95	0.0000E00
274.32	0.0000E00
274.69	0.0000E00
275.06	0.0000E00
275.43	0.0000E00
275.80	0.0000E00
276.17	0.0000E00
276.54	0.0000E00
276.91	0.0000E00
277.28	0.0000E00
277.65	0.0000E00
278.02	0.0000E00
278.39	0.0000E00
278.76	0.0000E00
279.13	0.0000E00
279.50	0.0000E00
279.87	0.0000E00
280.23	0.0000E00
280.60	0.0000E00
280.97	0.0000E00
281.34	0.0000E00
281.71	0.0000E00
282.08	0.0000E00
282.45	0.0000E00
282.82	0.0000E00
283.19	0.0000E00
283.56	0.0000E00
283.92	0.0000E00
284.29	0.0000E00
284.66	0.0000E00
285.03	0.0000E00
285.40	0.0000E00
285.77	0.0000E00
286.14	0.0000E00
286.51	0.0000E00
286.87	0.0000E00
287.24	0.0000E00
287.61	0.0000E00
287.98	0.0000E00
288.35	0.0000E00
288.72	0.0000E00
289.08	0.0000E00
289.45	0.0000E00
289.82	0.0000E00
290.19	0.0000E00
290.56	0.0000E00
290.93	0.0000E00
291.29	0.0000E00
291.66	0.0000E00
292.03	0.0000E00
292.40	0.0000E00
292.77	0.0000E00
293.13	0.0000E00
293.50	0.0000E00
293.87	0.0000E00
294.24	0.0000E00
294.60	0.0000E00
294.97	0.0000E00
295.34	0.0000E00
295.71	0.0000E00
296.08	0.0000E00
296.44	0.0000E00
296.81	0.0000E00
297.18	0.0000E00
297.55	0.0000E00
297.91	0.0000E00
298.28	0.0000E00
298.65	0.0000E00
299.02	0.0000E00
299.38	0.0000E00
299.75	0.0000E00
300.12	8.8172E-02
300.48	2.4623E-01
300.85	8.9690E-02
301.22	2.3326E-01
301.59	7.6449E-02
301.95	9.0241E-02
302.32	1.2332E-01
302.69	1.2096E-01
303.05	7.5206E-02
303.42	1.0036E-01
303.79	1.1716E-01
304.15	7.6208E-02
304.52	7.8032E-02
304.89	7.4138E-02
305.25	1.5696E-01
305.62	8.9543E-02
305.99	1.1979E-01
306.35	6.4342E-02
306.72	8.6078E-02
307.09	9.9139E-02
307.45	8.4285E-02
307.82	5.6287E-02
308.19	6.8917E-02
308.55	6.9612E-02
308.92	9.1231E-02
309.29	6.9277E-02
309.65	1.5786E-01
310.02	6.6878E-02
310.38	6.2402E-02
310.75	7.9263E-02
311.12	7.3834E-02
311.48	1.2465E-01
311.85	9.3983E-02
312.22	6.7700E-02
312.58	1.2842E-01
312.95	7.8749E-02
313.31	7.2654E-02
313.68	9.4190E-02
314.05	1.5546E-01
314.41	8.4008E-02
314.78	5.5067E-02
315.14	1.5857E-01
315.51	1.7808E-01
315.87	7.5936E-02
316.24	1.1292E-01
316.61	1.0096E-01
316.97	6.9906E-02
317.34	1.3033E-01
317.70	8.6842E-02
318.07	9.4231E-02
318.43	1.1374E-01
318.80	7.7382E-02
319.16	9.6655E-02
319.53	6.6100E-02
319.89	1.3874E-01
320.26	1.1393E-01
320.62	1.2555E-01
320.99	1.2368E-01
321.35	7.0214E-02
321.72	1.1320E-01
322.08	1.3793E-01
322.45	1.2803E-01
322.81	8.8882E-02
323.18	3.3493E-01
323.54	1.6005E-01
323.91	1.1008E-01
324.27	2.4470E-01
324.64	1.8451E-01
325.00	1.4974E-01
325.37	2.0972E-01
325.73	7.6110E-02
326.10	3.0314E-01
326.46	1.3368E-01
326.83	1.2735E-01
327.19	2.3860E-01
327.56	9.8096E-02
327.92	1.4514E-01
328.29	1.1563E-01
328.65	1.3345E-01
329.01	1.7444E-01
329.38	1.1509E-01
329.74	9.6510E-02
330.11	1.5887E-01
330.47	9.8429E-02
330.84	1.3933E-01
331.20	1.4009E-01
331.56	1.2872E-01
331.93	1.4747E-01
332.29	1.6173E-01
332.66	9.7510E-02
333.02	1.2310E-01
333.38	1.7911E-01
333.75	9.3479E-02
334.11	2.2554E-01
334.48	1.2995E-01
334.84	1.2063E-01
335.20	1.5216E-01
335.57	2.8122E-01
335.93	1.8662E-01
336.29	1.5357E-01
336.66	1.3589E-01
337.02	1.2543E-01
337.38	1.1968E-01
337.75	1.2836E-01
338.11	1.0204E-01
338.47	1.5285E-01
338.84	1.2784E-01
339.20	1.0454E-01
339.56	3.0151E-01
339.93	1.4070E-01
340.29	1.3238E-01
340.65	1.3057E-01
341.02	2.2200E-01
341.38	1.4645E-01
341.74	1.6963E-01
342.11	1.7131E-01
342.47	1.6944E-01
342.83	1.3985E-01
343.20	2.1151E-01
343.56	1.3349E-01
343.92	2.6442E-01
344.28	1.1378E-01
344.65	1.7948E-01
345.01	1.1449E-01
345.37	1.7499E-01
345.73	1.7015E-01
346.10	1.4194E-01
346.46	1.8757E-01
346.82	1.2991E-01
347.19	3.0336E-01
347.55	1.2137E-01
347.91	1.2719E-01
348.27	1.4221E-01
348.63	1.2582E-01
349.00	1.3612E-01
349.36	2.5638E-01
349.72	1.6735E-01
350.08	2.4990E-01
350.45	1.5415E-01
350.81	1.3767E-01
351.17	2.0042E-01
351.53	2.0813E-01
351.89	1.7900E-01
352.26	2.1580E-01
352.62	1.6129E-01
352.98	1.7892E-01
353.34	1.6215E-01
353.70	2.2772E-01
354.07	2.1529E-01
354.43	2.4136E-01
354.79	2.1308E-01
355.15	1.6413E-01
355.51	1.5606E-01
355.87	1.7973E-01
356.24	1.7910E-01
356.60	1.8210E-01
356.96	1.9809E-01
357.32	1.5513E-01
357.68	1.5727E-01
358.04	1.3137E-01
358.40	1.4343E-01
358.77	1.3381E-01
359.13	1.6381E-01
359.49	1.8912E-01
359.85	2.0470E-01
360.21	1.5734E-01
360.57	1.9858E-01
360.93	1.9540E-01
361.29	2.2896E-01
361.66	1.7127E-01
362.02	1.6384E-01
362.38	2.0979E-01
362.74	1.9732E-01
363.10	2.6311E-01
363.46	2.5467E-01
363.82	2.1644E-01
364.18	2.7565E-01
364.54	2.6215E-01
364.90	2.5805E-01
365.26	2.5904E-01
365.62	3.0427E-01
365.98	2.8308E-01
366.35	2.3873E-01
366.71	3.0103E-01
367.07	3.8418E-01
367.43	2.4863E-01
367.79	3.5852E-01
368.15	3.1707E-01
368.51	4.0916E-01
368.87	3.3844E-01
369.23	3.7359E-01
369.59	2.9752E-01
369.95	3.3599E-01
370.31	3.2436E-01
370.67	3.7977E-01
371.03	3.1702E-01
371.39	3.1507E-01
371.75	3.2976E-01
372.11	3.4568E-01
372.47	2.9988E-01
372.83	3.1366E-01
373.19	2.5069E-01
373.55	3.2344E-01
373.91	3.4362E-01
374.27	3.5075E-01
374.63	3.4361E-01
374.99	3.1830E-01
375.35	3.2974E-01
375.71	3.4529E-01
376.07	3.7868E-01
376.42	3.8660E-01
376.78	3.6044E-01
377.14	4.2202E-01
377.50	5.0446E-01
377.86	4.4755E-01
378.22	4.5931E-01
378.58	4.7694E-01
378.94	4.5636E-01
379.30	4.5546E-01
379.66	4.3125E-01
380.02	4.1951E-01
380.38	4.3151E-01
380.74	4.9183E-01
381.09	5.0847E-01
381.45	4.7351E-01
381.81	4.3389E-01
382.17	4.2048E-01
382.53	4.0998E-01
382.89	3.5267E-01
383.25	3.5064E-01
383.61	3.4362E-01
383.97	3.3479E-01
384.32	3.5149E-01
384.68	3.8404E-01
385.04	4.7520E-01
385.40	5.0241E-01
385.76	5.1980E-01
386.12	4.6244E-01
386.48	4.8124E-01
386.83	4.5570E-01
387.19	4.7532E-01
387.55	5.3067E-01
387.91	5.2503E-01
388.27	4.8898E-01
388.62	5.4605E-01
388.98	5.0998E-01
389.34	5.8770E-01
389.70	5.8528E-01
390.06	6.3045E-01
390.42	6.4866E-01
390.77	6.5138E-01
391.13	7.2309E-01
391.49	6.8695E-01
391.85	7.3412E-01
392.20	6.4021E-01
392.56	5.9328E-01
392.92	5.7098E-01
393.28	4.9759E-01
393.64	4.4664E-01
393.99	4.3676E-01
394.35	4.8977E-01
394.71	5.4618E-01
395.07	6.2738E-01
395.42	7.1575E-01
395.78	7.3095E-01
396.14	6.7487E-01
396.50	6.3327E-01
396.85	6.0426E-01
397.21	5.3577E-01
397.57	5.6034E-01
397.92	6.0966E-01
398.28	7.0716E-01
398.64	8.5787E-01
399.00	6.9099E-01
399.35	7.1417E-01
399.71	7.6381E-01
400.07	7.4527E-01
400.42	7.2754E-01
400.78	7.4522E-01
401.14	7.4919E-01
401.49	6.9453E-01
401.85	6.9002E-01
402.21	7.0149E-01
402.57	6.9684E-01
402.92	7.3513E-01
403.28	6.9890E-01
403.63	6.9630E-01
403.99	7.1140E-01
404.35	6.9100E-01
404.70	6.7822E-01
405.06	6.8922E-01
405.42	7.0422E-01
405.77	6.5493E-01
406.13	6.5410E-01
406.49	6.4945E-01
406.84	6.5759E-01
407.20	6.4146E-01
407.55	6.9207E-01
407.91	7.0452E-01
408.27	6.6041E-01
408.62	6.6436E-01
408.98	6.7208E-01
409.34	6.8433E-01
409.69	6.5454E-01
410.05	6.9023E-01
410.40	6.5896E-01
410.76	6.0923E-01
411.11	6.1450E-01
411.47	6.6653E-01
411.83	6.3126E-01
412.18	6.4381E-01
412.54	6.3120E-01
412.89	6.2703E-01
413.25	6.5053E-01
413.60	6.7898E-01
413.96	6.3701E-01
414.31	6.4069E-01
414.67	6.7634E-01
415.03	6.6288E-01
415.38	6.7902E-01
415.74	6.7083E-01
416.09	6.6612E-01
416.45	6.7551E-01
416.80	6.6297E-01
417.16	6.5735E-01
417.51	6.5343E-01
417.87	6.2923E-01
418.22	6.2156E-01
418.58	6.3532E-01
418.93	6.0828E-01
419.29	6.5249E-01
419.64	6.3331E-01
420.00	5.9771E-01
420.35	5.8740E-01
420.71	6.1697E-01
421.06	6.1942E-01
421.42	6.3461E-01
421.77	6.2584E-01
422.12	6.2503E-01
422.48	5.9153E-01
422.83	6.3217E-01
423.19	5.9707E-01
423.54	5.9799E-01
423.90	6.0497E-01
424.25	5.7076E-01
424.61	6.3013E-01
424.96	5.8913E-01
425.31	5.8578E-01
425.67	5.6161E-01
426.02	5.8708E-01
426.38	5.8636E-01
426.73	5.5540E-01
427.09	5.8158E-01
427.44	5.5717E-01
427.79	5.6314E-01
428.15	5.8051E-01
428.50	5.7640E-01
428.85	5.9014E-01
429.21	5.4462E-01
429.56	5.3248E-01
429.92	5.4361E-01
430.27	5.6179E-01
430.62	5.6084E-01
430.98	5.6770E-01
431.33	5.5504E-01
431.68	5.3670E-01
432.04	5.3257E-01
432.39	5.4025E-01
432.74	5.5973E-01
433.10	5.2488E-01
433.45	5.5594E-01
433.80	5.5297E-01
434.16	5.6499E-01
434.51	5.3807E-01
434.86	5.6009E-01
435.22	5.3987E-01
435.57	5.7708E-01
435.92	5.6522E-01
436.28	5.6295E-01
436.63	5.2218E-01
436.98	5.5874E-01
437.34	5.5472E-01
437.69	5.2696E-01
438.04	5.1296E-01
438.39	5.4901E-01
438.75	5.6192E-01
439.10	5.0737E-01
439.45	5.5134E-01
439.81	5.4523E-01
440.16	5.1269E-01
440.51	5.3548E-01
440.86	5.3348E-01
441.22	5.2170E-01
441.57	5.2698E-01
441.92	5.1168E-01
442.27	5.3680E-01
442.63	5.2538E-01
442.98	5.6091E-01
443.33	5.4890E-01
443.68	5.1069E-01
444.03	4.8180E-01
444.39	4.8435E-01
444.74	5.2548E-01
445.09	5.3354E-01
445.44	5.3459E-01
445.79	4.7210E-01
446.15	5.0739E-01
446.50	5.2417E-01
446.85	4.9276E-01
447.20	4.7944E-01
447.55	5.1864E-01
447.91	4.9869E-01
448.26	5.1141E-01
448.61	5.0637E-01
448.96	4.9648E-01
449.31	5.0429E-01
449.66	5.0909E-01
450.02	5.0099E-01
450.37	5.0155E-01
450.72	4.9437E-01
451.07	5.3322E-01
451.42	5.3047E-01
451.77	5.0109E-01
452.12	5.0025E-01
452.47	5.2327E-01
452.83	4.8119E-01
453.18	5.0916E-01
453.53	5.0284E-01
453.88	4.7411E-01
454.23	4.6799E-01
454.58	4.6776E-01
454.93	5.0269E-01
455.28	4.9990E-01
455.63	4.8485E-01
455.98	4.7366E-01
456.34	4.9926E-01
456.69	4.8426E-01
457.04	4.8777E-01
457.39	4.5778E-01
457.74	4.6703E-01
458.09	4.5507E-01
458.44	4.5420E-01
458.79	4.4437E-01
459.14	4.5918E-01
459.49	4.7790E-01
459.84	4.5144E-01
460.19	4.8008E-01
460.54	4.7759E-01
460.89	4.3978E-01
461.24	4.8163E-01
461.59	4.6081E-01
461.94	4.6703E-01
462.29	4.3646E-01
462.64	4.6174E-01
462.99	4.6640E-01
463.34	4.9312E-01
463.69	4.6249E-01
464.04	4.3132E-01
464.39	4.4773E-01
464.74	4.5388E-01
465.09	4.6628E-01
465.44	4.3900E-01
465.79	4.5286E-01
466.14	4.5566E-01
466.49	4.4736E-01
466.84	4.4317E-01
467.19	4.5911E-01
467.54	4.6063E-01
467.89	4.3825E-01
468.24	4.1546E-01
468.59	4.2908E-01
468.94	4.2038E-01
469.29	4.2225E-01
469.64	4.3693E-01
469.99	4.2054E-01
470.34	4.0720E-01
470.68	4.3343E-01
471.03	4.1854E-01
471.38	4.1948E-01
471.73	3.9964E-01
472.08	3.9498E-01
472.43	3.8125E-01
472.78	4.0268E-01
473.13	3.9825E-01
473.48	3.9155E-01
473.83	3.8412E-01
474.17	3.8935E-01
474.52	3.8534E-01
474.87	3.6975E-01
475.22	3.7750E-01
475.57	3.5959E-01
475.92	3.5001E-01
476.27	3.6052E-01
476.61	3.5082E-01
476.96	3.4180E-01
477.31	3.3148E-01
477.66	3.3779E-01
478.01	3.3572E-01
478.36	3.3411E-01
478.70	3.2941E-01
479.05	3.3419E-01
479.40	3.1909E-01
479.75	3.1563E-01
480.10	3.1772E-01
480.45	3.1013E-01
480.79	3.0860E-01
481.14	3.1289E-01
481.49	3.0543E-01
481.84	3.0006E-01
482.19	2.9803E-01
482.53	2.9736E-01
482.88	2.9477E-01
483.23	2.8981E-01
483.58	2.8370E-01
483.92	2.9093E-01
484.27	2.8185E-01
484.62	2.7999E-01
484.97	2.7392E-01
485.31	2.7266E-01
485.66	2.7846E-01
486.01	2.7839E-01
486.36	2.6537E-01
486.70	2.7275E-01
487.05	2.7083E-01
487.40	2.7123E-01
487.75	2.6283E-01
488.09	2.6343E-01
488.44	2.6570E-01
488.79	2.6171E-01
489.13	2.5874E-01
489.48	2.6208E-01
489.83	2.6269E-01
490.17	2.5539E-01
490.52	2.5517E-01
490.87	2.5639E-01
491.22	2.5972E-01
491.56	2.5611E-01
491.91	2.5960E-01
492.26	2.5654E-01
492.60	2.5652E-01
492.95	2.5907E-01
493.30	2.5855E-01
493.64	2.5535E-01
493.99	2.5638E-01
494.34	2.5356E-01
494.68	2.5092E-01
495.03	2.5699E-01
495.37	2.5467E-01
495.72	2.5740E-01
496.07	2.5176E-01
496.41	2.5333E-01
496.76	2.5149E-01
497.11	2.5395E-01
497.45	2.5289E-01
497.80	2.5345E-01
498.14	2.5330E-01
498.49	2.5374E-01
498.84	2.5419E-01
499.18	2.5397E-01
499.53	2.5374E-01
499.87	2.5134E-01
500.22	2.5441E-01
500.56	2.5376E-01
500.91	2.5333E-01
501.26	2.5321E-01
501.60	2.5271E-01
501.95	2.5085E-01
502.29	2.5405E-01
502.64	2.4922E-01
502.98	2.5325E-01
503.33	2.5107E-01
503.67	2.5186E-01
504.02	2.5117E-01
504.36	2.5080E-01
504.71	2.5143E-01
505.06	2.4909E-01
505.40	2.4932E-01
505.75	2.5067E-01
506.09	2.5082E-01
506.44	2.5075E-01
506.78	2.4813E-01
507.13	2.4976E-01
507.47	2.4767E-01
507.82	2.4744E-01
508.16	2.4999E-01
508.51	2.4772E-01
508.85	2.4462E-01
509.19	2.4785E-01
509.54	2.4753E-01
509.88	2.4753E-01
510.23	2.4385E-01
510.57	2.4532E-01
510.92	2.4436E-01
511.26	2.4461E-01
511.61	2.4449E-01
511.95	2.4482E-01
512.30	2.4328E-01
512.64	2.4508E-01
512.98	2.4070E-01
513.33	2.4250E-01
513.67	2.4314E-01
514.02	2.4225E-01
514.36	2.4014E-01
514.70	2.4163E-01
515.05	2.3902E-01
515.39	2.4085E-01
515.74	2.3852E-01
516.08	2.3728E-01
516.42	2.3937E-01
516.77	2.4006E-01
517.11	2.4008E-01
517.46	2.4121E-01
517.80	2.3775E-01
518.14	2.3917E-01
518.49	2.3691E-01
518.83	2.3787E-01
519.17	2.3777E-01
519.52	2.3850E-01
519.86	2.3726E-01
520.20	2.3642E-01
520.55	2.3676E-01
520.89	2.3551E-01
521.23	2.3797E-01
521.58	2.3748E-01
521.92	2.3932E-01
522.26	2.4056E-01
522.61	2.3672E-01
522.95	2.3856E-01
523.29	2.3484E-01
523.64	2.3530E-01
523.98	2.3644E-01
524.32	2.3729E-01
524.66	2.3922E-01
525.01	2.3945E-01
525.35	2.4014E-01
525.69	2.4083E-01
526.04	2.4006E-01
526.38	2.3658E-01
526.72	2.4138E-01
527.06	2.3968E-01
527.41	2.4184E-01
527.75	2.4382E-01
528.09	2.4186E-01
528.43	2.4567E-01
528.78	2.4279E-01
529.12	2.4540E-01
529.46	2.4731E-01
529.80	2.4654E-01
530.15	2.4694E-01
530.49	2.4700E-01
530.83	2.4821E-01
531.17	2.4820E-01
531.51	2.4749E-01
531.86	2.4964E-01
532.20	2.5079E-01
532.54	2.5005E-01
532.88	2.5220E-01
533.22	2.5405E-01
533.57	2.5502E-01
533.91	2.5460E-01
534.25	2.5705E-01
534.59	2.5538E-01
534.93	2.5753E-01
535.27	2.5635E-01
535.62	2.6117E-01
535.96	2.6039E-01
536.30	2.6079E-01
536.64	2.6132E-01
536.98	2.6365E-01
537.32	2.6274E-01
537.66	2.6298E-01
538.01	2.6529E-01
538.35	2.6750E-01
538.69	2.6439E-01
539.03	2.7076E-01
539.37	2.6829E-01
539.71	2.7041E-01
540.05	2.7062E-01
540.39	2.7168E-01
540.73	2.7028E-01
541.07	2.7073E-01
541.42	2.7157E-01
541.76	2.7189E-01
542.10	2.7342E-01
542.44	2.7454E-01
542.78	2.7465E-01
543.12	2.7405E-01
543.46	2.7989E-01
543.80	2.7660E-01
544.14	2.7629E-01
544.48	2.7527E-01
544.82	2.7822E-01
545.16	2.7887E-01
545.50	2.7720E-01
545.84	2.8001E-01
546.18	2.7806E-01
546.52	2.8107E-01
546.86	2.7895E-01
547.20	2.8265E-01
547.54	2.8597E-01
547.88	2.8087E-01
548.22	2.8141E-01
548.56	2.8320E-01
548.90	2.8129E-01
549.24	2.8355E-01
549.58	2.8442E-01
549.92	2.8244E-01
550.26	2.8720E-01
550.60	2.8339E-01
550.94	2.8180E-01
551.28	2.8582E-01
551.62	2.8390E-01
551.96	2.8626E-01
552.30	2.8752E-01
552.64	2.8649E-01
552.98	2.8663E-01
553.32	2.8726E-01
553.66	2.8581E-01
554.00	2.8612E-01
554.34	2.8685E-01
554.68	2.8817E-01
555.02	2.8857E-01
555.36	2.8951E-01
555.69	2.8848E-01
556.03	2.8811E-01
556.37	2.8962E-01
556.71	2.8717E-01
557.05	2.8663E-01
557.39	2.8720E-01
557.73	2.8745E-01
558.07	2.8956E-01
558.41	2.8860E-01
558.75	2.8906E-01
559.08	2.8944E-01
559.42	2.8660E-01
559.76	2.9083E-01
560.10	2.9041E-01
560.44	2.9061E-01
560.78	2.8747E-01
561.12	2.8954E-01
561.45	2.8891E-01
561.79	2.8998E-01
562.13	2.9056E-01
562.47	2.9059E-01
562.81	2.9083E-01
563.15	2.9068E-01
563.48	2.9113E-01
563.82	2.8764E-01
564.16	2.9016E-01
564.50	2.9046E-01
564.84	2.9125E-01
565.17	2.9145E-01
565.51	2.9058E-01
565.85	2.9295E-01
566.19	2.8947E-01
566.52	2.9362E-01
566.86	2.9011E-01
567.20	2.9275E-01
567.54	2.9192E-01
567.88	2.9248E-01
568.21	2.9237E-01
568.55	2.9383E-01
568.89	2.9379E-01
569.23	2.9347E-01
569.56	2.9299E-01
569.90	2.9419E-01
570.24	2.9638E-01
570.57	2.9605E-01
570.91	2.9673E-01
571.25	2.9246E-01
571.59	2.9599E-01
571.92	2.9592E-01
572.26	2.9702E-01
572.60	2.9973E-01
572.93	2.9788E-01
573.27	3.0062E-01
573.61	3.0125E-01
573.95	2.9663E-01
574.28	3.0164E-01
574.62	3.0210E-01
574.96	3.0218E-01
575.29	3.0142E-01
575.63	3.0608E-01
575.97	3.0537E-01
576.30	3.1245E-01
576.64	3.0863E-01
576.98	3.0792E-01
577.31	3.0923E-01
577.65	3.1255E-01
577.98	3.1039E-01
578.32	3.1288E-01
578.66	3.1456E-01
578.99	3.1536E-01
579.33	3.1673E-01
579.67	3.1446E-01
580.00	3.1850E-01
580.34	3.1757E-01
580.67	3.1960E-01
581.01	3.2192E-01
581.35	3.2261E-01
581.68	3.2426E-01
582.02	3.2332E-01
582.35	3.2563E-01
582.69	3.2584E-01
583.02	3.3077E-01
583.36	3.2742E-01
583.70	3.2696E-01
584.03	3.2956E-01
584.37	3.2727E-01
584.70	3.3444E-01
585.04	3.3427E-01
585.37	3.3232E-01
585.71	3.3779E-01
586.04	3.3643E-01
586.38	3.3415E-01
586.72	3.3874E-01
587.05	3.4031E-01
587.39	3.4157E-01
587.72	3.3962E-01
588.06	3.4218E-01
588.39	3.4168E-01
588.73	3.4515E-01
589.06	3.4302E-01
589.40	3.4801E-01
589.73	3.4972E-01
590.07	3.5056E-01
590.40	3.5126E-01
590.73	3.5523E-01
591.07	3.5178E-01
591.40	3.5904E-01
591.74	3.5121E-01
592.07	3.5583E-01
592.41	3.5752E-01
592.74	3.5895E-01
593.08	3.5643E-01
593.41	3.5899E-01
593.75	3.5639E-01
594.08	3.6174E-01
594.41	3.5992E-01
594.75	3.6129E-01
595.08	3.6111E-01
595.42	3.5681E-01
595.75	3.6262E-01
596.09	3.6271E-01
596.42	3.6082E-01
596.75	3.6514E-01
597.09	3.6720E-01
597.42	3.6381E-01
597.75	3.6764E-01
598.09	3.6879E-01
598.42	3.6593E-01
598.76	3.6814E-01
599.09	3.7295E-01
599.42	3.7274E-01
599.76	3.7100E-01
600.09	3.6973E-01
600.42	3.7533E-01
600.76	3.6810E-01
601.09	3.7277E-01
601.42	3.7662E-01
601.76	3.7242E-01
602.09	3.7113E-01
602.42	3.7354E-01
602.76	3.7230E-01
603.09	3.7143E-01
603.42	3.7819E-01
603.76	3.7388E-01
604.09	3.7386E-01
604.42	3.7707E-01
604.76	3.7394E-01
605.09	3.7959E-01
605.42	3.7625E-01
605.75	3.7814E-01
606.09	3.7610E-01
606.42	3.7741E-01
606.75	3.7874E-01
607.09	3.7934E-01
607.42	3.8003E-01
607.75	3.8061E-01
608.08	3.7980E-01
608.42	3.8248E-01
608.75	3.7792E-01
609.08	3.8301E-01
609.41	3.8229E-01
609.75	3.8035E-01
610.08	3.8264E-01
610.41	3.8481E-01
610.74	3.8379E-01
611.07	3.8354E-01
611.41	3.8303E-01
611.74	3.8446E-01
612.07	3.8652E-01
612.40	3.8119E-01
612.73	3.8492E-01
613.07	3.8708E-01
613.40	3.8294E-01
613.73	3.8145E-01
614.06	3.8523E-01
614.39	3.8663E-01
614.72	3.8787E-01
615.06	3.8732E-01
615.39	3.9206E-01
615.72	3.8582E-01
616.05	3.8944E-01
616.38	3.9020E-01
616.71	3.9118E-01
617.05	3.8933E-01
617.38	3.9129E-01
617.71	3.8891E-01
618.04	3.9115E-01
618.37	3.8901E-01
618.70	3.8986E-01
619.03	3.9136E-01
619.36	3.8569E-01
619.69	3.9375E-01
620.03	3.8939E-01
620.36	3.9022E-01
620.69	3.8812E-01
621.02	3.9155E-01
621.35	3.9054E-01
621.68	3.8681E-01
622.01	3.8567E-01
622.34	3.8800E-01
622.67	3.8690E-01
623.00	3.8878E-01
623.33	3.8923E-01
623.66	3.8617E-01
623.99	3.8768E-01
624.32	3.8622E-01
624.65	3.8745E-01
624.99	3.8734E-01
625.32	3.8876E-01
625.65	3.8811E-01
625.98	3.8244E-01
626.31	3.8710E-01
626.64	3.8819E-01
626.97	3.8887E-01
627.30	3.8594E-01
627.63	3.8754E-01
627.96	3.8429E-01
628.29	3.8439E-01
628.62	3.8778E-01
628.95	3.8770E-01
629.28	3.8161E-01
629.61	3.9367E-01
629.94	3.8813E-01
630.26	3.8886E-01
630.59	3.9088E-01
630.92	3.8910E-01
631.25	3.9066E-01
631.58	3.9494E-01
631.91	3.8940E-01
632.24	3.9765E-01
632.57	3.9380E-01
632.90	3.9408E-01
633.23	3.9482E-01
633.56	3.9693E-01
633.89	3.9764E-01
634.22	3.9925E-01
634.55	4.0044E-01
634.88	4.0503E-01
635.20	4.0389E-01
635.53	4.0657E-01
635.86	4.0665E-01
636.19	4.1140E-01
636.52	4.1290E-01
636.85	4.0924E-01
637.18	4.1404E-01
637.51	4.1099E-01
637.83	4.1525E-01
638.16	4.1092E-01
638.49	4.2336E-01
638.82	4.2190E-01
639.15	4.2510E-01
639.48	4.2811E-01
639.81	4.3050E-01
640.13	4.2675E-01
640.46	4.3264E-01
640.79	4.3246E-01
641.12	4.3630E-01
641.45	4.3600E-01
641.77	4.3263E-01
642.10	4.4278E-01
642.43	4.4393E-01
642.76	4.4645E-01
643.09	4.4364E-01
643.41	4.4736E-01
643.74	4.4766E-01
644.07	4.4742E-01
644.40	4.5105E-01
644.73	4.5629E-01
645.05	4.5819E-01
645.38	4.6088E-01
645.71	4.6223E-01
646.04	4.6177E-01
646.36	4.6150E-01
646.69	4.6846E-01
647.02	4.6900E-01
647.35	4.6602E-01
647.67	4.7201E-01
648.00	4.7054E-01
648.33	4.7645E-01
648.66	4.7344E-01
648.98	4.8007E-01
649.31	4.7890E-01
649.64	4.8075E-01
649.96	4.8511E-01
650.29	4.8776E-01
650.62	4.8870E-01
650.94	4.8816E-01
651.27	4.8764E-01
651.60	4.8829E-01
651.92	4.9682E-01
652.25	4.9804E-01
652.58	4.9678E-01
652.90	4.9913E-01
653.23	4.9931E-01
653.56	5.0134E-01
653.88	5.0335E-01
654.21	5.0356E-01
654.54	5.0558E-01
654.86	5.1199E-01
655.19	5.0576E-01
655.52	5.1380E-01
655.84	5.1284E-01
656.17	5.1567E-01
656.49	5.2151E-01
656.82	5.1503E-01
657.15	5.2124E-01
657.47	5.2116E-01
657.80	5.2138E-01
658.13	5.2355E-01
658.45	5.2629E-01
658.78	5.2509E-01
659.10	5.3174E-01
659.43	5.3136E-01
659.75	5.2955E-01
660.08	5.2780E-01
660.41	5.3479E-01
660.73	5.3510E-01
661.06	5.3903E-01
661.38	5.3769E-01
661.71	5.3924E-01
662.03	5.3975E-01
662.36	5.4643E-01
662.68	5.4527E-01
663.01	5.3855E-01
663.33	5.4341E-01
663.66	5.4710E-01
663.98	5.4436E-01
664.31	5.4501E-01
664.63	5.5563E-01
664.96	5.5221E-01
665.28	5.5634E-01
665.61	5.5491E-01
665.93	5.5598E-01
666.26	5.5876E-01
666.58	5.5950E-01
666.91	5.5567E-01
667.23	5.6233E-01
667.56	5.5525E-01
667.88	5.6417E-01
668.21	5.6375E-01
668.53	5.6110E-01
668.86	5.7186E-01
669.18	5.6397E-01
669.50	5.7604E-01
669.83	5.7443E-01
670.15	5.7574E-01
670.48	5.7500E-01
670.80	5.7259E-01
671.13	5.7002E-01
671.45	5.7720E-01
671.77	5.7982E-01
672.10	5.7624E-01
672.42	5.8449E-01
672.75	5.8146E-01
673.07	5.8652E-01
673.39	5.8083E-01
673.72	5.8454E-01
674.04	5.8879E-01
674.37	5.9237E-01
674.69	5.8860E-01
675.01	5.9359E-01
675.34	5.9497E-01
675.66	5.9678E-01
675.98	5.9034E-01
676.31	5.9996E-01
676.63	6.0201E-01
676.95	5.9878E-01
677.28	6.0320E-01
677.60	6.0408E-01
677.92	6.0166E-01
678.25	6.0809E-01
678.57	6.0859E-01
678.89	6.0679E-01
679.22	6.1702E-01
679.54	6.1393E-01
679.86	6.1387E-01
680.18	6.1610E-01
680.51	6.1776E-01
680.83	6.2369E-01
681.15	6.1779E-01
681.48	6.2170E-01
681.80	6.2598E-01
682.12	6.2200E-01
682.44	6.3220E-01
682.77	6.3255E-01
683.09	6.3619E-01
683.41	6.3354E-01
683.73	6.4016E-01
684.06	6.3874E-01
684.38	6.4134E-01
684.70	6.3882E-01
685.02	6.4521E-01
685.34	6.5221E-01
685.67	6.4648E-01
685.99	6.5472E-01
686.31	6.4964E-01
686.63	6.6023E-01
686.96	6.5656E-01
687.28	6.6494E-01
687.60	6.5532E-01
687.92	6.6244E-01
688.24	6.6984E-01
688.56	6.7165E-01
688.89	6.7275E-01
689.21	6.6948E-01
689.53	6.7339E-01
689.85	6.8291E-01
690.17	6.7854E-01
690.49	6.8922E-01
690.82	6.8831E-01
691.14	6.8863E-01
691.46	6.9261E-01
691.78	6.9698E-01
692.10	6.8915E-01
692.42	6.9726E-01
692.74	7.0272E-01
693.06	7.0412E-01
693.39	7.1582E-01
693.71	7.1673E-01
694.03	7.1739E-01
694.35	7.1979E-01
694.67	7.2092E-01
694.99	7.2794E-01
695.31	7.3039E-01
695.63	7.3016E-01
695.95	7.3619E-01
696.27	7.3399E-01
696.59	7.4043E-01
696.91	7.5080E-01
697.23	7.4996E-01
697.56	7.4800E-01
697.88	7.5631E-01
698.20	7.5504E-01
698.52	7.6200E-01
698.84	7.6829E-01
699.16	7.7459E-01
699.48	7.6630E-01
699.80	7.7645E-01
700.12	7.8311E-01
700.44	7.8471E-01
700.76	7.8601E-01
701.08	7.9059E-01
701.40	7.9499E-01
701.72	8.0287E-01
702.04	8.0218E-01
702.36	8.0905E-01
702.68	8.1274E-01
703.00	8.1826E-01
703.32	8.2252E-01
703.64	8.2338E-01
703.96	8.1555E-01
704.28	8.2808E-01
704.60	8.3829E-01
704.91	8.4033E-01
705.23	8.4176E-01
705.55	8.5062E-01
705.87	8.4486E-01
706.19	8.4697E-01
706.51	8.5352E-01
706.83	8.5763E-01
707.15	8.8051E-01
707.47	8.6140E-01
707.79	8.7742E-01
708.11	8.7895E-01
708.43	8.8348E-01
708.74	8.9062E-01
709.06	9.0371E-01
709.38	8.9846E-01
709.70	8.9313E-01
710.02	9.0471E-01
710.34	9.0163E-01
710.66	9.2541E-01
710.98	9.2015E-01
711.29	9.1946E-01
711.61	9.3527E-01
711.93	9.4020E-01
712.25	9.3217E-01
712.57	9.4540E-01
712.89	9.4929E-01
713.20	9.5046E-01
713.52	9.5933E-01
713.84	9.6823E-01
714.16	9.6143E-01
714.48	9.6360E-01
714.80	9.7975E-01
715.11	9.7720E-01
715.43	9.9084E-01
715.75	9.9567E-01
716.07	1.0069E00
716.39	9.8839E-01
716.70	1.0004E00
717.02	9.9565E-01
717.34	1.0256E00
717.66	1.0162E00
717.97	1.0269E00
718.29	1.0331E00
718.61	1.0468E00
718.93	1.0459E00
719.24	1.0483E00
719.56	1.0719E00
719.88	1.0629E00
720.20	1.0757E00
720.51	1.0901E00
720.83	1.0851E00
721.15	1.1064E00
721.46	1.1029E00
721.78	1.1089E00
722.10	1.1263E00
722.42	1.1369E00
722.73	1.1440E00
723.05	1.1297E00
723.37	1.1452E00
723.68	1.1562E00
724.00	1.1555E00
724.32	1.1773E00
724.63	1.1736E00
724.95	1.1677E00
725.27	1.1799E00
725.58	1.1869E00
725.90	1.1882E00
726.22	1.2073E00
726.53	1.1809E00
726.85	1.1979E00
727.16	1.2239E00
727.48	1.2022E00
727.80	1.2154E00
728.11	1.2214E00
728.43	1.2179E00
728.74	1.2125E00
729.06	1.2358E00
729.38	1.2298E00
729.69	1.2345E00
730.01	1.2445E00
730.32	1.2531E00
730.64	1.2525E00
730.96	1.2400E00
731.27	1.2738E00
731.59	1.2441E00
731.90	1.2599E00
732.22	1.2707E00
732.53	1.2685E00
732.85	1.2843E00
733.16	1.2800E00
733.48	1.2873E00
733.80	1.2800E00
734.11	1.3036E00
734.43	1.3021E00
734.74	1.2999E00
735.06	1.3166E00
735.37	1.3281E00
735.69	1.3108E00
736.00	1.3274E00
736.32	1.3297E00
736.63	1.3375E00
736.95	1.3356E00
737.26	1.3605E00
737.58	1.3601E00
737.89	1.3698E00
738.21	1.3568E00
738.52	1.3657E00
738.83	1.3711E00
739.15	1.3721E00
739.46	1.3899E00
739.78	1.3857E00
740.09	1.4033E00
740.41	1.3956E00
740.72	1.3903E00
741.04	1.3921E00
741.35	1.3948E00
741.66	1.4187E00
741.98	1.4106E00
742.29	1.4177E00
742.61	1.4110E00
742.92	1.4166E00
743.23	1.4171E00
743.55	1.4263E00
743.86	1.4138E00
744.18	1.4232E00
744.49	1.4249E00
744.80	1.4212E00
745.12	1.4223E00
745.43	1.4262E00
745.74	1.4259E00
746.06	1.4134E00
746.37	1.4107E00
746.68	1.4224E00
747.00	1.4202E00
747.31	1.4087E00
747.62	1.4003E00
747.94	1.4228E00
748.25	1.4232E00
748.56	1.4258E00
748.88	1.4054E00
749.19	1.4163E00
749.50	1.4182E00
749.82	1.4091E00
750.13	1.4177E00
750.44	1.4189E00
750.75	1.4025E00
751.07	1.4233E00
751.38	1.4305E00
751.69	1.4032E00
752.01	1.4253E00
752.32	1.4223E00
752.63	1.4229E00
752.94	1.4324E00
753.26	1.4401E00
753.57	1.4236E00
753.88	1.4334E00
754.19	1.4333E00
754.51	1.4372E00
754.82	1.4330E00
755.13	1.4497E00
755.44	1.4478E00
755.75	1.4516E00
756.07	1.4525E00
756.38	1.4685E00
756.69	1.4646E00
757.00	1.4752E00
757.31	1.4940E00
757.63	1.5017E00
757.94	1.5050E00
758.25	1.5205E00
758.56	1.4844E00
758.87	1.5371E00
759.18	1.5434E00
759.50	1.5456E00
759.81	1.5465E00
760.12	1.0298E00
760.43	6.5757E-01
760.74	5.5249E-01
761.05	5.1213E-01
761.36	5.6220E-01
761.67	6.7508E-01
761.99	7.4686E-01
762.30	8.0401E-01
762.61	7.9697E-01
762.92	7.6093E-01
763.23	7.5348E-01
763.54	7.6094E-01
763.85	7.7804E-01
764.16	7.9982E-01
764.47	9.4298E-01
764.78	8.9253E-01
765.10	1.0001E00
765.41	9.9629E-01
765.72	1.1152E00
766.03	1.1008E00
766.34	1.1577E00
766.65	1.2161E00
766.96	1.3145E00
767.27	1.3289E00
767.58	1.3879E00
767.89	1.4474E00
768.20	1.4761E00
768.51	1.4690E00
768.82	1.4937E00
769.13	1.5557E00
769.44	1.5344E00
769.75	1.5690E00
770.06	1.5623E00
770.37	1.5800E00
770.68	1.6018E00
770.99	1.6080E00
771.30	1.6021E00
771.61	1.6275E00
771.92	1.6229E00
772.23	1.6474E00
772.54	1.6372E00
772.85	1.6384E00
773.16	1.6374E00
773.47	1.6900E00
773.78	1.6884E00
774.09	1.6950E00
774.39	1.6911E00
774.70	1.6537E00
775.01	1.6771E00
775.32	1.6701E00
775.63	1.7117E00
775.94	1.7084E00
776.25	1.7074E00
776.56	1.7082E00
776.87	1.7287E00
777.18	1.7181E00
777.48	1.7505E00
777.79	1.7178E00
778.10	1.7559E00
778.41	1.7780E00
778.72	1.7339E00
779.03	1.7726E00
779.34	1.8090E00
779.65	1.7872E00
779.95	1.7975E00
780.26	1.7617E00
780.57	1.8309E00
780.88	1.8033E00
781.19	1.8082E00
781.50	1.8163E00
781.80	1.8136E00
782.11	1.8193E00
782.42	1.8319E00
782.73	1.8366E00
783.04	1.8440E00
783.34	1.8320E00
783.65	1.8332E00
783.96	1.8387E00
784.27	1.8449E00
784.57	1.8711E00
784.88	1.8587E00
785.19	1.9129E00
785.50	1.9011E00
785.81	1.8834E00
786.11	1.8689E00
786.42	1.8454E00
786.73	1.8639E00
787.04	1.9198E00
787.34	1.8635E00
787.65	1.8647E00
787.96	1.8752E00
788.26	1.8599E00
788.57	1.8974E00
788.88	1.8525E00
789.19	1.8306E00
789.49	1.8477E00
789.80	1.8907E00
790.11	1.8420E00
790.41	1.8664E00
790.72	1.8889E00
791.03	1.8557E00
791.33	1.8664E00
791.64	1.8987E00
791.95	1.8905E00
792.25	1.9167E00
792.56	1.8850E00
792.87	1.9695E00
793.17	1.9043E00
793.48	1.9487E00
793.79	1.9663E00
794.09	1.9955E00
794.40	2.0264E00
794.70	2.0146E00
795.01	2.0340E00
795.32	1.9929E00
795.62	2.0332E00
795.93	1.9573E00
796.23	1.9762E00
796.54	1.9594E00
796.85	1.9861E00
797.15	2.0005E00
797.46	2.0068E00
797.76	2.0247E00
798.07	2.1045E00
798.37	2.0768E00
798.68	2.0655E00
798.99	2.0735E00
799.29	2.0660E00
799.60	2.0913E00
799.90	2.0744E00
800.21	2.0611E00
800.51	2.0460E00
800.82	2.1119E00
801.12	2.0774E00
801.43	2.0972E00
801.73	2.0931E00
802.04	2.0551E00
802.34	2.0653E00
802.65	2.0833E00
802.95	2.0956E00
803.26	2.1058E00
803.56	2.0630E00
803.87	2.0749E00
804.17	2.0607E00
804.48	2.0617E00
804.78	2.1371E00
805.09	2.0955E00
805.39	2.1626E00
805.70	2.1974E00
806.00	2.1848E00
806.30	2.2172E00
806.61	2.1784E00
806.91	2.2227E00
807.22	2.2521E00
807.52	2.2462E00
807.83	2.2048E00
808.13	2.2429E00
808.43	2.2034E00
808.74	2.2599E00
809.04	2.1781E00
809.35	2.1607E00
809.65	2.1840E00
809.95	2.1359E00
810.26	2.0853E00
810.56	2.1314E00
810.86	2.1316E00
811.17	2.0854E00
811.47	2.0629E00
811.77	2.0166E00
812.08	1.9849E00
812.38	2.0038E00
812.69	1.9517E00
812.99	2.0063E00
813.29	1.8979E00
813.59	1.8474E00
813.90	1.8116E00
814.20	1.7781E00
814.50	1.7415E00
814.81	1.7038E00
815.11	1.6835E00
815.41	1.6023E00
815.72	1.5880E00
816.02	1.5458E00
816.32	1.4993E00
816.62	1.4758E00
816.93	1.5201E00
817.23	1.5010E00
817.53	1.4922E00
817.84	1.4919E00
818.14	1.4830E00
818.44	1.5287E00
818.74	1.6127E00
819.04	1.5457E00
819.35	1.5244E00
819.65	1.5769E00
819.95	1.5701E00
820.25	1.5910E00
820.56	1.6684E00
820.86	1.7065E00
821.16	1.7854E00
821.46	1.7451E00
821.76	1.7631E00
822.07	1.8161E00
822.37	1.6860E00
822.67	1.7647E00
822.97	1.6246E00
823.27	1.4783E00
823.57	1.4423E00
823.88	1.4341E00
824.18	1.4777E00
824.48	1.4926E00
824.78	1.5314E00
825.08	1.5990E00
825.38	1.6603E00
825.69	1.5807E00
825.99	1.5998E00
826.29	1.6220E00
826.59	1.5771E00
826.89	1.6129E00
827.19	1.7187E00
827.49	1.6161E00
827.79	1.5148E00
828.09	1.4618E00
828.39	1.4454E00
828.70	1.4294E00
829.00	1.4392E00
829.30	1.3533E00
829.60	1.3554E00
829.90	1.3956E00
830.20	1.3111E00
830.50	1.3191E00
830.80	1.3695E00
831.10	1.2679E00
831.40	1.3579E00
831.70	1.3318E00
832.00	1.3484E00
832.30	1.2618E00
832.60	1.2526E00
832.90	1.2662E00
833.20	1.2795E00
833.50	1.2466E00
833.80	1.2311E00
834.10	1.2190E00
834.40	1.2924E00
834.70	1.2963E00
835.00	1.2250E00
835.30	1.2250E00
835.60	1.2340E00
835.90	1.2074E00
836.20	1.2717E00
836.50	1.2794E00
836.80	1.4024E00
837.10	1.6973E00
837.40	1.3631E00
837.70	1.3731E00
838.00	1.2578E00
838.30	1.3069E00
838.60	1.3524E00
838.90	1.3287E00
839.19	1.5903E00
839.49	1.2876E00
839.79	1.3568E00
840.09	1.2687E00
840.39	1.3712E00
840.69	1.3499E00
840.99	1.5456E00
841.29	1.4237E00
841.59	1.3056E00
841.88	1.3121E00
842.18	1.3931E00
842.48	1.3338E00
842.78	1.2971E00
843.08	1.3190E00
843.38	1.2989E00
843.68	1.4779E00
843.97	1.4709E00
844.27	1.3906E00
844.57	1.3458E00
844.87	1.3352E00
845.17	1.3104E00
845.47	1.2890E00
845.76	1.4166E00
846.06	1.4191E00
846.36	1.8438E00
846.66	1.3542E00
846.96	1.4370E00
847.25	1.3069E00
847.55	1.3278E00
847.85	1.3688E00
848.15	1.3436E00
848.44	1.3493E00
848.74	1.3289E00
849.04	1.3403E00
849.34	1.3993E00
849.63	1.3462E00
849.93	1.3045E00
850.23	1.3198E00
850.53	1.2834E00
850.82	1.3215E00
851.12	1.3154E00
851.42	1.3641E00
851.71	1.3620E00
852.01	1.3253E00
852.31	1.3915E00
852.61	1.3436E00
852.90	1.3544E00
853.20	1.4651E00
853.50	1.6714E00
853.79	1.5677E00
854.09	1.3314E00
854.39	1.2975E00
854.68	1.3158E00
854.98	1.3041E00
855.28	1.3697E00
855.57	1.5202E00
855.87	1.4251E00
856.17	1.4360E00
856.46	1.2963E00
856.76	1.3040E00
857.05	1.4728E00
857.35	1.3799E00
857.65	1.5562E00
857.94	1.5198E00
858.24	1.5115E00
858.53	1.3974E00
858.83	1.8473E00
859.13	1.4323E00
859.42	1.4404E00
859.72	1.5793E00
860.01	1.4947E00
860.31	1.4287E00
860.60	1.4598E00
860.90	1.6135E00
861.20	1.4393E00
861.49	1.4225E00
861.79	1.5116E00
862.08	2.4569E00
862.38	1.7687E00
862.67	1.4622E00
862.97	1.4870E00
863.26	1.4828E00
863.56	1.6799E00
863.85	1.8840E00
864.15	1.4995E00
864.44	1.5495E00
864.74	1.5373E00
865.03	1.7827E00
865.33	1.6878E00
865.62	1.5264E00
865.92	1.4855E00
866.21	1.6126E00
866.51	1.5617E00
866.80	1.7515E00
867.10	1.8601E00
867.39	1.6462E00
867.69	1.9117E00
867.98	1.4820E00
868.27	1.4861E00
868.57	1.4103E00
868.86	1.7376E00
869.16	1.5570E00
869.45	1.5337E00
869.75	1.4841E00
870.04	1.5655E00
870.33	1.7319E00
870.63	1.5326E00
870.92	1.6204E00
871.22	2.5889E00
871.51	1.6000E00
871.80	1.7878E00
872.10	1.7878E00
>>>>>End Processed Spectral Data<<<<<
