SpectraSuite Data File
++++++++++++++++++++++++++++++++++++
Date: Fri May 15 20:52:19 PDT 2015
User: schluterlab
Dark Spectrum Present: Yes
Reference Spectrum Present: Yes
Number of Sampled Component Spectra: 1
Spectrometers: USB2E3373
Integration Time (usec): 3000 (USB2E3373)
Spectra Averaged: 3 (USB2E3373)
Boxcar Smoothing: 0 (USB2E3373)
Correct for Electrical Dark: No (USB2E3373)
Strobe/Lamp Enabled: No (USB2E3373)
Correct for Detector Non-linearity: No (USB2E3373)
Correct for Stray Light: No (USB2E3373)
Number of Pixels in Processed Spectrum: 2048
>>>>>Begin Processed Spectral Data<<<<<
178.53	0.000
178.91	0.000
179.29	25.000
179.67	-650.000
180.04	114.286
180.42	225.000
180.80	1000.000
181.18	-66.667
181.56	100.000
181.94	-350.000
182.31	1000.000
182.69	-20.000
183.07	-366.667
183.45	-100.000
183.83	216.667
184.20	-63.636
184.58	11.111
184.96	-200.000
185.34	-66.667
185.72	-100.000
186.09	61.538
186.47	-1500.000
186.85	66.667
187.23	111.111
187.61	600.000
187.98	0.000
188.36	44.444
188.74	33.333
189.12	29.412
189.49	0.000
189.87	0.000
190.25	42.857
190.63	0.000
191.00	-233.333
191.38	-21.053
191.76	200.000
192.14	50.000
192.51	550.000
192.89	11.111
193.27	-128.571
193.65	150.000
194.02	118.182
194.40	-40.000
194.78	-100.000
195.15	8.333
195.53	-37.500
195.91	400.000
196.29	-325.000
196.66	123.077
197.04	200.000
197.42	-77.778
197.79	-533.333
198.17	-38.462
198.55	800.000
198.92	-400.000
199.30	-800.000
199.68	0.000
200.05	-200.000
200.43	0.000
200.81	-166.667
201.18	-133.333
201.56	1200.000
201.94	-500.000
202.31	233.333
202.69	-100.000
203.07	250.000
203.44	-200.000
203.82	0.000
204.19	35.714
204.57	-433.333
204.95	200.000
205.32	80.000
205.70	-157.143
206.08	0.000
206.45	133.333
206.83	50.000
207.20	-42.857
207.58	100.000
207.96	-166.667
208.33	-150.000
208.71	25.000
209.08	-200.000
209.46	300.000
209.84	-100.000
210.21	-900.000
210.59	100.000
210.96	-183.333
211.34	50.000
211.71	40.000
212.09	-185.714
212.46	-1600.000
212.84	0.000
213.22	30.000
213.59	700.000
213.97	76.923
214.34	54.545
214.72	33.333
215.09	425.000
215.47	61.538
215.84	-36.364
216.22	-66.667
216.59	-125.000
216.97	-500.000
217.34	-150.000
217.72	-260.000
218.09	-87.500
218.47	225.000
218.84	-700.000
219.22	-44.444
219.59	-140.000
219.97	233.333
220.34	200.000
220.72	-71.429
221.09	-75.000
221.47	150.000
221.84	-250.000
222.22	-800.000
222.59	63.636
222.97	-50.000
223.34	-400.000
223.72	-21.429
224.09	9.524
224.46	35.714
224.84	366.667
225.21	-40.000
225.59	66.667
225.96	-300.000
226.34	475.000
226.71	-157.143
227.08	-150.000
227.46	-37.500
227.83	-550.000
228.21	22.222
228.58	-45.455
228.95	-75.000
229.33	140.000
229.70	-12.500
230.08	-75.000
230.45	-200.000
230.82	85.714
231.20	46.667
231.57	14.286
231.95	28.571
232.32	-130.000
232.69	7.143
233.07	100.000
233.44	-260.000
233.81	-110.000
234.19	11.111
234.56	-94.118
234.93	450.000
235.31	-125.000
235.68	-380.000
236.05	-146.154
236.43	-45.000
236.80	-5.882
237.17	21.875
237.55	-35.000
237.92	-25.926
238.29	-22.222
238.67	-30.000
239.04	0.000
239.41	-14.634
239.79	-40.000
240.16	4.878
240.53	-21.053
240.91	-8.696
241.28	-7.937
241.65	-3.571
242.02	1.370
242.40	-8.333
242.77	-10.169
243.14	-24.242
243.51	-5.000
243.89	9.195
244.26	-10.345
244.63	-9.524
245.00	2.062
245.38	-13.402
245.75	-5.618
246.12	-4.310
246.49	1.653
246.87	4.808
247.24	-6.723
247.61	-3.509
247.98	-8.130
248.36	0.000
248.73	-3.289
249.10	-9.740
249.47	0.633
249.84	-4.575
250.22	-0.588
250.59	-3.922
250.96	4.695
251.33	-4.070
251.70	1.765
252.08	-2.538
252.45	-1.485
252.82	-5.025
253.19	0.461
253.56	-2.804
253.94	-0.901
254.31	2.609
254.68	-0.439
255.05	-1.969
255.42	2.620
255.79	1.544
256.16	3.502
256.54	1.119
256.91	-4.563
257.28	4.461
257.65	-2.996
258.02	-5.674
258.39	0.000
258.76	0.000
259.14	1.329
259.51	3.236
259.88	-1.718
260.25	1.307
260.62	2.778
260.99	-3.051
261.36	-0.685
261.73	-1.266
262.10	0.608
262.47	-0.920
262.85	-0.313
263.22	-0.308
263.59	-2.804
263.96	1.242
264.33	-0.303
264.70	-0.893
265.07	2.381
265.44	0.283
265.81	0.847
266.18	-0.820
266.55	1.542
266.92	0.777
267.29	-0.522
267.66	0.767
268.03	-1.309
268.40	0.522
268.77	3.476
269.14	1.199
269.51	0.000
269.88	0.748
270.25	-1.786
270.62	-0.488
270.99	-2.813
271.36	-0.978
271.73	1.643
272.10	0.973
272.47	2.364
272.84	0.743
273.21	1.856
273.58	1.205
273.95	0.686
274.32	-3.233
274.69	-0.452
275.06	1.339
275.43	-1.814
275.80	2.428
276.17	-1.839
276.54	-0.214
276.91	0.658
277.28	-1.747
277.65	-0.207
278.02	2.128
278.39	-2.626
278.76	-1.048
279.13	-2.490
279.50	1.471
279.87	3.240
280.23	-1.290
280.60	1.949
280.97	0.404
281.34	-2.308
281.71	0.000
282.08	-1.636
282.45	0.391
282.82	1.158
283.19	-1.354
283.56	0.578
283.92	-0.949
284.29	0.962
284.66	0.775
285.03	1.572
285.40	-0.378
285.77	-0.176
286.14	-0.181
286.51	2.399
286.87	-1.828
287.24	-0.368
287.61	-1.940
287.98	1.754
288.35	0.520
288.72	1.576
289.08	-0.694
289.45	-0.176
289.82	2.098
290.19	0.000
290.56	-1.029
290.93	-0.673
291.29	-1.695
291.66	1.575
292.03	-0.319
292.40	1.129
292.77	0.159
293.13	-2.110
293.50	-1.669
293.87	0.611
294.24	-1.236
294.60	0.745
294.97	0.298
295.34	0.767
295.71	0.149
296.08	-1.196
296.44	-0.996
296.81	-0.417
297.18	0.290
297.55	1.897
297.91	0.822
298.28	1.451
298.65	0.814
299.02	0.809
299.38	-2.326
299.75	-0.690
300.12	0.654
300.48	-0.264
300.85	-0.127
301.22	-0.130
301.59	-0.789
301.95	1.646
302.32	0.778
302.69	-0.124
303.05	-0.371
303.42	-0.249
303.79	0.467
304.15	0.119
304.52	-0.238
304.89	-0.234
305.25	0.000
305.62	0.350
305.99	-1.520
306.35	0.462
306.72	-0.675
307.09	1.140
307.45	0.574
307.82	-0.694
308.19	-0.348
308.55	0.763
308.92	0.871
309.29	-1.117
309.65	-0.108
310.02	1.100
310.38	0.439
310.75	-0.328
311.12	-1.076
311.48	1.060
311.85	0.942
312.22	0.422
312.58	0.637
312.95	-0.854
313.31	-0.518
313.68	-0.838
314.05	0.408
314.41	1.237
314.78	-0.722
315.14	0.514
315.51	0.725
315.87	0.102
316.24	2.224
316.61	0.787
316.97	0.694
317.34	0.488
317.70	0.287
318.07	0.192
318.43	0.490
318.80	0.189
319.16	-0.098
319.53	2.089
319.89	0.197
320.26	0.709
320.62	0.502
320.99	0.626
321.35	0.617
321.72	0.831
322.08	-0.504
322.45	0.711
322.81	0.491
323.18	0.491
323.54	-0.097
323.91	0.876
324.27	0.684
324.64	0.655
325.00	1.369
325.37	1.010
325.73	0.725
326.10	0.636
326.46	1.614
326.83	0.437
327.19	0.785
327.56	1.129
327.92	1.144
328.29	-0.536
328.65	1.038
329.01	1.195
329.38	0.369
329.74	-0.378
330.11	1.483
330.47	0.000
330.84	-0.769
331.20	1.806
331.56	0.278
331.93	0.822
332.29	1.558
332.66	1.538
333.02	0.186
333.38	0.183
333.75	0.916
334.11	0.895
334.48	1.723
334.84	1.740
335.20	1.555
335.57	0.000
335.93	1.265
336.29	0.737
336.66	0.182
337.02	-0.743
337.38	0.370
337.75	1.455
338.11	1.803
338.47	1.916
338.84	1.294
339.20	1.097
339.56	1.284
339.93	2.149
340.29	1.651
340.65	2.061
341.02	1.950
341.38	1.681
341.74	0.353
342.11	1.560
342.47	0.801
342.83	1.644
343.20	1.742
343.56	2.348
343.92	0.620
344.28	1.793
344.65	1.382
345.01	1.124
345.37	1.177
345.73	1.925
346.10	1.639
346.46	2.187
346.82	0.982
347.19	0.499
347.55	1.420
347.91	2.427
348.27	1.132
348.63	2.726
349.00	1.559
349.36	0.914
349.72	1.824
350.08	1.803
350.45	2.314
350.81	0.831
351.17	1.710
351.53	1.306
351.89	1.404
352.26	1.360
352.62	1.613
352.98	1.767
353.34	1.852
353.70	2.346
354.07	1.613
354.43	1.601
354.79	1.156
355.15	2.619
355.51	1.899
355.87	2.265
356.24	0.653
356.60	1.617
356.96	1.349
357.32	1.757
357.68	1.251
358.04	1.535
358.40	1.045
358.77	1.914
359.13	1.281
359.49	1.233
359.85	1.560
360.21	0.638
360.57	1.913
360.93	1.513
361.29	-0.076
361.66	1.881
362.02	1.818
362.38	2.209
362.74	1.893
363.10	1.956
363.46	1.557
363.82	2.104
364.18	1.993
364.54	1.471
364.90	1.434
365.26	1.164
365.62	1.898
365.98	1.906
366.35	2.403
366.71	1.256
367.07	1.524
367.43	1.510
367.79	1.413
368.15	1.866
368.51	1.020
368.87	0.359
369.23	1.516
369.59	1.312
369.95	1.320
370.31	1.156
370.67	0.970
371.03	1.046
371.39	0.365
371.75	1.172
372.11	1.569
372.47	1.331
372.83	0.781
373.19	1.427
373.55	1.227
373.91	2.088
374.27	1.772
374.63	1.795
374.99	1.064
375.35	1.462
375.71	1.888
376.07	1.124
376.42	1.088
376.78	1.678
377.14	1.219
377.50	1.262
377.86	1.473
378.22	1.149
378.58	0.897
378.94	1.512
379.30	2.183
379.66	1.818
380.02	0.797
380.38	0.852
380.74	1.137
381.09	2.147
381.45	1.346
381.81	1.172
382.17	1.142
382.53	0.999
382.89	0.314
383.25	1.618
383.61	1.524
383.97	0.571
384.32	1.751
384.68	1.115
385.04	0.858
385.40	1.182
385.76	2.013
386.12	1.682
386.48	1.341
386.83	0.761
387.19	1.893
387.55	1.380
387.91	0.917
388.27	1.282
388.62	1.196
388.98	1.780
389.34	1.437
389.70	1.616
390.06	0.944
390.42	1.295
390.77	1.112
391.13	0.883
391.49	0.647
391.85	0.390
392.20	1.004
392.56	0.826
392.92	1.820
393.28	1.769
393.64	1.021
393.99	1.630
394.35	0.696
394.71	1.533
395.07	1.760
395.42	1.336
395.78	1.303
396.14	0.694
396.50	1.585
396.85	0.966
397.21	1.692
397.57	1.317
397.92	1.618
398.28	1.322
398.64	1.084
399.00	1.637
399.35	1.298
399.71	1.608
400.07	1.088
400.42	1.224
400.78	1.164
401.14	0.907
401.49	1.013
401.85	1.158
402.21	1.807
402.57	1.375
402.92	0.565
403.28	1.253
403.63	1.576
403.99	1.084
404.35	1.562
404.70	1.012
405.06	1.293
405.42	1.305
405.77	0.988
406.13	0.524
406.49	1.480
406.84	1.039
407.20	1.505
407.55	0.386
407.91	1.337
408.27	1.020
408.62	1.662
408.98	1.602
409.34	2.169
409.69	1.357
410.05	1.108
410.40	1.111
410.76	1.146
411.11	1.312
411.47	1.578
411.83	0.439
412.18	1.287
412.54	0.936
412.89	1.047
413.25	1.625
413.60	1.429
413.96	0.613
414.31	2.012
414.67	0.641
415.03	0.999
415.38	1.110
415.74	1.433
416.09	1.568
416.45	2.431
416.80	1.058
417.16	1.381
417.51	1.865
417.87	1.173
418.22	1.425
418.58	1.070
418.93	2.320
419.29	0.384
419.64	1.296
420.00	2.204
420.35	1.373
420.71	1.640
421.06	0.921
421.42	1.743
421.77	1.040
422.12	1.646
422.48	1.191
422.83	1.624
423.19	1.862
423.54	0.705
423.90	1.472
424.25	1.033
424.61	1.469
424.96	1.568
425.31	1.906
425.67	1.232
426.02	2.061
426.38	1.190
426.73	1.816
427.09	1.962
427.44	2.000
427.79	2.121
428.15	2.184
428.50	1.151
428.85	1.720
429.21	2.037
429.56	1.779
429.92	2.363
430.27	1.905
430.62	0.627
430.98	1.274
431.33	2.471
431.68	0.942
432.04	1.174
432.39	1.711
432.74	1.383
433.10	2.644
433.45	1.434
433.80	1.045
434.16	1.219
434.51	1.667
434.86	1.568
435.22	1.402
435.57	1.185
435.92	1.317
436.28	1.789
436.63	1.825
436.98	1.680
437.34	1.270
437.69	1.371
438.04	1.709
438.39	0.794
438.75	1.154
439.10	1.415
439.45	2.252
439.81	0.856
440.16	1.841
440.51	2.687
440.86	2.236
441.22	1.527
441.57	1.711
441.92	2.151
442.27	1.829
442.63	2.034
442.98	1.666
443.33	1.836
443.68	1.804
444.03	2.633
444.39	1.968
444.74	2.285
445.09	2.060
445.44	1.709
445.79	1.805
446.15	1.377
446.50	1.276
446.85	1.063
447.20	1.773
447.55	2.567
447.91	1.974
448.26	2.106
448.61	1.900
448.96	1.951
449.31	1.272
449.66	1.684
450.02	1.312
450.37	1.363
450.72	1.890
451.07	1.772
451.42	2.310
451.77	1.929
452.12	1.435
452.47	1.932
452.83	1.826
453.18	2.404
453.53	1.960
453.88	2.064
454.23	2.397
454.58	1.511
454.93	2.384
455.28	0.825
455.63	2.108
455.98	2.044
456.34	1.788
456.69	2.732
457.04	2.331
457.39	1.640
457.74	2.177
458.09	1.236
458.44	1.872
458.79	1.176
459.14	2.460
459.49	3.224
459.84	1.636
460.19	2.063
460.54	2.445
460.89	2.386
461.24	2.298
461.59	2.019
461.94	2.642
462.29	2.352
462.64	2.193
462.99	2.234
463.34	1.113
463.69	1.995
464.04	2.724
464.39	1.577
464.74	1.840
465.09	2.994
465.44	1.327
465.79	2.211
466.14	2.395
466.49	1.610
466.84	2.736
467.19	2.566
467.54	1.788
467.89	2.274
468.24	2.251
468.59	2.794
468.94	1.651
469.29	2.557
469.64	2.256
469.99	2.663
470.34	1.570
470.68	3.207
471.03	2.902
471.38	2.140
471.73	2.101
472.08	2.307
472.43	2.013
472.78	1.714
473.13	2.585
473.48	1.889
473.83	2.055
474.17	3.109
474.52	2.425
474.87	2.242
475.22	1.891
475.57	2.428
475.92	3.072
476.27	3.085
476.61	2.720
476.96	2.064
477.31	2.434
477.66	2.697
478.01	1.684
478.36	2.560
478.70	2.664
479.05	3.297
479.40	2.809
479.75	2.294
480.10	2.714
480.45	2.450
480.79	2.669
481.14	2.869
481.49	2.069
481.84	2.027
482.19	2.198
482.53	2.590
482.88	2.673
483.23	2.351
483.58	2.830
483.92	2.227
484.27	2.233
484.62	2.600
484.97	2.612
485.31	2.818
485.66	2.418
486.01	2.593
486.36	2.637
486.70	2.703
487.05	2.703
487.40	2.585
487.75	2.535
488.09	2.441
488.44	2.751
488.79	2.465
489.13	2.965
489.48	2.266
489.83	2.556
490.17	2.202
490.52	2.217
490.87	3.332
491.22	2.053
491.56	2.514
491.91	2.342
492.26	2.431
492.60	2.975
492.95	3.246
493.30	2.785
493.64	2.210
493.99	2.899
494.34	2.136
494.68	2.857
495.03	1.946
495.37	2.453
495.72	3.332
496.07	2.244
496.41	2.500
496.76	2.718
497.11	2.422
497.45	2.625
497.80	3.179
498.14	2.732
498.49	2.133
498.84	2.445
499.18	2.460
499.53	2.480
499.87	2.189
500.22	2.324
500.56	2.572
500.91	1.958
501.26	2.076
501.60	2.164
501.95	2.280
502.29	3.051
502.64	3.185
502.98	2.269
503.33	2.065
503.67	3.181
504.02	2.493
504.36	3.068
504.71	2.323
505.06	3.120
505.40	2.843
505.75	2.062
506.09	2.585
506.44	3.337
506.78	2.704
507.13	3.051
507.47	2.298
507.82	1.603
508.16	2.324
508.51	2.781
508.85	2.512
509.19	2.342
509.54	2.681
509.88	2.805
510.23	2.205
510.57	2.405
510.92	2.878
511.26	2.510
511.61	2.035
511.95	2.849
512.30	3.437
512.64	3.617
512.98	2.358
513.33	3.022
513.67	2.388
514.02	3.318
514.36	3.200
514.70	4.021
515.05	2.820
515.39	2.952
515.74	2.934
516.08	2.570
516.42	2.945
516.77	2.809
517.11	2.967
517.46	3.351
517.80	3.635
518.14	2.205
518.49	3.486
518.83	2.126
519.17	2.911
519.52	2.605
519.86	2.521
520.20	3.098
520.55	2.314
520.89	3.199
521.23	2.090
521.58	2.839
521.92	3.397
522.26	2.928
522.61	3.377
522.95	2.715
523.29	2.986
523.64	3.177
523.98	3.305
524.32	2.191
524.66	3.969
525.01	3.506
525.35	3.305
525.69	2.290
526.04	2.646
526.38	3.956
526.72	2.158
527.06	3.243
527.41	3.562
527.75	2.480
528.09	3.189
528.43	3.579
528.78	2.376
529.12	2.903
529.46	2.274
529.80	3.293
530.15	3.366
530.49	2.828
530.83	2.736
531.17	2.821
531.51	3.146
531.86	3.195
532.20	2.366
532.54	3.336
532.88	3.285
533.22	2.621
533.57	2.425
533.91	2.023
534.25	3.581
534.59	2.822
534.93	2.832
535.27	2.538
535.62	2.592
535.96	3.588
536.30	3.892
536.64	2.963
536.98	2.787
537.32	3.272
537.66	3.787
538.01	3.497
538.35	3.814
538.69	2.929
539.03	2.187
539.37	2.759
539.71	3.545
540.05	3.530
540.39	3.393
540.73	3.138
541.07	3.246
541.42	4.234
541.76	4.061
542.10	2.891
542.44	3.197
542.78	2.753
543.12	3.022
543.46	3.408
543.80	3.400
544.14	2.737
544.48	3.131
544.82	3.964
545.16	3.279
545.50	4.272
545.84	4.533
546.18	3.972
546.52	3.172
546.86	2.876
547.20	3.147
547.54	3.110
547.88	3.329
548.22	2.827
548.56	3.364
548.90	3.706
549.24	2.961
549.58	4.020
549.92	2.645
550.26	3.004
550.60	2.454
550.94	3.958
551.28	2.782
551.62	3.692
551.96	3.910
552.30	3.363
552.64	2.609
552.98	3.165
553.32	3.566
553.66	2.975
554.00	2.190
554.34	3.176
554.68	2.802
555.02	3.423
555.36	3.141
555.69	2.564
556.03	2.284
556.37	3.060
556.71	2.888
557.05	2.834
557.39	2.900
557.73	3.448
558.07	3.997
558.41	2.986
558.75	2.728
559.08	3.310
559.42	1.984
559.76	2.722
560.10	2.599
560.44	3.053
560.78	3.846
561.12	3.244
561.45	2.881
561.79	2.941
562.13	3.833
562.47	2.518
562.81	3.170
563.15	4.231
563.48	2.334
563.82	2.059
564.16	2.855
564.50	2.500
564.84	3.213
565.17	3.488
565.51	3.005
565.85	2.881
566.19	2.984
566.52	3.284
566.86	3.920
567.20	3.300
567.54	1.946
567.88	3.105
568.21	3.224
568.55	2.826
568.89	3.388
569.23	2.889
569.56	2.539
569.90	3.735
570.24	3.349
570.57	3.345
570.91	3.381
571.25	2.598
571.59	2.959
571.92	3.081
572.26	2.748
572.60	3.256
572.93	3.326
573.27	2.790
573.61	2.834
573.95	3.386
574.28	3.072
574.62	2.721
574.96	3.141
575.29	3.205
575.63	3.006
575.97	3.117
576.30	2.699
576.64	3.073
576.98	3.320
577.31	3.318
577.65	3.165
577.98	3.043
578.32	2.899
578.66	2.794
578.99	3.065
579.33	2.898
579.67	3.154
580.00	3.114
580.34	3.060
580.67	2.868
581.01	2.786
581.35	2.950
581.68	2.932
582.02	2.881
582.35	2.934
582.69	3.136
583.02	3.034
583.36	2.981
583.70	3.115
584.03	3.142
584.37	3.219
584.70	2.967
585.04	3.057
585.37	3.120
585.71	2.789
586.04	3.101
586.38	2.854
586.72	2.841
587.05	3.322
587.39	3.271
587.72	3.417
588.06	2.740
588.39	3.332
588.73	3.144
589.06	3.686
589.40	3.146
589.73	3.286
590.07	3.021
590.40	3.289
590.73	3.213
591.07	2.545
591.40	2.983
591.74	2.715
592.07	3.340
592.41	3.224
592.74	2.350
593.08	2.934
593.41	3.130
593.75	3.075
594.08	2.918
594.41	3.166
594.75	2.519
595.08	3.330
595.42	2.797
595.75	2.854
596.09	2.932
596.42	2.976
596.75	2.309
597.09	2.916
597.42	3.433
597.75	2.932
598.09	3.169
598.42	2.572
598.76	2.960
599.09	3.005
599.42	2.690
599.76	3.047
600.09	3.243
600.42	3.374
600.76	2.860
601.09	2.786
601.42	2.311
601.76	2.660
602.09	2.847
602.42	2.906
602.76	2.801
603.09	2.699
603.42	3.386
603.76	2.339
604.09	2.430
604.42	2.961
604.76	3.560
605.09	2.925
605.42	3.025
605.75	2.758
606.09	2.505
606.42	3.378
606.75	3.203
607.09	3.033
607.42	2.348
607.75	2.220
608.08	2.830
608.42	3.518
608.75	2.892
609.08	3.039
609.41	3.503
609.75	3.377
610.08	2.846
610.41	2.899
610.74	2.730
611.07	2.739
611.41	2.854
611.74	3.412
612.07	2.248
612.40	2.790
612.73	2.486
613.07	2.362
613.40	3.118
613.73	2.182
614.06	2.894
614.39	2.538
614.72	2.297
615.06	2.849
615.39	2.838
615.72	2.045
616.05	3.017
616.38	2.564
616.71	2.997
617.05	1.544
617.38	2.766
617.71	2.579
618.04	2.159
618.37	3.657
618.70	2.178
619.03	3.333
619.36	2.243
619.69	2.578
620.03	3.725
620.36	2.790
620.69	2.926
621.02	2.752
621.35	3.817
621.68	2.381
622.01	2.833
622.34	3.352
622.67	2.681
623.00	2.910
623.33	3.735
623.66	2.169
623.99	3.253
624.32	4.106
624.65	2.180
624.99	2.558
625.32	1.820
625.65	3.535
625.98	2.659
626.31	2.161
626.64	3.206
626.97	2.967
627.30	2.802
627.63	3.380
627.96	1.887
628.29	2.405
628.62	2.753
628.95	3.106
629.28	3.226
629.61	1.496
629.94	2.933
630.26	2.372
630.59	3.434
630.92	2.462
631.25	2.974
631.58	1.872
631.91	0.877
632.24	0.459
632.57	2.500
632.90	0.712
633.23	3.529
633.56	0.756
633.89	2.836
634.22	3.086
634.55	1.652
634.88	2.299
635.20	1.667
635.53	1.200
635.86	1.951
636.19	2.070
636.52	2.296
636.85	1.985
637.18	1.132
637.51	2.138
637.83	2.497
638.16	3.820
638.49	0.272
638.82	3.947
639.15	2.578
639.48	2.476
639.81	2.650
640.13	1.443
640.46	2.187
640.79	1.178
641.12	1.920
641.45	1.051
641.77	1.778
642.10	2.844
642.43	1.608
642.76	1.980
643.09	2.585
643.41	1.942
643.74	1.647
644.07	0.985
644.40	3.378
644.73	3.327
645.05	3.020
645.38	0.353
645.71	0.887
646.04	1.975
646.36	2.128
646.69	4.317
647.02	2.647
647.35	2.799
647.67	4.022
648.00	2.799
648.33	3.413
648.66	0.678
648.98	0.503
649.31	0.000
649.64	2.041
649.96	0.648
650.29	2.385
650.62	3.248
650.94	2.037
651.27	-0.745
651.60	1.081
651.92	3.147
652.25	-0.355
652.58	2.667
652.90	2.744
653.23	1.849
653.56	1.523
653.88	2.405
654.21	-0.525
654.54	1.528
654.86	2.377
655.19	1.023
655.52	2.632
655.84	2.510
656.17	2.674
656.49	3.419
656.82	3.816
657.15	2.948
657.47	2.180
657.80	1.559
658.13	1.648
658.45	2.248
658.78	2.438
659.10	2.497
659.43	2.676
659.75	2.417
660.08	2.690
660.41	2.860
660.73	2.348
661.06	1.906
661.38	1.174
661.71	2.053
662.03	5.794
662.36	2.198
662.68	0.221
663.01	2.183
663.33	-0.464
663.66	-0.233
663.98	-0.465
664.31	5.117
664.63	0.922
664.96	-1.739
665.28	-1.104
665.61	2.814
665.93	2.174
666.26	2.820
666.58	0.447
666.91	0.000
667.23	3.302
667.56	2.607
667.88	0.959
668.21	2.625
668.53	2.600
668.86	0.000
669.18	-0.472
669.50	0.000
669.83	1.163
670.15	1.166
670.48	-1.435
670.80	2.074
671.13	1.566
671.45	-1.142
671.77	2.575
672.10	0.000
672.42	1.873
672.75	1.954
673.07	4.293
673.39	3.486
673.72	1.381
674.04	-0.417
674.37	2.754
674.69	1.499
675.01	3.333
675.34	1.577
675.66	1.157
675.98	3.769
676.31	0.917
676.63	-1.425
676.95	2.045
677.28	4.706
677.60	4.096
677.92	0.917
678.25	3.501
678.57	-0.866
678.89	2.101
679.22	2.685
679.54	1.004
679.86	2.187
680.18	2.136
680.51	1.515
680.83	1.392
681.15	3.400
681.48	5.328
681.80	1.860
682.12	1.815
682.44	1.255
682.77	2.649
683.09	2.288
683.41	0.455
683.73	2.304
684.06	2.212
684.38	2.796
684.70	2.614
685.02	0.622
685.34	0.198
685.67	2.627
685.99	3.436
686.31	0.708
686.63	2.597
686.96	-0.380
687.28	0.000
687.60	2.091
687.92	1.818
688.24	0.605
688.56	2.402
688.89	1.562
689.21	4.667
689.53	0.464
689.85	-0.233
690.17	1.339
690.49	2.128
690.82	0.971
691.14	-0.238
691.46	1.869
691.78	2.928
692.10	2.581
692.42	1.948
692.74	1.709
693.06	0.000
693.39	-0.905
693.71	0.905
694.03	1.617
694.35	1.869
694.67	0.758
694.99	-0.783
695.31	2.350
695.63	1.500
695.95	2.273
696.27	-0.259
696.59	3.056
696.91	0.000
697.23	-1.542
697.56	0.495
697.88	7.742
698.20	0.911
698.52	1.176
698.84	-1.435
699.16	1.000
699.48	4.762
699.80	3.226
700.12	0.000
700.44	1.961
700.76	0.000
701.08	-2.727
701.40	3.916
701.72	4.938
702.04	1.320
702.36	-1.003
702.68	-0.601
703.00	-1.212
703.32	0.293
703.64	0.282
703.96	1.449
704.28	1.840
704.60	0.952
704.91	1.893
705.23	-1.661
705.55	3.534
705.87	1.444
706.19	-0.370
706.51	-2.405
706.83	5.145
707.15	-4.050
707.47	3.641
707.79	3.385
708.11	4.500
708.43	4.250
708.74	1.809
709.06	1.972
709.38	-0.612
709.70	2.367
710.02	1.592
710.34	4.644
710.66	-0.962
710.98	0.993
711.29	1.639
711.61	-1.356
711.93	0.326
712.25	0.344
712.57	-1.832
712.89	-0.373
713.20	3.114
713.52	0.697
713.84	1.365
714.16	2.405
714.48	2.903
714.80	1.923
715.11	2.128
715.43	-1.254
715.75	-1.333
716.07	-1.329
716.39	-0.336
716.70	-0.369
717.02	0.000
717.34	4.049
717.66	0.885
717.97	-5.217
718.29	-0.837
718.61	-1.969
718.93	-0.775
719.24	1.141
719.56	1.205
719.88	2.749
720.20	4.167
720.51	-1.916
720.83	2.317
721.15	1.681
721.46	-2.419
721.78	-3.557
722.10	2.974
722.42	-3.734
722.73	1.633
723.05	2.449
723.37	8.898
723.68	0.901
724.00	-3.419
724.32	-2.667
724.63	-4.545
724.95	2.183
725.27	-1.382
725.58	0.847
725.90	-3.571
726.22	1.158
726.53	3.390
726.85	1.498
727.16	7.547
727.48	-5.263
727.80	2.024
728.11	0.424
728.43	5.098
728.74	-5.645
729.06	-1.200
729.38	3.759
729.69	-1.594
730.01	-2.308
730.32	3.731
730.64	4.594
730.96	1.887
731.27	0.667
731.59	-0.678
731.90	1.274
732.22	4.416
732.53	1.661
732.85	3.191
733.16	4.714
733.48	1.439
733.80	-2.174
734.11	2.712
734.43	-0.687
734.74	2.121
735.06	-1.954
735.37	0.906
735.69	2.357
736.00	-3.484
736.32	1.678
736.63	0.704
736.95	2.389
737.26	-0.712
737.58	4.362
737.89	0.000
738.21	-1.504
738.52	-2.058
738.83	-0.873
739.15	-3.930
739.46	2.362
739.78	0.000
740.09	3.268
740.41	0.725
740.72	-5.118
741.04	2.024
741.35	1.702
741.66	4.265
741.98	-2.551
742.29	4.950
742.61	2.094
742.92	-4.265
743.23	-9.259
743.55	0.452
743.86	1.435
744.18	4.785
744.49	1.596
744.80	1.087
745.12	-3.209
745.43	-2.927
745.74	1.042
746.06	2.927
746.37	0.000
746.68	4.739
747.00	-2.660
747.31	0.995
747.62	-8.738
747.94	-1.435
748.25	-0.495
748.56	4.918
748.88	-1.571
749.19	0.532
749.50	0.493
749.82	-7.547
750.13	-3.211
750.44	2.256
750.75	3.731
751.07	4.015
751.38	4.981
751.69	-1.569
752.01	4.651
752.32	2.390
752.63	-3.557
752.94	-5.172
753.26	7.113
753.57	-6.335
753.88	-0.442
754.19	-2.917
754.51	0.000
754.82	0.405
755.13	4.583
755.44	0.806
755.75	8.594
756.07	-0.778
756.38	-1.132
756.69	-1.916
757.00	1.667
757.31	2.614
757.63	2.439
757.94	2.222
758.25	3.562
758.56	1.330
758.87	-0.850
759.18	1.869
759.50	-3.636
759.81	3.679
760.12	1.613
760.43	2.424
760.74	-1.543
761.05	-0.308
761.36	0.284
761.67	4.545
761.99	3.741
762.30	0.000
762.61	4.348
762.92	1.810
763.23	1.802
763.54	-4.206
763.85	1.271
764.16	-0.415
764.47	0.000
764.78	2.564
765.10	3.704
765.41	2.839
765.72	0.000
766.03	-3.008
766.34	1.095
766.65	5.578
766.96	-0.505
767.27	1.064
767.58	-2.299
767.89	-2.128
768.20	2.273
768.51	-3.297
768.82	0.985
769.13	-3.226
769.44	1.717
769.75	-2.740
770.06	-0.431
770.37	2.885
770.68	-1.523
770.99	0.452
771.30	4.412
771.61	2.715
771.92	3.017
772.23	5.911
772.54	2.688
772.85	0.617
773.16	5.618
773.47	1.307
773.78	1.307
774.09	1.796
774.39	1.333
774.70	3.822
775.01	6.897
775.32	-3.571
775.63	-9.917
775.94	-4.580
776.25	8.661
776.56	-1.667
776.87	0.000
777.18	-2.564
777.48	9.483
777.79	-1.739
778.10	-9.524
778.41	3.604
778.72	3.968
779.03	3.759
779.34	-2.128
779.65	11.644
779.95	-4.795
780.26	2.759
780.57	-2.439
780.88	-2.362
781.19	-10.345
781.50	-1.550
781.80	-1.775
782.11	-5.031
782.42	-0.769
782.73	-4.317
783.04	5.926
783.34	-2.083
783.65	-11.111
783.96	-6.557
784.27	4.138
784.57	-6.504
784.88	4.687
785.19	1.000
785.50	-2.000
785.81	4.310
786.11	-1.724
786.42	0.971
786.73	1.818
787.04	-13.265
787.34	-1.786
787.65	2.857
787.96	-8.850
788.26	-7.273
788.57	-1.709
788.88	2.344
789.19	-6.349
789.49	-6.957
789.80	-14.286
790.11	0.000
790.41	-7.273
790.72	6.522
791.03	-5.682
791.33	-5.000
791.64	-13.750
791.95	-6.977
792.25	8.511
792.56	1.124
792.87	-9.589
793.17	-7.246
793.48	-21.333
793.79	-1.250
794.09	10.000
794.40	-4.717
794.70	-5.825
795.01	-8.943
795.32	3.419
795.62	-10.476
795.93	-0.980
796.23	-6.604
796.54	5.208
796.85	2.941
797.15	5.634
797.46	1.389
797.76	16.667
798.07	-8.140
798.37	0.000
798.68	-12.121
798.99	-1.235
799.29	2.857
799.60	-8.696
799.90	13.333
800.21	1.639
800.51	-12.308
800.82	-6.780
801.12	-1.449
801.43	-4.918
801.73	11.111
802.04	-6.000
802.34	11.940
802.65	-13.462
802.95	-14.286
803.26	5.769
803.56	-15.686
803.87	-41.304
804.17	-6.667
804.48	9.524
804.78	1.852
805.09	-19.565
805.39	-4.444
805.70	0.000
806.00	-21.053
806.30	8.451
806.61	-1.429
806.91	-16.667
807.22	9.211
807.52	8.000
807.83	-20.000
808.13	-12.500
808.43	-2.941
808.74	-4.478
809.04	-11.864
809.35	-19.231
809.65	9.375
809.95	-40.541
810.26	-9.091
810.56	-1.370
810.86	11.905
811.17	-12.000
811.47	0.000
811.77	-34.211
812.08	-34.091
812.38	-3.774
812.69	-17.500
812.99	-3.030
813.29	0.000
813.59	-40.000
813.90	-15.909
814.20	-38.462
814.50	-15.385
814.81	3.774
815.11	-31.915
815.41	1.695
815.72	21.429
816.02	-1.961
816.32	-12.500
816.62	-17.073
816.93	-27.027
817.23	-14.286
817.53	4.167
817.84	-21.739
818.14	1.923
818.44	-15.789
818.74	26.087
819.04	-45.000
819.35	-13.514
819.65	-2.941
819.95	0.000
820.25	-11.905
820.56	17.500
820.86	-58.621
821.16	0.000
821.46	-2.128
821.76	12.500
822.07	-6.977
822.37	-21.622
822.67	-59.375
822.97	23.810
823.27	-35.714
823.57	-32.000
823.88	-55.556
824.18	17.857
824.48	11.765
824.78	-9.677
825.08	-43.478
825.38	-30.303
825.69	-29.167
825.99	-10.526
826.29	-19.444
826.59	-53.333
826.89	-71.429
827.19	-4.348
827.49	-12.500
827.79	28.571
828.09	0.000
828.39	-6.061
828.70	27.027
829.00	-32.143
829.30	-66.667
829.60	-3.333
829.90	3.125
830.20	-15.789
830.50	-33.333
830.80	-17.391
831.10	4.545
831.40	-3.030
831.70	3.226
832.00	4.762
832.30	-66.667
832.60	-75.000
832.90	10.345
833.20	-60.000
833.50	-15.152
833.80	7.407
834.10	-19.231
834.40	15.625
834.70	-111.111
835.00	-36.842
835.30	23.077
835.60	13.333
835.90	29.032
836.20	0.000
836.50	-7.143
836.80	-50.000
837.10	17.857
837.40	-266.667
837.70	-9.091
838.00	-172.727
838.30	0.000
838.60	-53.846
838.90	22.727
839.19	3.571
839.49	23.333
839.79	-69.231
840.09	-33.333
840.39	21.429
840.69	-39.286
840.99	-38.462
841.29	-78.947
841.59	-210.000
841.88	27.273
842.18	-120.000
842.48	-31.250
842.78	-26.667
843.08	7.407
843.38	-100.000
843.68	0.000
843.97	26.667
844.27	-86.667
844.57	-30.000
844.87	-50.000
845.17	-9.524
845.47	-53.333
845.76	-14.286
846.06	35.294
846.36	-30.000
846.66	-57.143
846.96	-33.333
847.25	-262.500
847.55	-28.571
847.85	-37.500
848.15	-63.636
848.44	-466.667
848.74	-40.000
849.04	0.000
849.34	-90.909
849.63	-150.000
849.93	-260.000
850.23	-83.333
850.53	-50.000
850.82	30.769
851.12	0.000
851.42	-20.000
851.71	-38.462
852.01	-85.714
852.31	-100.000
852.61	-118.182
852.90	-35.000
853.20	0.000
853.50	-83.333
853.79	-34.783
854.09	33.333
854.39	-10.526
854.68	-29.167
854.98	12.903
855.28	0.000
855.57	-10.000
855.87	-38.889
856.17	-11.111
856.46	-42.857
856.76	-46.667
857.05	-33.333
857.35	24.000
857.65	0.000
857.94	30.769
858.24	-13.793
858.53	5.556
858.83	44.444
859.13	4.545
859.42	-13.043
859.72	100.000
860.01	-466.667
860.31	-28.000
860.60	-28.571
860.90	-733.333
861.20	-73.333
861.49	-650.000
861.79	-26.667
862.08	5.000
862.38	46.667
862.67	-200.000
862.97	-83.333
863.26	-108.333
863.56	-11.111
863.85	-433.333
864.15	0.000
864.44	-80.000
864.74	7.143
865.03	325.000
865.33	-200.000
865.62	-50.000
865.92	-33.333
866.21	-16.667
866.51	-18.750
866.80	-118.182
867.10	-850.000
867.39	41.667
867.69	0.000
867.98	23.077
868.27	-100.000
868.57	60.000
868.86	-5.556
869.16	-61.538
869.45	46.667
869.75	-1500.000
870.04	0.000
870.33	-114.286
870.63	9.524
870.92	533.333
871.22	-280.000
871.51	-1200.000
871.80	44.444
872.10	633.333
>>>>>End Processed Spectral Data<<<<<
