SpectraSuite Data File
++++++++++++++++++++++++++++++++++++
Date: Fri May 15 20:00:01 PDT 2015
User: schluterlab
Dark Spectrum Present: Yes
Reference Spectrum Present: Yes
Number of Sampled Component Spectra: 1
Spectrometers: USB2E3373
Integration Time (usec): 3000 (USB2E3373)
Spectra Averaged: 3 (USB2E3373)
Boxcar Smoothing: 0 (USB2E3373)
Correct for Electrical Dark: No (USB2E3373)
Strobe/Lamp Enabled: No (USB2E3373)
Correct for Detector Non-linearity: No (USB2E3373)
Correct for Stray Light: No (USB2E3373)
Number of Pixels in Processed Spectrum: 2048
>>>>>Begin Processed Spectral Data<<<<<
178.53	0.000
178.91	0.000
179.29	125.000
179.67	-200.000
180.04	-28.571
180.42	-100.000
180.80	700.000
181.18	-166.667
181.56	350.000
181.94	0.000
182.31	600.000
182.69	-40.000
183.07	-200.000
183.45	160.000
183.83	150.000
184.20	109.091
184.58	44.444
184.96	-75.000
185.34	-0.000
185.72	100.000
186.09	-15.385
186.47	-300.000
186.85	-100.000
187.23	-0.000
187.61	-400.000
187.98	133.333
188.36	111.111
188.74	-33.333
189.12	94.118
189.49	111.111
189.87	0.000
190.25	28.571
190.63	100.000
191.00	100.000
191.38	42.105
191.76	550.000
192.14	-250.000
192.51	150.000
192.89	0.000
193.27	-85.714
193.65	-33.333
194.02	81.818
194.40	-20.000
194.78	-37.500
195.15	-16.667
195.53	62.500
195.91	100.000
196.29	-225.000
196.66	76.923
197.04	42.857
197.42	44.444
197.79	-400.000
198.17	-46.154
198.55	100.000
198.92	-266.667
199.30	100.000
199.68	-20.000
200.05	233.333
200.43	0.000
200.81	266.667
201.18	0.000
201.56	-600.000
201.94	-150.000
202.31	-433.333
202.69	-160.000
203.07	50.000
203.44	800.000
203.82	0.000
204.19	64.286
204.57	-33.333
204.95	112.500
205.32	-70.000
205.70	71.429
206.08	-75.000
206.45	88.889
206.83	100.000
207.20	42.857
207.58	600.000
207.96	-233.333
208.33	-160.000
208.71	-75.000
209.08	-83.333
209.46	-400.000
209.84	120.000
210.21	-700.000
210.59	14.286
210.96	66.667
211.34	0.000
211.71	106.667
212.09	-14.286
212.46	-1200.000
212.84	0.000
213.22	110.000
213.59	100.000
213.97	23.077
214.34	72.727
214.72	116.667
215.09	300.000
215.47	-15.385
215.84	-36.364
216.22	-33.333
216.59	-25.000
216.97	0.000
217.34	150.000
217.72	100.000
218.09	112.500
218.47	150.000
218.84	-700.000
219.22	-22.222
219.59	-120.000
219.97	100.000
220.34	325.000
220.72	0.000
221.09	200.000
221.47	50.000
221.84	-300.000
222.22	-550.000
222.59	81.818
222.97	33.333
223.34	66.667
223.72	57.143
224.09	28.571
224.46	39.286
224.84	66.667
225.21	50.000
225.59	53.333
225.96	-50.000
226.34	100.000
226.71	114.286
227.08	-100.000
227.46	162.500
227.83	-250.000
228.21	22.222
228.58	27.273
228.95	0.000
229.33	70.000
229.70	6.250
230.08	-25.000
230.45	14.286
230.82	228.571
231.20	40.000
231.57	128.571
231.95	171.429
232.32	-70.000
232.69	14.286
233.07	-366.667
233.44	-200.000
233.81	0.000
234.19	-133.333
234.56	17.647
234.93	150.000
235.31	75.000
235.68	-340.000
236.05	0.000
236.43	-80.000
236.80	17.647
237.17	0.000
237.55	-10.000
237.92	-14.815
238.29	16.667
238.67	33.333
239.04	52.941
239.41	-17.073
239.79	-23.333
240.16	24.390
240.53	-7.895
240.91	4.348
241.28	0.000
241.65	25.000
242.02	5.479
242.40	10.000
242.77	0.000
243.14	16.667
243.51	13.750
243.89	11.494
244.26	3.448
244.63	-3.571
245.00	16.495
245.38	19.588
245.75	-8.989
246.12	4.310
246.49	7.438
246.87	3.846
247.24	-5.042
247.61	-1.754
247.98	-4.065
248.36	3.750
248.73	6.579
249.10	4.545
249.47	7.595
249.84	-1.961
250.22	-5.294
250.59	4.575
250.96	6.103
251.33	-1.744
251.70	2.941
252.08	9.137
252.45	3.465
252.82	2.513
253.19	6.452
253.56	0.935
253.94	5.405
254.31	1.739
254.68	3.070
255.05	3.543
255.42	5.240
255.79	4.247
256.16	6.615
256.54	6.343
256.91	3.422
257.28	5.204
257.65	2.622
258.02	2.482
258.39	5.724
258.76	4.762
259.14	4.983
259.51	3.560
259.88	3.093
260.25	2.941
260.62	3.472
260.99	1.356
261.36	2.397
261.73	1.582
262.10	3.343
262.47	3.681
262.85	0.940
263.22	4.308
263.59	2.804
263.96	4.037
264.33	3.333
264.70	3.571
265.07	2.381
265.44	3.399
265.81	5.085
266.18	3.825
266.55	5.656
266.92	2.332
267.29	2.089
267.66	0.767
268.03	2.880
268.40	1.828
268.77	4.813
269.14	5.755
269.51	4.370
269.88	4.988
270.25	0.255
270.62	2.439
270.99	1.535
271.36	1.222
271.73	1.643
272.10	1.946
272.47	3.546
272.84	4.455
273.21	5.104
273.58	5.542
273.95	4.805
274.32	3.002
274.69	2.489
275.06	4.018
275.43	4.762
275.80	1.987
276.17	2.069
276.54	1.285
276.91	2.412
277.28	2.402
277.65	5.165
278.02	1.915
278.39	2.407
278.76	2.935
279.13	0.000
279.50	3.782
279.87	4.536
280.23	0.430
280.60	5.848
280.97	3.434
281.34	4.231
281.71	3.080
282.08	2.249
282.45	1.957
282.82	1.737
283.19	3.482
283.56	3.468
283.92	0.380
284.29	1.346
284.66	1.357
285.03	2.554
285.40	1.323
285.77	1.757
286.14	3.791
286.51	4.797
286.87	3.839
287.24	2.762
287.61	2.469
287.98	4.035
288.35	1.213
288.72	4.904
289.08	2.604
289.45	2.812
289.82	2.972
290.19	1.536
290.56	0.172
290.93	1.178
291.29	2.157
291.66	2.205
292.03	1.914
292.40	1.935
292.77	2.073
293.13	0.325
293.50	1.973
293.87	3.817
294.24	2.628
294.60	3.279
294.97	3.125
295.34	0.613
295.71	1.937
296.08	3.139
296.44	0.996
296.81	1.806
297.18	0.725
297.55	4.201
297.91	3.699
298.28	3.694
298.65	2.307
299.02	1.482
299.38	0.410
299.75	1.931
300.12	3.141
300.48	1.318
300.85	2.281
301.22	1.169
301.59	1.447
301.95	3.544
302.32	2.853
302.69	3.731
303.05	1.238
303.42	2.117
303.79	3.388
304.15	1.912
304.52	0.238
304.89	2.105
305.25	0.605
305.62	1.867
305.99	2.807
306.35	1.156
306.72	1.125
307.09	2.281
307.45	2.067
307.82	1.273
308.19	2.323
308.55	2.290
308.92	3.050
309.29	0.670
309.65	0.538
310.02	0.990
310.38	2.086
310.75	2.623
311.12	2.153
311.48	2.227
311.85	1.466
312.22	1.055
312.58	2.442
312.95	0.854
313.31	0.828
313.68	0.942
314.05	1.531
314.41	1.856
314.78	1.959
315.14	2.569
315.51	2.692
315.87	1.947
316.24	3.236
316.61	2.953
316.97	3.075
317.34	2.148
317.70	0.669
318.07	2.115
318.43	1.275
318.80	2.462
319.16	2.246
319.53	3.039
319.89	1.870
320.26	1.923
320.62	2.407
320.99	1.148
321.35	1.439
321.72	2.804
322.08	2.115
322.45	2.538
322.81	1.965
323.18	1.668
323.54	2.413
323.91	2.240
324.27	1.855
324.64	3.090
325.00	2.828
325.37	4.224
325.73	2.176
326.10	2.452
326.46	2.063
326.83	2.187
327.19	2.180
327.56	2.172
327.92	2.729
328.29	2.054
328.65	3.113
329.01	2.757
329.38	2.488
329.74	1.889
330.11	2.502
330.47	1.670
330.84	1.058
331.20	3.042
331.56	1.759
331.93	2.648
332.29	2.383
332.66	1.991
333.02	2.323
333.38	1.192
333.75	2.930
334.11	2.149
334.48	2.539
334.84	3.388
335.20	2.104
335.57	2.357
335.93	3.613
336.29	3.039
336.66	2.634
337.02	2.230
337.38	2.130
337.75	3.091
338.11	3.336
338.47	2.372
338.84	3.235
339.20	2.559
339.56	2.661
339.93	2.865
340.29	2.110
340.65	2.867
341.02	2.394
341.38	1.858
341.74	1.767
342.11	2.600
342.47	2.135
342.83	3.547
343.20	1.742
343.56	3.478
343.92	1.771
344.28	3.587
344.65	1.209
345.01	1.729
345.37	2.523
345.73	3.096
346.10	3.020
346.46	3.028
346.82	2.537
347.19	1.496
347.55	2.673
347.91	3.317
348.27	2.829
348.63	3.322
349.00	1.805
349.36	2.328
349.72	3.483
350.08	3.443
350.45	3.591
350.81	2.658
351.17	1.873
351.53	3.020
351.89	2.395
352.26	2.000
352.62	3.226
352.98	2.972
353.34	2.657
353.70	3.074
354.07	2.500
354.43	3.042
354.79	2.147
355.15	3.333
355.51	3.481
355.87	2.751
356.24	2.284
356.60	2.829
356.96	3.175
357.32	3.115
357.68	2.893
358.04	2.908
358.40	2.733
358.77	3.190
359.13	2.482
359.49	2.157
359.85	2.652
360.21	2.153
360.57	2.678
360.93	2.421
361.29	1.057
361.66	3.762
362.02	3.182
362.38	2.361
362.74	2.271
363.10	3.311
363.46	2.965
363.82	3.832
364.18	2.878
364.54	1.544
364.90	2.366
365.26	2.693
365.62	3.212
365.98	3.079
366.35	2.913
366.71	2.661
367.07	2.830
367.43	2.372
367.79	2.615
368.15	2.800
368.51	2.695
368.87	2.369
369.23	2.310
369.59	2.259
369.95	2.859
370.31	2.529
370.67	1.194
371.03	2.315
371.39	2.480
371.75	2.637
372.11	2.924
372.47	2.885
372.83	1.845
373.19	3.709
373.55	2.094
373.91	3.168
374.27	3.189
374.63	2.728
374.99	2.411
375.35	2.646
375.71	3.147
376.07	2.739
376.42	2.721
376.78	3.221
377.14	2.640
377.50	3.320
377.86	2.677
378.22	2.999
378.58	1.859
378.94	2.647
379.30	2.745
379.66	3.762
380.02	2.759
380.38	2.130
380.74	2.813
381.09	3.865
381.45	3.119
381.81	3.270
382.17	2.728
382.53	2.998
382.89	3.264
383.25	3.174
383.61	3.354
383.97	2.222
384.32	3.002
384.68	2.910
385.04	2.451
385.40	2.365
385.76	3.648
386.12	3.752
386.48	3.576
386.83	3.488
387.19	3.175
387.55	3.137
387.91	2.873
388.27	2.625
388.62	3.461
388.98	3.315
389.34	3.560
389.70	3.915
390.06	3.335
390.42	3.821
390.77	3.205
391.13	2.900
391.49	3.622
391.85	3.639
392.20	3.390
392.56	3.433
392.92	4.228
393.28	3.479
393.64	3.544
393.99	4.577
394.35	2.973
394.71	3.895
395.07	3.080
395.42	3.704
395.78	3.909
396.14	3.846
396.50	4.122
396.85	3.220
397.21	3.759
397.57	3.887
397.92	4.254
398.28	3.333
398.64	3.313
399.00	4.402
399.35	3.386
399.71	4.250
400.07	3.869
400.42	3.488
400.78	4.899
401.14	3.690
401.49	4.527
401.85	3.291
402.21	4.578
402.57	4.125
402.92	4.015
403.28	4.449
403.63	3.657
403.99	4.464
404.35	4.497
404.70	3.512
405.06	4.230
405.42	4.537
405.77	3.603
406.13	3.434
406.49	3.789
406.84	3.790
407.20	3.913
407.55	2.962
407.91	3.610
408.27	4.079
408.62	4.985
408.98	4.005
409.34	4.585
409.69	3.941
410.05	4.249
410.40	4.321
410.76	5.066
411.11	4.062
411.47	4.799
411.83	3.515
412.18	4.311
412.54	4.120
412.89	3.264
413.25	4.152
413.60	3.602
413.96	3.558
414.31	4.634
414.67	3.720
415.03	3.862
415.38	4.765
415.74	4.560
416.09	3.919
416.45	4.321
416.80	4.164
417.16	3.867
417.51	4.797
417.87	4.628
418.22	3.886
418.58	4.950
418.93	4.828
419.29	3.521
419.64	3.953
420.00	5.038
420.35	4.358
420.71	4.800
421.06	4.236
421.42	4.688
421.77	4.335
422.12	3.519
422.48	5.252
422.83	5.046
423.19	4.120
423.54	3.880
423.90	3.828
424.25	4.305
424.61	4.835
424.96	4.181
425.31	4.795
425.67	5.340
426.02	4.947
426.38	4.258
426.73	4.419
427.09	4.304
427.44	4.353
427.79	4.832
428.15	4.976
428.50	3.876
428.85	4.115
429.21	4.754
429.56	5.283
429.92	5.444
430.27	4.862
430.62	4.443
430.98	4.671
431.33	5.205
431.68	4.971
432.04	4.192
432.39	3.993
432.74	4.149
433.10	5.057
433.45	4.719
433.80	3.714
434.16	3.712
434.51	4.624
434.86	5.168
435.22	5.440
435.57	5.490
435.92	5.090
436.28	4.592
436.63	5.077
436.98	4.693
437.34	4.295
437.69	4.711
438.04	4.558
438.39	4.093
438.75	4.311
439.10	4.924
439.45	4.504
439.81	5.076
440.16	4.276
440.51	4.597
440.86	5.438
441.22	4.751
441.57	4.581
441.92	5.089
442.27	4.878
442.63	5.353
442.98	5.342
443.33	4.897
443.68	4.350
444.03	5.663
444.39	4.722
444.74	5.351
445.09	4.788
445.44	5.755
445.79	5.054
446.15	4.846
446.50	4.548
446.85	5.101
447.20	4.849
447.55	6.027
447.91	4.456
448.26	5.065
448.61	5.181
448.96	5.049
449.31	4.855
449.66	4.936
450.02	5.533
450.37	5.039
450.72	4.353
451.07	5.190
451.42	5.119
451.77	5.365
452.12	4.067
452.47	5.023
452.83	4.888
453.18	4.554
453.53	5.183
453.88	5.222
454.23	5.409
454.58	5.479
454.93	5.026
455.28	4.381
455.63	5.704
455.98	5.652
456.34	4.725
456.69	4.956
457.04	6.301
457.39	5.103
457.74	4.655
458.09	4.650
458.44	5.208
458.79	4.650
459.14	5.721
459.49	5.970
459.84	5.358
460.19	5.340
460.54	5.379
460.89	5.057
461.24	4.720
461.59	5.107
461.94	4.214
462.29	5.669
462.64	5.914
462.99	5.010
463.34	4.659
463.69	4.569
464.04	5.630
464.39	4.912
464.74	5.215
465.09	5.864
465.44	5.540
465.79	5.045
466.14	5.929
466.49	4.658
466.84	5.770
467.19	5.945
467.54	5.428
467.89	5.180
468.24	4.501
468.59	6.222
468.94	5.587
469.29	6.689
469.64	4.853
469.99	5.326
470.34	4.710
470.68	5.369
471.03	5.449
471.38	4.850
471.73	4.832
472.08	5.156
472.43	4.899
472.78	4.318
473.13	4.898
473.48	5.472
473.83	5.542
474.17	5.635
474.52	5.297
474.87	5.879
475.22	4.942
475.57	4.912
475.92	5.101
476.27	5.588
476.61	5.556
476.96	5.187
477.31	5.679
477.66	4.213
478.01	4.548
478.36	4.521
478.70	5.329
479.05	5.934
479.40	5.087
479.75	5.005
480.10	5.274
480.45	5.750
480.79	5.186
481.14	5.430
481.49	4.975
481.84	4.875
482.19	4.490
482.53	4.988
482.88	5.728
483.23	5.182
483.58	5.330
483.92	5.227
484.27	4.786
484.62	5.244
484.97	4.685
485.31	5.094
485.66	5.293
486.01	5.343
486.36	5.158
486.70	5.423
487.05	5.160
487.40	5.145
487.75	5.268
488.09	5.130
488.44	5.227
488.79	5.379
489.13	5.168
489.48	4.831
489.83	5.247
490.17	4.629
490.52	4.988
490.87	4.396
491.22	5.014
491.56	5.171
491.91	5.354
492.26	4.910
492.60	5.086
492.95	5.017
493.30	4.690
493.64	5.305
493.99	5.507
494.34	4.369
494.68	4.524
495.03	5.207
495.37	4.661
495.72	4.947
496.07	4.634
496.41	4.670
496.76	5.021
497.11	5.217
497.45	5.298
497.80	5.096
498.14	5.166
498.49	4.926
498.84	4.890
499.18	5.120
499.53	4.812
499.87	4.329
500.22	4.946
500.56	4.438
500.91	5.171
501.26	5.091
501.60	4.722
501.95	5.046
502.29	5.327
502.64	5.212
502.98	4.933
503.33	4.611
503.67	5.108
504.02	5.376
504.36	5.393
504.71	4.545
505.06	4.882
505.40	4.822
505.75	5.000
506.09	5.119
506.44	5.493
506.78	5.306
507.13	4.343
507.47	4.334
507.82	4.006
508.16	4.860
508.51	5.142
508.85	5.599
509.19	4.204
509.54	4.718
509.88	4.261
510.23	5.164
510.57	5.238
510.92	3.785
511.26	4.528
511.61	4.510
511.95	4.932
512.30	4.601
512.64	5.398
512.98	4.492
513.33	5.148
513.67	4.946
514.02	4.748
514.36	5.543
514.70	5.420
515.05	5.170
515.39	4.900
515.74	4.970
516.08	5.200
516.42	4.770
516.77	5.032
517.11	4.926
517.46	4.847
517.80	4.887
518.14	4.776
518.49	4.748
518.83	5.286
519.17	4.124
519.52	4.500
519.86	4.022
520.20	5.225
520.55	4.628
520.89	5.395
521.23	4.433
521.58	5.110
521.92	4.551
522.26	4.750
522.61	5.455
522.95	5.099
523.29	5.210
523.64	4.956
523.98	5.055
524.32	4.188
524.66	5.314
525.01	4.805
525.35	4.990
525.69	3.771
526.04	3.836
526.38	6.226
526.72	4.709
527.06	4.540
527.41	5.607
527.75	4.960
528.09	4.718
528.43	5.874
528.78	3.960
529.12	4.710
529.46	4.678
529.80	5.256
530.15	5.545
530.49	3.771
530.83	4.788
531.17	3.895
531.51	5.062
531.86	4.419
532.20	4.175
532.54	5.446
532.88	5.613
533.22	4.704
533.57	5.046
533.91	4.178
534.25	5.534
534.59	4.169
534.93	5.035
535.27	3.744
535.62	4.148
535.96	5.088
536.30	5.475
536.64	5.307
536.98	4.460
537.32	4.623
537.66	5.680
538.01	5.594
538.35	4.161
538.69	5.792
539.03	4.511
539.37	5.316
539.71	4.840
540.05	4.956
540.39	5.055
540.73	4.951
541.07	5.249
541.42	5.712
541.76	5.437
542.10	4.886
542.44	4.587
542.78	3.923
543.12	4.052
543.46	5.285
543.80	4.580
544.14	4.539
544.48	4.863
544.82	4.648
545.16	5.738
545.50	5.541
545.84	5.595
546.18	4.468
546.52	4.470
546.86	4.601
547.20	5.150
547.54	3.746
547.88	5.503
548.22	4.339
548.56	4.815
548.90	5.189
549.24	4.545
549.58	4.654
549.92	5.218
550.26	5.275
550.60	4.758
550.94	4.556
551.28	4.791
551.62	5.154
551.96	4.887
552.30	4.751
552.64	4.654
552.98	5.345
553.32	3.994
553.66	4.572
554.00	5.474
554.34	4.874
554.68	4.794
555.02	4.836
555.36	4.712
555.69	4.176
556.03	4.140
556.37	4.199
556.71	5.271
557.05	4.549
557.39	4.089
557.73	5.322
558.07	4.299
558.41	4.594
558.75	4.677
559.08	4.492
559.42	4.365
559.76	4.724
560.10	4.511
560.44	4.765
560.78	5.664
561.12	4.302
561.45	5.130
561.79	4.552
562.13	5.323
562.47	4.245
562.81	4.899
563.15	4.372
563.48	4.455
563.82	5.285
564.16	4.526
564.50	5.743
564.84	4.752
565.17	4.427
565.51	4.986
565.85	4.527
566.19	4.576
566.52	4.692
566.86	5.848
567.20	4.047
567.54	4.927
567.88	4.921
568.21	4.638
568.55	5.054
568.89	5.287
569.23	5.007
569.56	4.685
569.90	5.197
570.24	5.247
570.57	5.273
570.91	5.263
571.25	4.834
571.59	5.014
571.92	5.274
572.26	4.831
572.60	5.023
572.93	5.177
573.27	4.828
573.61	4.594
573.95	5.243
574.28	4.608
574.62	5.085
574.96	5.261
575.29	5.376
575.63	4.768
575.97	4.988
576.30	5.032
576.64	5.139
576.98	5.122
577.31	5.259
577.65	4.771
577.98	5.283
578.32	4.984
578.66	5.093
578.99	5.101
579.33	5.221
579.67	5.072
580.00	5.392
580.34	4.801
580.67	4.970
581.01	4.995
581.35	5.383
581.68	5.255
582.02	5.010
582.35	5.070
582.69	5.006
583.02	5.020
583.36	5.323
583.70	5.192
584.03	4.921
584.37	5.477
584.70	5.082
585.04	4.793
585.37	5.111
585.71	5.332
586.04	4.740
586.38	4.775
586.72	4.677
587.05	4.939
587.39	5.228
587.72	5.358
588.06	5.286
588.39	5.326
588.73	5.311
589.06	5.479
589.40	5.358
589.73	5.403
590.07	5.627
590.40	5.418
590.73	5.148
591.07	4.877
591.40	5.120
591.74	5.475
592.07	4.917
592.41	5.345
592.74	5.217
593.08	4.715
593.41	5.502
593.75	5.299
594.08	5.252
594.41	5.131
594.75	5.153
595.08	5.070
595.42	5.226
595.75	5.182
596.09	5.317
596.42	4.837
596.75	5.062
597.09	4.784
597.42	5.104
597.75	5.085
598.09	5.251
598.42	5.009
598.76	5.019
599.09	4.968
599.42	5.495
599.76	5.530
600.09	5.241
600.42	5.724
600.76	5.089
601.09	4.924
601.42	5.014
601.76	5.042
602.09	4.579
602.42	5.476
602.76	5.178
603.09	5.025
603.42	5.309
603.76	5.040
604.09	4.901
604.42	4.949
604.76	5.118
605.09	5.484
605.42	5.056
605.75	5.473
606.09	5.053
606.42	5.296
606.75	4.892
607.09	5.538
607.42	4.829
607.75	4.973
608.08	5.166
608.42	5.665
608.75	5.687
609.08	4.733
609.41	5.330
609.75	5.897
610.08	5.242
610.41	5.024
610.74	4.778
611.07	5.220
611.41	5.397
611.74	5.597
612.07	4.711
612.40	4.978
612.73	4.350
613.07	5.174
613.40	4.759
613.73	4.589
614.06	5.175
614.39	5.302
614.72	4.706
615.06	5.307
615.39	5.240
615.72	5.544
616.05	5.363
616.38	4.103
616.71	4.832
617.05	5.312
617.38	5.343
617.71	4.528
618.04	5.905
618.37	5.675
618.70	4.752
619.03	5.833
619.36	4.052
619.69	5.610
620.03	5.844
620.36	4.864
620.69	4.854
621.02	5.122
621.35	5.062
621.68	5.442
622.01	4.083
622.34	5.267
622.67	5.521
623.00	5.130
623.33	5.030
623.66	4.936
623.99	5.598
624.32	4.943
624.65	4.436
624.99	5.117
625.32	5.004
625.65	5.970
625.98	5.238
626.31	4.156
626.64	5.633
626.97	4.974
627.30	5.079
627.63	4.939
627.96	5.211
628.29	4.718
628.62	5.998
628.95	4.609
629.28	5.040
629.61	4.287
629.94	6.647
630.26	4.842
630.59	4.683
630.92	5.231
631.25	5.846
631.58	4.626
631.91	3.618
632.24	4.931
632.57	6.023
632.90	4.033
633.23	5.176
633.56	3.904
633.89	4.686
634.22	5.556
634.55	3.812
634.88	5.236
635.20	3.718
635.53	3.200
635.86	4.031
636.19	5.304
636.52	4.464
636.85	3.102
637.18	2.642
637.51	5.786
637.83	4.599
638.16	5.321
638.49	3.951
638.82	5.263
639.15	4.749
639.48	4.264
639.81	4.881
640.13	5.916
640.46	3.644
640.79	4.566
641.12	5.170
641.45	5.405
641.77	5.926
642.10	5.687
642.43	4.180
642.76	5.776
643.09	5.008
643.41	4.369
643.74	4.613
644.07	6.240
644.40	5.912
644.73	5.254
645.05	3.859
645.38	3.527
645.71	5.496
646.04	4.309
646.36	5.319
646.69	4.856
647.02	4.726
647.35	2.052
647.67	3.839
648.00	6.530
648.33	6.826
648.66	3.390
648.98	1.675
649.31	2.479
649.64	2.826
649.96	3.404
650.29	4.940
650.62	4.615
650.94	3.333
651.27	3.166
651.60	4.685
651.92	5.070
652.25	4.085
652.58	4.500
652.90	6.003
653.23	4.538
653.56	2.200
653.88	2.921
654.21	2.452
654.54	6.791
654.86	5.942
655.19	3.801
655.52	4.876
655.84	5.035
656.17	5.706
656.49	7.512
656.82	8.032
657.15	6.254
657.47	4.506
657.80	3.536
658.13	3.454
658.45	5.172
658.78	5.248
659.10	5.527
659.43	5.353
659.75	5.723
660.08	4.966
660.41	6.129
660.73	4.558
661.06	4.506
661.38	2.544
661.71	3.080
662.03	5.794
662.36	5.495
662.68	3.761
663.01	6.987
663.33	3.016
663.66	3.023
663.98	1.163
664.31	5.970
664.63	2.304
664.96	2.174
665.28	3.974
665.61	4.329
665.93	5.217
666.26	6.508
666.58	4.251
666.91	1.647
667.23	4.717
667.56	4.739
667.88	2.398
668.21	5.967
668.53	8.038
668.86	3.774
669.18	6.368
669.50	4.843
669.83	6.279
670.15	6.294
670.48	3.110
670.80	5.991
671.13	6.040
671.45	2.740
671.77	6.009
672.10	6.337
672.42	4.869
672.75	4.973
673.07	6.440
673.39	4.771
673.72	1.183
674.04	3.750
674.37	4.873
674.69	6.210
675.01	5.778
675.34	4.730
675.66	3.009
675.98	6.874
676.31	4.817
676.63	2.850
676.95	2.273
677.28	7.059
677.60	4.578
677.92	3.670
678.25	4.376
678.57	2.381
678.89	6.092
679.22	7.383
679.54	4.819
679.86	3.181
680.18	5.631
680.51	4.356
680.83	2.982
681.15	5.400
681.48	7.172
681.80	5.165
682.12	3.226
682.44	6.695
682.77	4.415
683.09	2.288
683.41	3.636
683.73	4.147
684.06	6.637
684.38	2.796
684.70	5.447
685.02	3.320
685.34	3.557
685.67	4.878
685.99	5.606
686.31	4.779
686.63	5.380
686.96	2.471
687.28	1.818
687.60	3.992
687.92	5.859
688.24	4.234
688.56	4.148
688.89	6.696
689.21	7.778
689.53	3.016
689.85	2.093
690.17	3.571
690.49	1.418
690.82	5.097
691.14	1.905
691.46	4.907
691.78	3.378
692.10	5.376
692.42	3.680
692.74	6.624
693.06	5.631
693.39	0.679
693.71	4.072
694.03	1.848
694.35	6.542
694.67	4.293
694.99	3.394
695.31	4.178
695.63	8.250
695.95	5.051
696.27	3.886
696.59	4.167
696.91	1.681
697.23	3.342
697.56	5.941
697.88	5.376
698.20	6.150
698.52	4.941
698.84	1.914
699.16	5.750
699.48	5.764
699.80	7.692
700.12	5.121
700.44	5.882
700.76	1.453
701.08	1.212
701.40	6.024
701.72	5.556
702.04	3.630
702.36	3.679
702.68	2.102
703.00	2.424
703.32	3.519
703.64	3.672
703.96	1.739
704.28	3.681
704.60	3.492
704.91	3.470
705.23	5.316
705.55	6.007
705.87	3.610
706.19	4.815
706.51	5.842
706.83	9.646
707.15	4.050
707.47	5.042
707.79	3.385
708.11	6.750
708.43	6.000
708.74	3.618
709.06	3.380
709.38	6.116
709.70	6.509
710.02	3.185
710.34	7.121
710.66	3.526
710.98	3.974
711.29	2.623
711.61	4.746
711.93	9.121
712.25	9.622
712.57	5.128
712.89	3.731
713.20	3.806
713.52	5.923
713.84	4.778
714.16	0.000
714.48	5.161
714.80	4.808
715.11	7.295
715.43	-1.881
715.75	0.667
716.07	3.322
716.39	4.698
716.70	2.583
717.02	0.382
717.34	8.502
717.66	3.097
717.97	5.217
718.29	2.510
718.61	0.787
718.93	3.101
719.24	4.183
719.56	2.410
719.88	7.904
720.20	4.924
720.51	-1.149
720.83	5.405
721.15	8.403
721.46	3.629
721.78	0.791
722.10	1.859
722.42	0.830
722.73	6.939
723.05	3.265
723.37	8.475
723.68	9.009
724.00	0.855
724.32	0.889
724.63	1.818
724.95	2.183
725.27	6.912
725.58	8.475
725.90	5.952
726.22	7.722
726.53	7.797
726.85	4.494
727.16	7.925
727.48	3.239
727.80	8.907
728.11	5.932
728.43	3.922
728.74	0.806
729.06	3.600
729.38	10.150
729.69	3.187
730.01	-1.154
730.32	6.343
730.64	7.420
730.96	5.283
731.27	4.667
731.59	4.068
731.90	2.229
732.22	8.833
732.53	7.641
732.85	5.674
733.16	5.724
733.48	0.719
733.80	3.623
734.11	3.729
734.43	1.375
734.74	5.152
735.06	0.000
735.37	5.740
735.69	9.091
736.00	3.484
736.32	4.698
736.63	5.634
736.95	8.191
737.26	5.338
737.58	6.711
737.89	5.495
738.21	1.880
738.52	0.823
738.83	7.860
739.15	-0.437
739.46	9.055
739.78	1.465
740.09	6.536
740.41	7.971
740.72	1.181
741.04	4.453
741.35	5.106
741.66	2.370
741.98	5.612
742.29	6.436
742.61	1.047
742.92	-0.948
743.23	-1.852
743.55	4.072
743.86	2.392
744.18	2.871
744.49	-1.064
744.80	1.630
745.12	12.299
745.43	0.000
745.74	3.125
746.06	4.390
746.37	2.094
746.68	9.005
747.00	2.128
747.31	11.443
747.62	1.942
747.94	3.349
748.25	0.990
748.56	7.104
748.88	4.188
749.19	3.723
749.50	4.433
749.82	0.000
750.13	-1.835
750.44	6.767
750.75	4.851
751.07	6.569
751.38	4.981
751.69	3.922
752.01	6.977
752.32	2.789
752.63	4.743
752.94	0.000
753.26	10.042
753.57	4.977
753.88	2.655
754.19	-2.500
754.51	2.893
754.82	0.810
755.13	2.917
755.44	1.613
755.75	5.078
756.07	5.447
756.38	5.283
756.69	3.448
757.00	1.333
757.31	8.170
757.63	1.524
757.94	4.722
758.25	4.932
758.56	4.255
758.87	4.533
759.18	1.869
759.50	0.000
759.81	5.017
760.12	4.194
760.43	4.848
760.74	3.395
761.05	4.923
761.36	1.136
761.67	5.758
761.99	7.823
762.30	2.909
762.61	1.976
762.92	4.072
763.23	4.955
763.54	2.804
763.85	2.119
764.16	0.415
764.47	4.435
764.78	4.029
765.10	7.744
765.41	4.416
765.72	9.524
766.03	2.632
766.34	6.204
766.65	9.163
766.96	5.556
767.27	2.128
767.58	1.724
767.89	-6.383
768.20	6.250
768.51	3.846
768.82	6.897
769.13	-1.843
769.44	3.004
769.75	0.000
770.06	7.759
770.37	3.846
770.68	6.599
770.99	9.050
771.30	5.392
771.61	3.167
771.92	7.759
772.23	7.389
772.54	4.839
772.85	4.321
773.16	7.865
773.47	13.725
773.78	2.614
774.09	1.198
774.39	-0.667
774.70	7.643
775.01	13.793
775.32	5.000
775.63	0.000
775.94	9.924
776.25	5.512
776.56	-1.667
776.87	4.808
777.18	4.274
777.48	6.034
777.79	5.217
778.10	0.952
778.41	-10.811
778.72	7.937
779.03	3.008
779.34	7.801
779.65	10.959
779.95	2.055
780.26	12.414
780.57	-8.130
780.88	4.724
781.19	4.310
781.50	3.101
781.80	5.325
782.11	-4.403
782.42	4.615
782.73	5.036
783.04	-5.926
783.34	4.167
783.65	-8.547
783.96	-2.459
784.27	8.966
784.57	1.626
784.88	7.031
785.19	10.000
785.50	11.000
785.81	9.483
786.11	5.172
786.42	-1.942
786.73	6.364
787.04	-4.082
787.34	8.036
787.65	2.857
787.96	6.195
788.26	11.818
788.57	5.983
788.88	9.375
789.19	5.556
789.49	1.739
789.80	-4.082
790.11	0.000
790.41	4.545
790.72	10.870
791.03	6.818
791.33	13.750
791.64	-6.250
791.95	2.326
792.25	15.957
792.56	15.730
792.87	4.110
793.17	-2.899
793.48	1.333
793.79	8.750
794.09	11.250
794.40	0.000
794.70	-2.913
795.01	-2.439
795.32	3.419
795.62	-0.952
795.93	2.941
796.23	11.321
796.54	3.125
796.85	8.824
797.15	4.225
797.46	15.278
797.76	7.576
798.07	1.163
798.37	-10.526
798.68	-9.091
798.99	6.173
799.29	11.429
799.60	-4.348
799.90	5.333
800.21	16.393
800.51	9.231
800.82	0.000
801.12	14.493
801.43	11.475
801.73	7.937
802.04	4.000
802.34	-7.463
802.65	19.231
802.95	-28.571
803.26	5.769
803.56	0.000
803.87	-23.913
804.17	21.333
804.48	17.460
804.78	1.852
805.09	-23.913
805.39	2.222
805.70	9.259
806.00	-21.053
806.30	2.817
806.61	7.143
806.91	-1.389
807.22	17.105
807.52	22.667
807.83	1.818
808.13	18.056
808.43	4.412
808.74	-2.985
809.04	6.780
809.35	0.000
809.65	4.687
809.95	-24.324
810.26	-20.455
810.56	15.068
810.86	16.667
811.17	0.000
811.47	22.449
811.77	-18.421
812.08	2.273
812.38	3.774
812.69	-5.000
812.99	0.000
813.29	5.263
813.59	-14.286
813.90	4.545
814.20	0.000
814.50	0.000
814.81	15.094
815.11	-10.638
815.41	15.254
815.72	7.143
816.02	7.843
816.32	4.167
816.62	12.195
816.93	13.514
817.23	5.714
817.53	4.167
817.84	-17.391
818.14	19.231
818.44	-7.895
818.74	36.957
819.04	-30.000
819.35	8.108
819.65	-2.941
819.95	33.333
820.25	16.667
820.56	17.500
820.86	-48.276
821.16	32.500
821.46	6.383
821.76	22.500
822.07	-13.953
822.37	-16.216
822.67	-6.250
822.97	42.857
823.27	25.000
823.57	-24.000
823.88	-40.741
824.18	0.000
824.48	2.941
824.78	0.000
825.08	-13.043
825.38	-3.030
825.69	-33.333
825.99	18.421
826.29	-16.667
826.59	6.667
826.89	-52.381
827.19	21.739
827.49	-12.500
827.79	25.714
828.09	14.286
828.39	6.061
828.70	32.432
829.00	10.714
829.30	14.286
829.60	30.000
829.90	21.875
830.20	15.789
830.50	-7.407
830.80	-39.130
831.10	-9.091
831.40	36.364
831.70	19.355
832.00	19.048
832.30	-85.714
832.60	16.667
832.90	6.897
833.20	-25.000
833.50	33.333
833.80	0.000
834.10	-34.615
834.40	12.500
834.70	33.333
835.00	47.368
835.30	26.923
835.60	6.667
835.90	12.903
836.20	13.636
836.50	28.571
836.80	-38.462
837.10	3.571
837.40	-400.000
837.70	18.182
838.00	-9.091
838.30	34.783
838.60	61.538
838.90	50.000
839.19	0.000
839.49	3.333
839.79	15.385
840.09	-33.333
840.39	64.286
840.69	-7.143
840.99	-26.923
841.29	-73.684
841.59	-90.000
841.88	-18.182
842.18	-20.000
842.48	25.000
842.78	-6.667
843.08	-7.407
843.38	-140.000
843.68	26.087
843.97	60.000
844.27	-60.000
844.57	-10.000
844.87	16.667
845.17	-14.286
845.47	26.667
845.76	-9.524
846.06	23.529
846.36	-40.000
846.66	-7.143
846.96	60.000
847.25	-162.500
847.55	57.143
847.85	87.500
848.15	0.000
848.44	-500.000
848.74	-10.000
849.04	22.222
849.34	54.545
849.63	-66.667
849.93	-60.000
850.23	5.556
850.53	50.000
850.82	-69.231
851.12	11.111
851.42	60.000
851.71	15.385
852.01	42.857
852.31	-175.000
852.61	27.273
852.90	-30.000
853.20	36.842
853.50	16.667
853.79	0.000
854.09	0.000
854.39	36.842
854.68	4.167
854.98	0.000
855.28	-3.846
855.57	20.000
855.87	0.000
856.17	29.630
856.46	42.857
856.76	-20.000
857.05	-33.333
857.35	24.000
857.65	0.000
857.94	0.000
858.24	44.828
858.53	50.000
858.83	40.741
859.13	9.091
859.42	34.783
859.72	-200.000
860.01	-333.333
860.31	48.000
860.60	14.286
860.90	-266.667
861.20	-20.000
861.49	-450.000
861.79	-6.667
862.08	55.000
862.38	80.000
862.67	-220.000
862.97	-83.333
863.26	-25.000
863.56	55.556
863.85	-400.000
864.15	77.778
864.44	0.000
864.74	78.571
865.03	-0.000
865.33	-180.000
865.62	33.333
865.92	16.667
866.21	-300.000
866.51	-6.250
866.80	27.273
867.10	50.000
867.39	25.000
867.69	0.000
867.98	0.000
868.27	100.000
868.57	53.333
868.86	116.667
869.16	-46.154
869.45	60.000
869.75	-1000.000
870.04	0.000
870.33	42.857
870.63	28.571
870.92	333.333
871.22	-40.000
871.51	-200.000
871.80	122.222
872.10	166.667
>>>>>End Processed Spectral Data<<<<<
