SpectraSuite Data File
++++++++++++++++++++++++++++++++++++
Date: Fri May 15 17:15:31 PDT 2015
User: schluterlab
Dark Spectrum Present: Yes
Reference Spectrum Present: Yes
Number of Sampled Component Spectra: 1
Spectrometers: USB2E3373
Integration Time (usec): 3000 (USB2E3373)
Spectra Averaged: 3 (USB2E3373)
Boxcar Smoothing: 0 (USB2E3373)
Correct for Electrical Dark: No (USB2E3373)
Strobe/Lamp Enabled: No (USB2E3373)
Correct for Detector Non-linearity: No (USB2E3373)
Correct for Stray Light: No (USB2E3373)
Number of Pixels in Processed Spectrum: 2048
>>>>>Begin Processed Spectral Data<<<<<
178.53	0.000
178.91	0.000
179.29	137.500
179.67	-300.000
180.04	-28.571
180.42	350.000
180.80	400.000
181.18	-233.333
181.56	-50.000
181.94	-400.000
182.31	-900.000
182.69	0.000
183.07	0.000
183.45	120.000
183.83	133.333
184.20	9.091
184.58	122.222
184.96	-25.000
185.34	-266.667
185.72	50.000
186.09	38.462
186.47	-100.000
186.85	50.000
187.23	133.333
187.61	-200.000
187.98	-266.667
188.36	11.111
188.74	-66.667
189.12	58.824
189.49	72.222
189.87	0.000
190.25	28.571
190.63	-150.000
191.00	-100.000
191.38	42.105
191.76	250.000
192.14	125.000
192.51	600.000
192.89	33.333
193.27	-85.714
193.65	200.000
194.02	190.909
194.40	110.000
194.78	25.000
195.15	-25.000
195.53	50.000
195.91	225.000
196.29	-75.000
196.66	84.615
197.04	57.143
197.42	0.000
197.79	-333.333
198.17	-61.538
198.55	500.000
198.92	-100.000
199.30	100.000
199.68	-20.000
200.05	-266.667
200.43	0.000
200.81	-33.333
201.18	533.333
201.56	400.000
201.94	50.000
202.31	-33.333
202.69	0.000
203.07	75.000
203.44	500.000
203.82	0.000
204.19	92.857
204.57	-300.000
204.95	50.000
205.32	60.000
205.70	-28.571
206.08	175.000
206.45	255.556
206.83	135.714
207.20	-57.143
207.58	-900.000
207.96	33.333
208.33	-10.000
208.71	175.000
209.08	-250.000
209.46	-400.000
209.84	140.000
210.21	-100.000
210.59	185.714
210.96	100.000
211.34	50.000
211.71	33.333
212.09	-14.286
212.46	-200.000
212.84	0.000
213.22	130.000
213.59	300.000
213.97	123.077
214.34	36.364
214.72	83.333
215.09	300.000
215.47	46.154
215.84	-36.364
216.22	-33.333
216.59	-37.500
216.97	250.000
217.34	-225.000
217.72	-180.000
218.09	37.500
218.47	125.000
218.84	400.000
219.22	-44.444
219.59	-100.000
219.97	400.000
220.34	400.000
220.72	57.143
221.09	-25.000
221.47	400.000
221.84	0.000
222.22	-200.000
222.59	18.182
222.97	75.000
223.34	-166.667
223.72	42.857
224.09	28.571
224.46	35.714
224.84	233.333
225.21	40.000
225.59	66.667
225.96	100.000
226.34	75.000
226.71	71.429
227.08	-116.667
227.46	75.000
227.83	-550.000
228.21	22.222
228.58	63.636
228.95	87.500
229.33	50.000
229.70	25.000
230.08	-12.500
230.45	0.000
230.82	-14.286
231.20	-53.333
231.57	78.571
231.95	28.571
232.32	-10.000
232.69	142.857
233.07	166.667
233.44	20.000
233.81	10.000
234.19	-11.111
234.56	11.765
234.93	600.000
235.31	25.000
235.68	-140.000
236.05	-76.923
236.43	-15.000
236.80	23.529
237.17	6.250
237.55	10.000
237.92	-18.519
238.29	19.444
238.67	16.667
239.04	2.941
239.41	-12.195
239.79	-23.333
240.16	39.024
240.53	-21.053
240.91	4.348
241.28	6.349
241.65	-3.571
242.02	12.329
242.40	6.667
242.77	3.390
243.14	-1.515
243.51	0.000
243.89	10.345
244.26	-5.747
244.63	13.095
245.00	5.155
245.38	7.216
245.75	-8.989
246.12	-0.862
246.49	-1.653
246.87	-5.769
247.24	-0.840
247.61	-10.526
247.98	2.439
248.36	-2.500
248.73	1.974
249.10	-4.545
249.47	0.633
249.84	-2.614
250.22	4.706
250.59	5.882
250.96	7.512
251.33	-2.326
251.70	1.765
252.08	1.523
252.45	-3.465
252.82	-2.513
253.19	2.765
253.56	-3.738
253.94	3.604
254.31	4.348
254.68	4.825
255.05	-0.394
255.42	5.240
255.79	3.089
256.16	1.556
256.54	6.343
256.91	-0.760
257.28	1.487
257.65	-0.749
258.02	0.355
258.39	3.704
258.76	3.663
259.14	2.326
259.51	5.178
259.88	1.031
260.25	0.327
260.62	5.208
260.99	-3.729
261.36	-6.164
261.73	1.266
262.10	1.216
262.47	0.613
262.85	-0.940
263.22	1.538
263.59	0.623
263.96	3.416
264.33	-0.909
264.70	0.893
265.07	1.190
265.44	1.133
265.81	2.260
266.18	2.459
266.55	2.571
266.92	3.368
267.29	0.522
267.66	0.512
268.03	2.880
268.40	1.567
268.77	4.278
269.14	2.878
269.51	2.057
269.88	-0.249
270.25	0.000
270.62	-0.976
270.99	-2.046
271.36	-0.978
271.73	1.878
272.10	-0.243
272.47	0.000
272.84	-0.495
273.21	3.248
273.58	1.205
273.95	1.373
274.32	-3.002
274.69	-1.810
275.06	2.679
275.43	1.814
275.80	0.883
276.17	0.920
276.54	1.713
276.91	0.439
277.28	0.655
277.65	3.512
278.02	1.277
278.39	1.751
278.76	2.096
279.13	-3.112
279.50	2.941
279.87	1.512
280.23	-0.215
280.60	1.949
280.97	1.616
281.34	0.000
281.71	3.080
282.08	0.409
282.45	0.783
282.82	0.193
283.19	1.741
283.56	0.193
283.92	0.759
284.29	0.385
284.66	0.969
285.03	1.768
285.40	-0.189
285.77	0.000
286.14	2.166
286.51	2.952
286.87	-0.731
287.24	-0.184
287.61	-0.176
287.98	2.632
288.35	-0.347
288.72	2.627
289.08	0.000
289.45	0.000
289.82	1.224
290.19	-0.853
290.56	0.172
290.93	0.505
291.29	1.079
291.66	0.000
292.03	0.159
292.40	0.968
292.77	0.478
293.13	-2.760
293.50	-1.517
293.87	1.832
294.24	0.927
294.60	2.235
294.97	2.083
295.34	0.460
295.71	0.596
296.08	-0.149
296.44	-1.707
296.81	0.000
297.18	1.594
297.55	1.355
297.91	0.548
298.28	2.639
298.65	1.085
299.02	0.674
299.38	-1.368
299.75	0.828
300.12	0.785
300.48	-0.791
300.85	2.028
301.22	0.649
301.59	-0.395
301.95	1.646
302.32	1.297
302.69	0.995
303.05	0.990
303.42	1.121
303.79	1.986
304.15	1.553
304.52	1.427
304.89	0.117
305.25	0.969
305.62	0.000
305.99	0.351
306.35	0.925
306.72	1.012
307.09	1.368
307.45	1.033
307.82	-0.116
308.19	1.394
308.55	0.654
308.92	1.416
309.29	0.447
309.65	0.861
310.02	-0.110
310.38	0.549
310.75	0.328
311.12	0.538
311.48	0.848
311.85	1.047
312.22	0.422
312.58	0.212
312.95	0.854
313.31	-1.035
313.68	-0.105
314.05	0.816
314.41	0.619
314.78	0.000
315.14	1.233
315.51	1.139
315.87	-0.410
316.24	1.517
316.61	0.886
316.97	1.389
317.34	0.391
317.70	0.096
318.07	0.577
318.43	0.098
318.80	0.568
319.16	0.684
319.53	1.425
319.89	0.197
320.26	0.709
320.62	0.301
320.99	-0.835
321.35	1.336
321.72	1.558
322.08	0.604
322.45	0.406
322.81	1.375
323.18	-0.294
323.54	0.097
323.91	0.097
324.27	0.586
324.64	0.655
325.00	0.730
325.37	1.837
325.73	-0.363
326.10	-0.454
326.46	0.717
326.83	0.612
327.19	0.174
327.56	0.695
327.92	1.320
328.29	0.536
328.65	1.698
329.01	1.287
329.38	-0.092
329.74	0.189
330.11	1.576
330.47	-0.928
330.84	-0.096
331.20	1.616
331.56	0.556
331.93	1.187
332.29	0.642
332.66	0.814
333.02	0.836
333.38	-0.367
333.75	1.282
334.11	1.164
334.48	1.632
334.84	1.007
335.20	0.732
335.57	0.000
335.93	1.174
336.29	0.276
336.66	0.908
337.02	-0.929
337.38	0.741
337.75	1.182
338.11	0.992
338.47	0.456
338.84	0.277
339.20	-0.183
339.56	1.009
339.93	1.343
340.29	0.275
340.65	1.434
341.02	1.064
341.38	0.708
341.74	0.353
342.11	0.087
342.47	0.267
342.83	1.471
343.20	0.000
343.56	2.000
343.92	0.266
344.28	0.512
344.65	-0.345
345.01	-0.519
345.37	0.925
345.73	0.502
346.10	0.431
346.46	0.505
346.82	0.736
347.19	0.249
347.55	0.334
347.91	0.405
348.27	0.808
348.63	0.681
349.00	0.082
349.36	0.000
349.72	0.332
350.08	0.820
350.45	1.277
350.81	0.415
351.17	0.081
351.53	1.143
351.89	1.404
352.26	0.560
352.62	0.887
352.98	-0.161
353.34	0.322
353.70	1.052
354.07	0.403
354.43	0.560
354.79	0.578
355.15	1.429
355.51	0.316
355.87	1.214
356.24	0.163
356.60	0.728
356.96	1.032
357.32	0.719
357.68	0.391
358.04	0.242
358.40	0.241
358.77	0.797
359.13	-0.560
359.49	1.156
359.85	0.468
360.21	0.239
360.57	0.230
360.93	0.530
361.29	-0.076
361.66	1.646
362.02	0.455
362.38	0.533
362.74	0.303
363.10	0.376
363.46	0.667
363.82	1.427
364.18	0.221
364.54	0.000
364.90	-0.072
365.26	-0.146
365.62	1.241
365.98	0.806
366.35	1.311
366.71	0.517
367.07	1.306
367.43	0.647
367.79	0.989
368.15	0.574
368.51	0.073
368.87	1.077
369.23	0.505
369.59	-0.146
369.95	1.246
370.31	1.084
370.67	0.299
371.03	-0.224
371.39	0.511
371.75	1.026
372.11	0.785
372.47	0.666
372.83	0.639
373.19	1.213
373.55	-0.072
373.91	0.576
374.27	0.638
374.63	0.861
374.99	0.638
375.35	-0.070
375.71	1.538
376.07	0.351
376.42	0.884
376.78	1.007
377.14	0.812
377.50	0.863
377.86	0.134
378.22	0.574
378.58	0.641
378.94	0.063
379.30	0.811
379.66	1.191
380.02	0.736
380.38	0.243
380.74	0.419
381.09	0.920
381.45	-0.122
381.81	0.555
382.17	0.254
382.53	0.625
382.89	-0.251
383.25	0.187
383.61	0.549
383.97	-0.635
384.32	0.750
384.68	0.743
385.04	-0.184
385.40	-0.124
385.76	0.881
386.12	0.970
386.48	0.575
386.83	0.254
387.19	0.794
387.55	0.314
387.91	0.672
388.27	0.549
388.62	0.315
388.98	0.061
389.34	0.687
389.70	0.435
390.06	0.252
390.42	0.000
390.77	0.262
391.13	0.631
391.49	0.582
391.85	0.390
392.20	0.377
392.56	-0.064
392.92	0.881
393.28	0.708
393.64	0.300
393.99	1.693
394.35	0.127
394.71	1.022
395.07	1.006
395.42	-0.121
395.78	0.391
396.14	0.567
396.50	0.698
396.85	-0.129
397.21	0.627
397.57	0.000
397.92	0.419
398.28	0.460
398.64	-0.241
399.00	0.451
399.35	-0.282
399.71	0.517
400.07	0.544
400.42	0.306
400.78	1.225
401.14	0.363
401.49	0.834
401.85	-0.122
402.21	0.482
402.57	0.562
402.92	0.251
403.28	0.501
403.63	0.000
403.99	0.319
404.35	0.874
404.70	0.774
405.06	0.176
405.42	0.497
405.77	-0.232
406.13	0.640
406.49	0.533
406.84	0.244
407.20	0.241
407.55	0.193
407.91	0.000
408.27	0.319
408.62	1.169
408.98	0.431
409.34	0.620
409.69	0.194
410.05	-0.062
410.40	0.741
410.76	0.603
411.11	0.938
411.47	0.263
411.83	-0.188
412.18	-0.772
412.54	0.499
412.89	0.185
413.25	0.241
413.60	-0.186
413.96	0.675
414.31	1.341
414.67	-0.128
415.03	0.133
415.38	0.392
415.74	0.847
416.09	0.914
416.45	0.540
416.80	0.463
417.16	0.276
417.51	0.933
417.87	0.456
418.22	0.000
418.58	0.334
418.93	0.502
419.29	0.384
419.64	0.065
420.00	1.134
420.35	0.418
420.71	0.365
421.06	0.614
421.42	0.721
421.77	0.694
422.12	0.454
422.48	0.596
422.83	0.174
423.19	0.734
423.54	-0.176
423.90	0.471
424.25	0.631
424.61	0.612
424.96	1.045
425.31	0.693
425.67	0.235
426.02	0.707
426.38	0.564
426.73	0.182
427.09	0.886
427.44	0.882
427.79	0.648
428.15	0.607
428.50	0.303
428.85	-0.676
429.21	0.509
429.56	0.970
429.92	1.027
430.27	0.952
430.62	-0.052
430.98	0.318
431.33	1.052
431.68	0.262
432.04	0.168
432.39	0.000
432.74	0.241
433.10	0.690
433.45	0.179
433.80	-0.522
434.16	-0.166
434.51	0.323
434.86	0.174
435.22	0.729
435.57	0.312
435.92	0.240
436.28	0.298
436.63	0.685
436.98	-0.116
437.34	-0.544
437.69	0.537
438.04	0.171
438.39	-0.183
438.75	-0.182
439.10	0.283
439.45	0.852
439.81	0.122
440.16	-0.119
440.51	0.776
440.86	0.604
441.22	-0.113
441.57	-0.276
441.92	0.420
442.27	-0.333
442.63	1.017
442.98	0.747
443.33	0.334
443.68	-0.371
444.03	0.845
444.39	0.295
444.74	0.446
445.09	0.445
445.44	0.228
445.79	1.031
446.15	0.220
446.50	0.277
446.85	0.744
447.20	0.209
447.55	1.563
447.91	0.113
448.26	0.569
448.61	0.691
448.96	0.516
449.31	0.000
449.66	0.523
450.02	0.057
450.37	-0.356
450.72	0.172
451.07	0.316
451.42	1.311
451.77	0.603
452.12	0.000
452.47	0.451
452.83	-0.059
453.18	0.000
453.53	0.063
453.88	0.000
454.23	0.553
454.58	-0.189
454.93	0.515
455.28	-0.508
455.63	0.186
455.98	0.842
456.34	0.064
456.69	0.953
457.04	0.504
457.39	-0.608
457.74	0.000
458.09	0.059
458.44	-0.234
458.79	0.224
459.14	0.915
459.49	0.537
459.84	0.508
460.19	0.121
460.54	0.611
460.89	0.284
461.24	0.870
461.59	1.069
461.94	0.503
462.29	0.844
462.64	0.731
462.99	0.474
463.34	0.070
463.69	0.515
464.04	0.666
464.39	0.303
464.74	0.368
465.09	0.250
465.44	0.923
465.79	0.000
466.14	0.513
466.49	0.403
466.84	1.071
467.19	0.626
467.54	0.511
467.89	0.632
468.24	0.061
468.59	0.635
468.94	0.825
469.29	1.246
469.64	0.957
469.99	0.981
470.34	-0.887
470.68	0.746
471.03	0.566
471.38	0.642
471.73	0.210
472.08	0.339
472.43	-0.872
472.78	-0.411
473.13	0.136
473.48	-0.130
473.83	0.374
474.17	1.036
474.52	0.511
474.87	0.424
475.22	-0.305
475.57	0.282
475.92	0.658
476.27	1.048
476.61	1.042
476.96	0.279
477.31	0.865
477.66	-0.112
478.01	-0.281
478.36	0.599
478.70	-0.163
479.05	0.330
479.40	0.848
479.75	0.782
480.10	0.461
480.45	0.500
480.79	0.906
481.14	0.717
481.49	0.197
481.84	0.145
482.19	0.234
482.53	0.528
482.88	0.668
483.23	0.720
483.58	0.991
483.92	-0.145
484.27	-0.091
484.62	0.628
484.97	0.332
485.31	0.723
485.66	0.510
486.01	0.648
486.36	0.384
486.70	0.414
487.05	0.447
487.40	0.414
487.75	0.366
488.09	0.247
488.44	0.344
488.79	0.075
489.13	0.481
489.48	0.128
489.83	0.673
490.17	0.090
490.52	0.508
490.87	0.694
491.22	0.287
491.56	0.095
491.91	0.478
492.26	0.486
492.60	0.816
492.95	0.885
493.30	0.489
493.64	0.295
493.99	0.966
494.34	-0.146
494.68	0.667
495.03	-0.146
495.37	0.294
495.72	0.050
496.07	0.537
496.41	-0.236
496.76	0.507
497.11	0.093
497.45	0.668
497.80	0.605
498.14	0.397
498.49	0.508
498.84	0.649
499.18	0.151
499.53	0.397
499.87	-0.097
500.22	0.198
500.56	0.151
500.91	-0.201
501.26	-0.198
501.60	0.049
501.95	0.437
502.29	0.726
502.64	0.772
502.98	0.148
503.33	0.048
503.67	0.337
504.02	0.635
504.36	0.792
504.71	0.404
505.06	0.151
505.40	0.305
505.75	0.515
506.09	0.760
506.44	0.719
506.78	0.561
507.13	0.362
507.47	0.000
507.82	-0.053
508.16	0.264
508.51	0.577
508.85	0.105
509.19	-0.266
509.54	-0.161
509.88	0.324
510.23	0.430
510.57	0.214
510.92	-0.320
511.26	-0.109
511.61	0.165
511.95	0.055
512.30	0.166
512.64	1.224
512.98	0.056
513.33	0.560
513.67	-0.227
514.02	0.915
514.36	1.029
514.70	0.583
515.05	0.176
515.39	0.236
515.74	0.838
516.08	0.359
516.42	0.471
516.77	0.761
517.11	0.000
517.46	0.359
517.80	0.775
518.14	0.184
518.49	-0.361
518.83	-0.243
519.17	-0.546
519.52	1.243
519.86	-0.360
520.20	-0.243
520.55	-1.001
520.89	0.690
521.23	-0.190
521.58	1.009
521.92	-0.128
522.26	0.195
522.61	0.455
522.95	0.530
523.29	0.953
523.64	1.144
523.98	0.583
524.32	-0.515
524.66	0.832
525.01	-0.260
525.35	0.454
525.69	-0.539
526.04	-0.397
526.38	1.297
526.72	0.000
527.06	0.389
527.41	0.923
527.75	-0.335
528.09	0.664
528.43	1.485
528.78	0.066
529.12	1.161
529.46	-0.130
529.80	1.330
530.15	1.122
530.49	-0.202
530.83	0.342
531.17	0.336
531.51	0.479
531.86	0.272
532.20	-0.487
532.54	0.408
532.88	0.479
533.22	0.806
533.57	1.048
533.91	-0.392
534.25	0.521
534.59	0.064
534.93	0.629
535.27	0.063
535.62	-0.518
535.96	0.065
536.30	0.528
536.64	0.000
536.98	0.279
537.32	0.569
537.66	0.771
538.01	0.420
538.35	-0.277
538.69	0.266
539.03	0.410
539.37	0.538
539.71	0.409
540.05	0.883
540.39	0.277
540.73	1.255
541.07	0.207
541.42	1.882
541.76	1.170
542.10	0.275
542.44	1.042
542.78	-0.138
543.12	0.962
543.46	1.182
543.80	0.902
544.14	0.200
544.48	0.933
544.82	0.684
545.16	1.230
545.50	2.003
545.84	1.700
546.18	1.702
546.52	0.793
546.86	0.863
547.20	0.286
547.54	0.353
547.88	1.562
548.22	0.723
548.56	0.858
548.90	1.415
549.24	0.620
549.58	1.551
549.92	-0.071
550.26	0.952
550.60	0.297
550.94	1.046
551.28	-0.155
551.62	0.692
551.96	0.827
552.30	0.512
552.64	0.423
552.98	0.563
553.32	0.642
553.66	0.000
554.00	0.365
554.34	0.812
554.68	0.221
555.02	1.339
555.36	0.972
555.69	-0.293
556.03	0.286
556.37	0.569
556.71	0.361
557.05	0.522
557.39	0.297
557.73	1.199
558.07	0.830
558.41	-0.153
558.75	0.546
559.08	0.473
559.42	-0.397
559.76	-1.121
560.10	-0.153
560.44	0.223
560.78	0.839
561.12	0.141
561.45	0.281
561.79	1.331
562.13	0.639
562.47	0.216
562.81	0.072
563.15	1.199
563.48	1.132
563.82	0.824
564.16	-0.209
564.50	0.068
564.84	0.535
565.17	0.335
565.51	0.820
565.85	0.343
566.19	0.199
566.52	0.335
566.86	1.028
567.20	-0.125
567.54	-0.426
567.88	-0.059
568.21	0.339
568.55	-0.272
568.89	0.616
569.23	0.096
569.56	0.088
569.90	0.447
570.24	0.595
570.57	0.036
570.91	0.558
571.25	0.099
571.59	0.374
571.92	0.593
572.26	0.091
572.60	0.496
572.93	0.722
573.27	0.219
573.61	0.239
573.95	0.410
574.28	0.318
574.62	0.153
574.96	0.673
575.29	0.454
575.63	0.389
575.97	0.298
576.30	0.478
576.64	0.291
576.98	0.644
577.31	0.393
577.65	0.413
577.98	0.592
578.32	0.229
578.66	0.365
578.99	0.351
579.33	0.275
579.67	0.530
580.00	0.354
580.34	0.398
580.67	0.223
581.01	0.336
581.35	0.323
581.68	0.492
582.02	0.275
582.35	0.241
582.69	0.448
583.02	0.299
583.36	0.355
583.70	0.623
584.03	0.445
584.37	0.706
584.70	0.412
585.04	0.285
585.37	0.541
585.71	0.272
586.04	0.277
586.38	0.187
586.72	0.258
587.05	0.520
587.39	0.671
587.72	0.492
588.06	0.581
588.39	0.513
588.73	0.549
589.06	0.652
589.40	0.726
589.73	0.657
590.07	0.718
590.40	0.348
590.73	0.659
591.07	0.085
591.40	0.134
591.74	0.633
592.07	1.020
592.41	0.663
592.74	0.478
593.08	0.454
593.41	0.659
593.75	0.360
594.08	0.343
594.41	0.509
594.75	0.687
595.08	0.265
595.42	0.184
595.75	0.413
596.09	0.391
596.42	0.207
596.75	0.577
597.09	0.592
597.42	0.316
597.75	0.275
598.09	0.679
598.42	0.226
598.76	-0.129
599.09	0.801
599.42	0.493
599.76	0.564
600.09	0.264
600.42	0.644
600.76	0.111
601.09	0.153
601.42	0.274
601.76	0.238
602.09	-0.041
602.42	0.548
602.76	0.467
603.09	0.540
603.42	0.376
603.76	-0.121
604.09	0.081
604.42	0.550
604.76	0.801
605.09	0.777
605.42	0.993
605.75	0.088
606.09	0.340
606.42	0.209
606.75	0.390
607.09	1.011
607.42	0.133
607.75	0.178
608.08	0.404
608.42	1.325
608.75	0.578
609.08	0.399
609.41	0.203
609.75	0.605
610.08	0.499
610.41	0.483
610.74	0.975
611.07	0.672
611.41	0.986
611.74	1.279
612.07	0.535
612.40	0.821
612.73	0.169
613.07	-0.112
613.40	1.094
613.73	0.392
614.06	1.280
614.39	0.508
614.72	0.336
615.06	0.279
615.39	0.437
615.72	0.592
616.05	1.173
616.38	0.285
616.71	0.489
617.05	-0.062
617.38	0.440
617.71	-0.063
618.04	0.698
618.37	1.198
618.70	0.528
619.03	1.944
619.36	-0.217
619.69	0.758
620.03	1.972
620.36	0.644
620.69	1.071
621.02	0.841
621.35	0.747
621.68	0.595
622.01	0.750
622.34	1.117
622.67	0.789
623.00	0.995
623.33	0.229
623.66	0.748
623.99	1.286
624.32	0.532
624.65	-0.602
624.99	0.226
625.32	0.455
625.65	1.178
625.98	1.370
626.31	0.582
626.64	0.953
626.97	1.047
627.30	0.350
627.63	1.473
627.96	-0.180
628.29	1.203
628.62	1.082
628.95	0.200
629.28	-0.504
629.61	-0.598
629.94	0.489
630.26	0.198
630.59	0.624
630.92	0.615
631.25	-0.205
631.58	1.101
631.91	0.768
632.24	-0.573
632.57	1.364
632.90	-1.423
633.23	0.471
633.56	-0.252
633.89	-0.370
634.22	1.975
634.55	-0.635
634.88	-0.383
635.20	-0.385
635.53	0.133
635.86	-0.130
636.19	1.164
636.52	-0.638
636.85	0.000
637.18	-1.006
637.51	1.635
637.83	0.394
638.16	1.364
638.49	-0.272
638.82	2.105
639.15	-0.678
639.48	0.275
639.81	1.255
640.13	0.289
640.46	2.332
640.79	0.442
641.12	-0.148
641.45	0.150
641.77	0.593
642.10	0.948
642.43	0.000
642.76	-0.825
643.09	0.162
643.41	0.162
643.74	-0.329
644.07	1.970
644.40	1.689
644.73	1.576
645.05	0.000
645.38	-0.176
645.71	-0.532
646.04	-0.359
646.36	2.305
646.69	1.259
647.02	0.000
647.35	1.493
647.67	1.645
648.00	2.052
648.33	3.584
648.66	-0.508
648.98	-1.508
649.31	-0.331
649.64	-1.256
649.96	0.162
650.29	1.193
650.62	2.051
650.94	0.185
651.27	-2.235
651.60	1.802
651.92	1.748
652.25	-1.599
652.58	-0.667
652.90	1.201
653.23	1.008
653.56	-0.846
653.88	0.515
654.21	-2.627
654.54	1.019
654.86	0.170
655.19	0.000
655.52	0.542
655.84	0.508
656.17	0.562
656.49	0.725
656.82	0.894
657.15	0.588
657.47	0.460
657.80	0.324
658.13	0.370
658.45	0.099
658.78	0.395
659.10	0.505
659.43	0.723
659.75	0.839
660.08	0.207
660.41	1.328
660.73	1.381
661.06	2.253
661.38	1.370
661.71	0.000
662.03	2.361
662.36	2.198
662.68	-2.655
663.01	1.965
663.33	-2.088
663.66	0.000
663.98	1.395
664.31	3.198
664.63	-0.691
664.96	-2.391
665.28	-0.442
665.61	-1.299
665.93	1.957
666.26	2.169
666.58	-1.566
666.91	-0.235
667.23	3.066
667.56	-0.474
667.88	-3.357
668.21	1.671
668.53	1.418
668.86	1.415
669.18	-0.943
669.50	0.000
669.83	0.000
670.15	0.466
670.48	0.000
670.80	0.230
671.13	0.671
671.45	-1.142
671.77	2.361
672.10	0.198
672.42	0.375
672.75	2.487
673.07	3.936
673.39	2.202
673.72	-2.170
674.04	0.625
674.37	1.483
674.69	-1.285
675.01	0.000
675.34	0.000
675.66	3.472
675.98	2.882
676.31	2.294
676.63	-1.663
676.95	-0.455
677.28	1.412
677.60	3.614
677.92	0.229
678.25	1.313
678.57	-2.165
678.89	1.471
679.22	1.566
679.54	0.602
679.86	-0.398
680.18	2.136
680.51	0.189
680.83	-0.596
681.15	2.600
681.48	2.254
681.80	1.653
682.12	0.000
682.44	0.209
682.77	0.221
683.09	0.229
683.41	0.000
683.73	1.382
684.06	1.991
684.38	-2.151
684.70	-0.654
685.02	-1.867
685.34	0.395
685.67	0.000
685.99	2.351
686.31	0.708
686.63	0.557
686.96	0.380
687.28	-0.808
687.60	-0.190
687.92	2.626
688.24	2.016
688.56	0.000
688.89	0.000
689.21	3.333
689.53	-1.624
689.85	-0.698
690.17	3.348
690.49	1.182
690.82	-1.214
691.14	-0.952
691.46	-1.402
691.78	-1.577
692.10	2.796
692.42	1.515
692.74	0.214
693.06	-0.450
693.39	-0.226
693.71	0.452
694.03	-0.924
694.35	-1.402
694.67	2.525
694.99	0.000
695.31	3.394
695.63	0.750
695.95	0.000
696.27	1.813
696.59	3.056
696.91	-1.961
697.23	0.000
697.56	-0.248
697.88	2.151
698.20	0.228
698.52	0.000
698.84	-0.718
699.16	-1.000
699.48	2.005
699.80	0.744
700.12	2.965
700.44	0.280
700.76	-4.651
701.08	-1.818
701.40	3.012
701.72	4.630
702.04	1.980
702.36	3.679
702.68	2.102
703.00	-1.515
703.32	0.000
703.64	-0.565
703.96	2.029
704.28	3.988
704.60	2.222
704.91	-3.155
705.23	-1.329
705.55	3.180
705.87	1.805
706.19	3.333
706.51	1.718
706.83	2.572
707.15	-0.312
707.47	0.560
707.79	1.302
708.11	2.250
708.43	4.000
708.74	3.876
709.06	3.099
709.38	-1.529
709.70	1.479
710.02	0.637
710.34	4.334
710.66	-0.321
710.98	-3.311
711.29	2.951
711.61	3.051
711.93	5.212
712.25	4.811
712.57	3.297
712.89	-0.746
713.20	6.574
713.52	0.697
713.84	1.024
714.16	-1.718
714.48	0.000
714.80	1.923
715.11	0.608
715.43	-2.194
715.75	-1.667
716.07	1.329
716.39	2.013
716.70	1.107
717.02	-4.580
717.34	-0.405
717.66	-2.212
717.97	-2.174
718.29	-0.418
718.61	1.969
718.93	1.550
719.24	1.521
719.56	0.000
719.88	4.124
720.20	2.273
720.51	-1.149
720.83	1.158
721.15	0.420
721.46	0.403
721.78	-1.186
722.10	1.859
722.42	-2.075
722.73	1.224
723.05	5.306
723.37	3.390
723.68	2.703
724.00	1.282
724.32	0.000
724.63	0.455
724.95	0.437
725.27	-2.765
725.58	0.847
725.90	-3.175
726.22	-0.386
726.53	7.119
726.85	-0.375
727.16	5.283
727.48	-6.073
727.80	1.619
728.11	0.000
728.43	0.392
728.74	-3.226
729.06	0.800
729.38	7.143
729.69	-5.578
730.01	-1.154
730.32	7.463
730.64	5.654
730.96	-2.264
731.27	0.333
731.59	-1.695
731.90	-1.274
732.22	2.524
732.53	3.987
732.85	-0.355
733.16	1.347
733.48	-3.957
733.80	-1.449
734.11	-0.678
734.43	0.344
734.74	2.121
735.06	-0.651
735.37	4.834
735.69	1.684
736.00	-0.348
736.32	-1.678
736.63	2.113
736.95	1.706
737.26	0.712
737.58	2.685
737.89	-2.198
738.21	-1.504
738.52	6.173
738.83	3.930
739.15	-4.367
739.46	5.906
739.78	-3.297
740.09	3.595
740.41	-2.536
740.72	-1.181
741.04	3.644
741.35	-2.128
741.66	-0.948
741.98	0.000
742.29	0.000
742.61	1.047
742.92	-5.213
743.23	-1.389
743.55	3.620
743.86	-3.828
744.18	0.000
744.49	-2.660
744.80	-1.087
745.12	1.070
745.43	-1.951
745.74	4.688
746.06	3.415
746.37	1.047
746.68	1.422
747.00	-0.532
747.31	1.990
747.62	-1.456
747.94	6.699
748.25	0.000
748.56	-5.464
748.88	-1.571
749.19	7.979
749.50	-0.493
749.82	-4.717
750.13	-4.587
750.44	5.263
750.75	2.612
751.07	5.474
751.38	3.831
751.69	1.569
752.01	5.039
752.32	-3.586
752.63	1.186
752.94	0.000
753.26	9.205
753.57	0.000
753.88	2.655
754.19	-3.333
754.51	-5.372
754.82	-3.644
755.13	4.167
755.44	0.403
755.75	2.344
756.07	0.389
756.38	-0.755
756.69	-0.766
757.00	1.000
757.31	2.288
757.63	0.915
757.94	2.222
758.25	0.000
758.56	0.266
758.87	1.700
759.18	0.000
759.50	0.000
759.81	1.003
760.12	2.903
760.43	0.000
760.74	0.926
761.05	-0.308
761.36	4.261
761.67	6.061
761.99	5.442
762.30	0.000
762.61	5.929
762.92	0.452
763.23	0.901
763.54	-2.804
763.85	1.271
764.16	3.734
764.47	2.419
764.78	1.099
765.10	4.377
765.41	3.785
765.72	2.222
766.03	-6.015
766.34	6.569
766.65	3.586
766.96	0.000
767.27	0.000
767.58	-2.874
767.89	-11.348
768.20	3.977
768.51	3.846
768.82	4.926
769.13	-2.304
769.44	3.004
769.75	-1.826
770.06	3.448
770.37	0.962
770.68	-2.538
770.99	4.072
771.30	3.922
771.61	2.262
771.92	9.052
772.23	4.433
772.54	8.065
772.85	-2.469
773.16	1.685
773.47	5.882
773.78	5.229
774.09	2.994
774.39	-2.000
774.70	3.185
775.01	6.897
775.32	0.714
775.63	-7.438
775.94	-0.763
776.25	-1.575
776.56	-0.833
776.87	2.885
777.18	-5.128
777.48	-0.862
777.79	-6.087
778.10	-15.238
778.41	-2.703
778.72	3.175
779.03	1.504
779.34	5.674
779.65	6.164
779.95	-3.425
780.26	5.517
780.57	-8.130
780.88	1.575
781.19	-0.862
781.50	-2.326
781.80	0.000
782.11	-1.887
782.42	-1.538
782.73	-4.317
783.04	8.889
783.34	0.694
783.65	-11.966
783.96	-4.098
784.27	13.793
784.57	-7.317
784.88	6.250
785.19	13.000
785.50	8.000
785.81	-0.862
786.11	6.034
786.42	-6.796
786.73	4.545
787.04	5.102
787.34	6.250
787.65	0.952
787.96	8.850
788.26	2.727
788.57	-3.419
788.88	11.719
789.19	3.175
789.49	-2.609
789.80	-1.020
790.11	0.000
790.41	2.727
790.72	3.261
791.03	13.636
791.33	3.750
791.64	-1.250
791.95	2.326
792.25	6.383
792.56	19.101
792.87	12.329
793.17	-7.246
793.48	-2.667
793.79	7.500
794.09	-3.750
794.40	-3.774
794.70	0.971
795.01	2.439
795.32	5.983
795.62	-4.762
795.93	1.961
796.23	8.491
796.54	12.500
796.85	-7.353
797.15	9.859
797.46	8.333
797.76	12.121
798.07	9.302
798.37	0.000
798.68	-16.667
798.99	2.469
799.29	-2.857
799.60	-4.348
799.90	12.000
800.21	18.033
800.51	16.923
800.82	-8.475
801.12	8.696
801.43	-6.557
801.73	3.175
802.04	8.000
802.34	4.478
802.65	19.231
802.95	-3.571
803.26	-17.308
803.56	1.961
803.87	-17.391
804.17	13.333
804.48	15.873
804.78	-9.259
805.09	-8.696
805.39	-17.778
805.70	12.963
806.00	-19.298
806.30	21.127
806.61	10.000
806.91	-12.500
807.22	5.263
807.52	6.667
807.83	-5.455
808.13	1.389
808.43	0.000
808.74	2.985
809.04	-1.695
809.35	7.692
809.65	-9.375
809.95	-37.838
810.26	-13.636
810.56	16.438
810.86	-7.143
811.17	4.000
811.47	0.000
811.77	0.000
812.08	15.909
812.38	5.660
812.69	-12.500
812.99	-3.030
813.29	7.895
813.59	-22.857
813.90	18.182
814.20	-10.256
814.50	11.538
814.81	20.755
815.11	2.128
815.41	28.814
815.72	9.524
816.02	19.608
816.32	18.750
816.62	0.000
816.93	-2.703
817.23	-11.429
817.53	6.250
817.84	4.348
818.14	3.846
818.44	-18.421
818.74	21.739
819.04	-10.000
819.35	0.000
819.65	26.471
819.95	-11.111
820.25	-7.143
820.56	7.500
820.86	-37.931
821.16	20.000
821.46	2.128
821.76	10.000
822.07	-2.326
822.37	-35.135
822.67	6.250
822.97	30.952
823.27	10.714
823.57	-8.000
823.88	-25.926
824.18	35.714
824.48	-5.882
824.78	9.677
825.08	8.696
825.38	24.242
825.69	-29.167
825.99	23.684
826.29	8.333
826.59	-13.333
826.89	-61.905
827.19	4.348
827.49	10.000
827.79	-11.429
828.09	17.857
828.39	-15.152
828.70	59.459
829.00	-7.143
829.30	9.524
829.60	-10.000
829.90	18.750
830.20	10.526
830.50	3.704
830.80	-26.087
831.10	0.000
831.40	27.273
831.70	3.226
832.00	-28.571
832.30	-23.810
832.60	50.000
832.90	-3.448
833.20	-10.000
833.50	27.273
833.80	-3.704
834.10	46.154
834.40	-3.125
834.70	33.333
835.00	15.789
835.30	30.769
835.60	40.000
835.90	6.452
836.20	9.091
836.50	7.143
836.80	-30.769
837.10	-10.714
837.40	-233.333
837.70	4.545
838.00	-54.545
838.30	4.348
838.60	46.154
838.90	40.909
839.19	-10.714
839.49	-10.000
839.79	-92.308
840.09	-66.667
840.39	39.286
840.69	25.000
840.99	7.692
841.29	-57.895
841.59	-90.000
841.88	-45.455
842.18	-80.000
842.48	31.250
842.78	26.667
843.08	22.222
843.38	-10.000
843.68	43.478
843.97	46.667
844.27	-66.667
844.57	-55.000
844.87	-33.333
845.17	19.048
845.47	-13.333
845.76	33.333
846.06	23.529
846.36	-20.000
846.66	-35.714
846.96	33.333
847.25	-75.000
847.55	-28.571
847.85	125.000
848.15	27.273
848.44	-166.667
848.74	-10.000
849.04	11.111
849.34	9.091
849.63	-150.000
849.93	40.000
850.23	33.333
850.53	70.000
850.82	-30.769
851.12	-33.333
851.42	13.333
851.71	-26.923
852.01	35.714
852.31	-150.000
852.61	-45.455
852.90	5.000
853.20	15.789
853.50	-33.333
853.79	0.000
854.09	37.500
854.39	-21.053
854.68	4.167
854.98	32.258
855.28	61.538
855.57	5.000
855.87	33.333
856.17	70.370
856.46	21.429
856.76	6.667
857.05	-44.444
857.35	24.000
857.65	16.667
857.94	-46.154
858.24	37.931
858.53	11.111
858.83	40.741
859.13	40.909
859.42	8.696
859.72	-75.000
860.01	-100.000
860.31	56.000
860.60	33.333
860.90	-200.000
861.20	-33.333
861.49	-300.000
861.79	6.667
862.08	-35.000
862.38	106.667
862.67	-20.000
862.97	-83.333
863.26	50.000
863.56	11.111
863.85	-33.333
864.15	22.222
864.44	50.000
864.74	64.286
865.03	350.000
865.33	-140.000
865.62	-33.333
865.92	-50.000
866.21	-50.000
866.51	43.750
866.80	-90.909
867.10	-50.000
867.39	91.667
867.69	0.000
867.98	23.077
868.27	66.667
868.57	0.000
868.86	72.222
869.16	61.538
869.45	46.667
869.75	-400.000
870.04	0.000
870.33	0.000
870.63	52.381
870.92	433.333
871.22	-120.000
871.51	500.000
871.80	133.333
872.10	333.333
>>>>>End Processed Spectral Data<<<<<
