SpectraSuite Data File
++++++++++++++++++++++++++++++++++++
Date: Fri May 15 19:59:53 PDT 2015
User: schluterlab
Dark Spectrum Present: Yes
Reference Spectrum Present: Yes
Number of Sampled Component Spectra: 1
Spectrometers: USB2E3373
Integration Time (usec): 3000 (USB2E3373)
Spectra Averaged: 3 (USB2E3373)
Boxcar Smoothing: 0 (USB2E3373)
Correct for Electrical Dark: No (USB2E3373)
Strobe/Lamp Enabled: No (USB2E3373)
Correct for Detector Non-linearity: No (USB2E3373)
Correct for Stray Light: No (USB2E3373)
Number of Pixels in Processed Spectrum: 2048
>>>>>Begin Processed Spectral Data<<<<<
178.53	0.000
178.91	0.000
179.29	175.000
179.67	100.000
180.04	-42.857
180.42	175.000
180.80	200.000
181.18	-100.000
181.56	350.000
181.94	500.000
182.31	-1400.000
182.69	40.000
183.07	-366.667
183.45	60.000
183.83	166.667
184.20	-18.182
184.58	88.889
184.96	-300.000
185.34	-66.667
185.72	0.000
186.09	100.000
186.47	700.000
186.85	-33.333
187.23	44.444
187.61	400.000
187.98	-66.667
188.36	33.333
188.74	0.000
189.12	58.824
189.49	0.000
189.87	0.000
190.25	28.571
190.63	600.000
191.00	300.000
191.38	-5.263
191.76	300.000
192.14	-0.000
192.51	350.000
192.89	22.222
193.27	114.286
193.65	150.000
194.02	136.364
194.40	50.000
194.78	25.000
195.15	-33.333
195.53	-62.500
195.91	175.000
196.29	-75.000
196.66	84.615
197.04	28.571
197.42	111.111
197.79	-266.667
198.17	-23.077
198.55	300.000
198.92	-366.667
199.30	400.000
199.68	-120.000
200.05	66.667
200.43	0.000
200.81	0.000
201.18	-133.333
201.56	1200.000
201.94	-250.000
202.31	233.333
202.69	-140.000
203.07	-75.000
203.44	1000.000
203.82	0.000
204.19	71.429
204.57	-400.000
204.95	25.000
205.32	60.000
205.70	-28.571
206.08	250.000
206.45	188.889
206.83	78.571
207.20	28.571
207.58	200.000
207.96	166.667
208.33	-30.000
208.71	-75.000
209.08	-150.000
209.46	-300.000
209.84	-80.000
210.21	-600.000
210.59	14.286
210.96	50.000
211.34	50.000
211.71	93.333
212.09	0.000
212.46	-1400.000
212.84	0.000
213.22	10.000
213.59	500.000
213.97	115.385
214.34	136.364
214.72	33.333
215.09	550.000
215.47	-15.385
215.84	18.182
216.22	-266.667
216.59	37.500
216.97	250.000
217.34	0.000
217.72	140.000
218.09	62.500
218.47	162.500
218.84	-400.000
219.22	-11.111
219.59	40.000
219.97	233.333
220.34	175.000
220.72	114.286
221.09	75.000
221.47	400.000
221.84	-400.000
222.22	-650.000
222.59	109.091
222.97	83.333
223.34	66.667
223.72	21.429
224.09	76.190
224.46	50.000
224.84	33.333
225.21	-30.000
225.59	60.000
225.96	50.000
226.34	150.000
226.71	14.286
227.08	-50.000
227.46	25.000
227.83	100.000
228.21	55.556
228.58	0.000
228.95	62.500
229.33	30.000
229.70	6.250
230.08	-100.000
230.45	128.571
230.82	157.143
231.20	26.667
231.57	107.143
231.95	-14.286
232.32	-30.000
232.69	57.143
233.07	0.000
233.44	40.000
233.81	-100.000
234.19	66.667
234.56	-11.765
234.93	150.000
235.31	225.000
235.68	-240.000
236.05	-38.462
236.43	-10.000
236.80	-17.647
237.17	-18.750
237.55	-5.000
237.92	-7.407
238.29	8.333
238.67	13.333
239.04	2.941
239.41	-34.146
239.79	-13.333
240.16	26.829
240.53	15.789
240.91	-15.217
241.28	14.286
241.65	17.857
242.02	12.329
242.40	1.667
242.77	-3.390
243.14	1.515
243.51	1.250
243.89	19.540
244.26	-8.046
244.63	9.524
245.00	1.031
245.38	7.216
245.75	-6.742
246.12	0.000
246.49	1.653
246.87	0.962
247.24	0.840
247.61	0.000
247.98	1.626
248.36	-1.250
248.73	4.605
249.10	-4.545
249.47	-2.532
249.84	-1.961
250.22	0.588
250.59	2.614
250.96	7.512
251.33	-3.488
251.70	-0.588
252.08	6.091
252.45	0.990
252.82	-3.518
253.19	-2.765
253.56	-0.935
253.94	1.351
254.31	3.043
254.68	-0.877
255.05	0.394
255.42	1.310
255.79	3.475
256.16	-1.946
256.54	6.716
256.91	1.141
257.28	1.859
257.65	-1.124
258.02	0.355
258.39	4.040
258.76	1.099
259.14	3.987
259.51	3.560
259.88	1.031
260.25	2.614
260.62	2.778
260.99	-2.712
261.36	-2.055
261.73	-1.266
262.10	-0.912
262.47	2.147
262.85	-0.627
263.22	1.846
263.59	-1.558
263.96	-0.311
264.33	0.303
264.70	1.190
265.07	0.595
265.44	2.266
265.81	2.542
266.18	-0.273
266.55	2.828
266.92	0.777
267.29	0.261
267.66	0.767
268.03	2.356
268.40	-0.783
268.77	2.406
269.14	3.118
269.51	2.314
269.88	0.000
270.25	-2.296
270.62	-0.732
270.99	-0.512
271.36	0.000
271.73	2.113
272.10	1.946
272.47	0.473
272.84	1.238
273.21	4.176
273.58	1.928
273.95	2.975
274.32	0.231
274.69	-1.131
275.06	2.232
275.43	0.454
275.80	2.428
276.17	1.609
276.54	1.499
276.91	1.096
277.28	-0.218
277.65	1.860
278.02	2.340
278.39	-1.094
278.76	-0.210
279.13	-0.415
279.50	1.891
279.87	0.000
280.23	0.215
280.60	3.119
280.97	-0.808
281.34	0.385
281.71	1.232
282.08	0.409
282.45	-0.391
282.82	0.965
283.19	-0.193
283.56	1.927
283.92	-0.569
284.29	0.577
284.66	1.744
285.03	-0.589
285.40	1.890
285.77	-1.054
286.14	0.903
286.51	0.369
286.87	0.183
287.24	0.368
287.61	-0.705
287.98	1.754
288.35	-1.386
288.72	1.576
289.08	0.347
289.45	0.703
289.82	0.699
290.19	1.365
290.56	0.686
290.93	-0.673
291.29	0.616
291.66	-0.315
292.03	-0.159
292.40	1.613
292.77	0.957
293.13	-0.649
293.50	0.607
293.87	0.611
294.24	-0.773
294.60	0.447
294.97	2.530
295.34	1.994
295.71	0.149
296.08	-0.448
296.44	-0.284
296.81	0.278
297.18	1.014
297.55	1.762
297.91	1.233
298.28	1.847
298.65	0.678
299.02	0.000
299.38	-1.094
299.75	0.690
300.12	0.654
300.48	-0.395
300.85	1.521
301.22	-0.779
301.59	0.132
301.95	1.519
302.32	0.908
302.69	1.119
303.05	0.743
303.42	1.494
303.79	0.935
304.15	0.119
304.52	-0.951
304.89	-0.351
305.25	-0.363
305.62	-0.117
305.99	0.702
306.35	-0.925
306.72	0.450
307.09	0.570
307.45	0.918
307.82	-0.463
308.19	1.161
308.55	0.436
308.92	1.852
309.29	0.112
309.65	0.969
310.02	0.110
310.38	0.220
310.75	-0.328
311.12	0.323
311.48	0.636
311.85	1.257
312.22	0.105
312.58	0.425
312.95	0.213
313.31	-0.518
313.68	0.209
314.05	-0.306
314.41	0.619
314.78	-0.309
315.14	0.411
315.51	0.518
315.87	0.820
316.24	1.314
316.61	1.280
316.97	1.587
317.34	-0.195
317.70	0.765
318.07	0.769
318.43	0.196
318.80	1.326
319.16	0.684
319.53	1.994
319.89	0.492
320.26	0.202
320.62	1.103
320.99	0.000
321.35	1.644
321.72	0.831
322.08	0.504
322.45	1.015
322.81	0.393
323.18	0.393
323.54	1.158
323.91	1.753
324.27	0.684
324.64	1.124
325.00	1.277
325.37	1.561
325.73	1.088
326.10	0.908
326.46	1.256
326.83	1.312
327.19	2.005
327.56	0.782
327.92	1.761
328.29	0.536
328.65	1.509
329.01	1.562
329.38	2.212
329.74	0.661
330.11	2.688
330.47	1.206
330.84	-0.192
331.20	2.471
331.56	1.759
331.93	2.009
332.29	1.742
332.66	1.086
333.02	1.208
333.38	0.275
333.75	2.106
334.11	0.090
334.48	1.904
334.84	1.923
335.20	2.653
335.57	0.544
335.93	1.536
336.29	2.026
336.66	0.727
337.02	1.022
337.38	0.000
337.75	1.364
338.11	1.443
338.47	1.916
338.84	0.277
339.20	1.463
339.56	1.560
339.93	2.238
340.29	1.468
340.65	2.419
341.02	1.773
341.38	1.504
341.74	0.972
342.11	1.213
342.47	1.157
342.83	2.163
343.20	1.481
343.56	1.565
343.92	0.354
344.28	1.879
344.65	0.777
345.01	0.259
345.37	1.262
345.73	1.757
346.10	1.898
346.46	1.598
346.82	1.718
347.19	1.164
347.55	1.671
347.91	2.346
348.27	2.183
348.63	2.129
349.00	1.395
349.36	1.330
349.72	1.741
350.08	2.213
350.45	2.713
350.81	1.661
351.17	0.570
351.53	2.612
351.89	0.743
352.26	0.640
352.62	2.339
352.98	2.410
353.34	1.369
353.70	2.346
354.07	2.984
354.43	1.601
354.79	1.156
355.15	2.937
355.51	2.611
355.87	2.023
356.24	0.489
356.60	1.859
356.96	2.063
357.32	1.997
357.68	1.720
358.04	0.727
358.40	1.849
358.77	1.994
359.13	0.961
359.49	0.924
359.85	1.170
360.21	1.116
360.57	2.066
360.93	1.967
361.29	1.133
361.66	1.332
362.02	2.500
362.38	1.980
362.74	1.590
363.10	2.032
363.46	1.038
363.82	3.005
364.18	2.066
364.54	1.103
364.90	1.219
365.26	0.946
365.62	2.409
365.98	2.493
366.35	2.403
366.71	2.069
367.07	2.250
367.43	1.869
367.79	1.908
368.15	1.651
368.51	2.403
368.87	1.149
369.23	1.011
369.59	1.749
369.95	2.639
370.31	2.095
370.67	3.060
371.03	1.792
371.39	1.751
371.75	2.637
372.11	2.282
372.47	1.849
372.83	2.271
373.19	2.425
373.55	1.300
373.91	2.664
374.27	2.055
374.63	2.513
374.99	2.270
375.35	1.532
375.71	2.448
376.07	1.475
376.42	2.381
376.78	1.611
377.14	2.505
377.50	1.394
377.86	1.740
378.22	1.723
378.58	2.115
378.94	1.008
379.30	2.495
379.66	3.072
380.02	2.207
380.38	1.278
380.74	1.257
381.09	2.270
381.45	1.896
381.81	1.851
382.17	2.221
382.53	1.749
382.89	1.758
383.25	2.676
383.61	3.232
383.97	1.016
384.32	2.314
384.68	2.477
385.04	1.287
385.40	1.867
385.76	2.704
386.12	2.458
386.48	3.001
386.83	1.522
387.19	2.869
387.55	2.321
387.91	1.650
388.27	2.259
388.62	2.769
388.98	2.026
389.34	2.498
389.70	4.102
390.06	2.329
390.42	2.655
390.77	2.093
391.13	2.081
391.49	1.940
391.85	2.924
392.20	2.385
392.56	2.734
392.92	3.171
393.28	3.361
393.64	2.222
393.99	3.448
394.35	2.340
394.71	2.746
395.07	2.388
395.42	2.429
395.78	2.410
396.14	2.333
396.50	2.663
396.85	2.962
397.21	3.258
397.57	3.072
397.92	3.475
398.28	2.931
398.64	2.470
399.00	2.878
399.35	2.652
399.71	3.676
400.07	2.721
400.42	2.999
400.78	3.919
401.14	3.267
401.49	3.038
401.85	2.194
402.21	3.133
402.57	3.500
402.92	2.572
403.28	3.321
403.63	3.405
403.99	2.997
404.35	3.623
404.70	2.738
405.06	2.996
405.42	3.667
405.77	2.382
406.13	2.270
406.49	3.138
406.84	2.934
407.20	3.070
407.55	2.318
407.91	2.874
408.27	2.932
408.62	3.692
408.98	3.574
409.34	3.284
409.69	3.101
410.05	3.510
410.40	3.148
410.76	2.774
411.11	3.687
411.47	3.945
411.83	2.825
412.18	2.703
412.54	2.684
412.89	2.894
413.25	3.309
413.60	3.665
413.96	4.049
414.31	3.720
414.67	2.502
415.03	2.929
415.38	3.460
415.74	3.974
416.09	3.592
416.45	3.646
416.80	3.635
417.16	3.039
417.51	3.598
417.87	3.911
418.22	4.016
418.58	3.144
418.93	3.824
419.29	2.625
419.64	3.370
420.00	3.778
420.35	3.343
420.71	3.645
421.06	2.947
421.42	3.906
421.77	3.468
422.12	3.859
422.48	3.736
422.83	3.944
423.19	4.007
423.54	3.057
423.90	3.121
424.25	3.617
424.61	3.733
424.96	4.297
425.31	4.275
425.67	3.404
426.02	3.769
426.38	3.632
426.73	3.571
427.09	3.861
427.44	4.824
427.79	3.536
428.15	3.701
428.50	3.452
428.85	3.686
429.21	3.962
429.56	3.989
429.92	4.520
430.27	3.810
430.62	3.659
430.98	3.662
431.33	4.259
431.68	3.663
432.04	3.410
432.39	3.651
432.74	3.909
433.10	4.828
433.45	4.182
433.80	3.598
434.16	3.213
434.51	3.817
434.86	4.472
435.22	4.543
435.57	4.117
435.92	3.653
436.28	4.413
436.63	4.450
436.98	3.302
437.34	3.630
437.69	3.995
438.04	3.932
438.39	3.177
438.75	3.643
439.10	3.905
439.45	4.260
439.81	3.670
440.16	4.572
440.51	4.836
440.86	4.653
441.22	4.072
441.57	4.029
441.92	4.512
442.27	4.157
442.63	4.979
442.98	4.308
443.33	3.784
443.68	4.244
444.03	4.173
444.39	4.329
444.74	3.902
445.09	4.176
445.44	4.615
445.79	4.332
446.15	4.626
446.50	3.882
446.85	4.463
447.20	4.484
447.55	4.297
447.91	3.440
448.26	5.236
448.61	4.778
448.96	3.500
449.31	4.335
449.66	4.646
450.02	4.278
450.37	3.616
450.72	4.238
451.07	4.241
451.42	4.619
451.77	4.882
452.12	4.486
452.47	4.121
452.83	3.651
453.18	4.111
453.53	4.425
453.88	4.007
454.23	4.425
454.58	4.408
454.93	4.575
455.28	3.937
455.63	4.898
455.98	5.412
456.34	4.278
456.69	4.511
457.04	5.041
457.39	4.617
457.74	4.353
458.09	4.002
458.44	4.096
458.79	3.866
459.14	4.805
459.49	5.194
459.84	4.963
460.19	4.612
460.54	4.523
460.89	4.091
461.24	4.534
461.59	5.285
461.94	4.214
462.29	4.946
462.64	5.249
462.99	4.875
463.34	4.242
463.69	4.376
464.04	4.661
464.39	4.427
464.74	4.663
465.09	4.866
465.44	4.962
465.79	3.968
466.14	5.017
466.49	4.255
466.84	4.997
467.19	5.319
467.54	5.556
467.89	4.422
468.24	4.136
468.59	5.206
468.94	3.873
469.29	4.852
469.64	4.990
469.99	5.536
470.34	3.413
470.68	3.654
471.03	5.379
471.38	4.779
471.73	5.112
472.08	4.681
472.43	3.691
472.78	3.907
473.13	4.626
473.48	4.560
473.83	4.545
474.17	4.663
474.52	4.531
474.87	4.848
475.22	3.905
475.57	4.461
475.92	4.772
476.27	4.657
476.61	4.514
476.96	4.462
477.31	5.192
477.66	4.831
478.01	4.773
478.36	3.922
478.70	4.513
479.05	5.110
479.40	4.187
479.75	4.380
480.10	4.250
480.45	4.750
480.79	5.086
481.14	4.355
481.49	4.532
481.84	4.102
482.19	4.630
482.53	4.652
482.88	4.248
483.23	3.887
483.58	4.575
483.92	4.743
484.27	4.467
484.62	4.437
484.97	4.104
485.31	4.227
485.66	4.406
486.01	4.891
486.36	4.574
486.70	4.739
487.05	4.668
487.40	4.628
487.75	4.423
488.09	4.357
488.44	4.814
488.79	4.483
489.13	4.968
489.48	4.275
489.83	4.484
490.17	4.045
490.52	4.434
490.87	4.257
491.22	4.489
491.56	4.127
491.91	4.398
492.26	4.132
492.60	4.319
492.95	4.624
493.30	4.592
493.64	4.862
493.99	4.783
494.34	4.369
494.68	4.333
495.03	3.844
495.37	4.661
495.72	3.988
496.07	4.780
496.41	4.670
496.76	3.685
497.11	4.099
497.45	4.916
497.80	4.692
498.14	4.521
498.49	4.165
498.84	4.741
499.18	4.468
499.53	4.415
499.87	3.940
500.22	3.759
500.56	4.337
500.91	4.016
501.26	4.202
501.60	3.984
501.95	4.367
502.29	3.971
502.64	4.295
502.98	4.144
503.33	3.314
503.67	4.048
504.02	4.643
504.36	4.354
504.71	4.141
505.06	4.429
505.40	4.416
505.75	4.588
506.09	3.801
506.44	4.723
506.78	5.000
507.13	4.085
507.47	4.178
507.82	2.938
508.16	4.596
508.51	4.827
508.85	4.814
509.19	3.619
509.54	4.343
509.88	4.099
510.23	3.927
510.57	4.115
510.92	3.518
511.26	3.764
511.61	4.125
511.95	4.548
512.30	4.324
512.64	4.730
512.98	3.593
513.33	4.309
513.67	3.980
514.02	4.348
514.36	5.029
514.70	4.254
515.05	4.230
515.39	4.073
515.74	4.910
516.08	4.304
516.42	4.535
516.77	4.506
517.11	3.620
517.46	4.548
517.80	4.231
518.14	4.164
518.49	3.726
518.83	4.253
519.17	4.124
519.52	3.316
519.86	4.442
520.20	4.617
520.55	3.002
520.89	4.768
521.23	3.927
521.58	4.858
521.92	4.359
522.26	4.229
522.61	3.961
522.95	4.437
523.29	4.574
523.64	4.574
523.98	4.213
524.32	3.222
524.66	5.058
525.01	4.351
525.35	4.666
525.69	3.704
526.04	3.373
526.38	4.734
526.72	3.663
527.06	4.280
527.41	5.013
527.75	3.686
528.09	4.319
528.43	4.929
528.78	4.158
529.12	4.194
529.46	4.029
529.80	5.003
530.15	4.422
530.49	3.098
530.83	4.378
531.17	3.291
531.51	4.651
531.86	3.671
532.20	3.758
532.54	4.289
532.88	4.791
533.22	3.965
533.57	4.653
533.91	3.525
534.25	4.622
534.59	3.015
534.93	3.902
535.27	2.982
535.62	3.759
535.96	4.697
536.30	4.222
536.64	4.618
536.98	3.833
537.32	5.548
537.66	4.278
538.01	4.476
538.35	3.606
538.69	4.394
539.03	4.238
539.37	4.307
539.71	4.090
540.05	4.209
540.39	3.947
540.73	4.045
541.07	4.558
541.42	5.175
541.76	4.405
542.10	3.992
542.44	3.614
542.78	3.097
543.12	4.190
543.46	4.520
543.80	4.511
544.14	3.071
544.48	4.997
544.82	4.033
545.16	3.825
545.50	4.873
545.84	4.462
546.18	5.816
546.52	4.398
546.86	4.313
547.20	4.864
547.54	3.534
547.88	4.823
548.22	3.813
548.56	4.551
548.90	4.784
549.24	4.063
549.58	4.513
549.92	4.217
550.26	4.322
550.60	4.535
550.94	4.332
551.28	3.555
551.62	4.385
551.96	4.812
552.30	3.436
552.64	4.020
552.98	4.290
553.32	3.852
553.66	4.064
554.00	4.161
554.34	4.579
554.68	3.982
555.02	5.060
555.36	3.441
555.69	3.810
556.03	3.783
556.37	3.274
556.71	4.043
557.05	4.400
557.39	4.164
557.73	3.823
558.07	4.827
558.41	3.982
558.75	3.819
559.08	4.334
559.42	3.492
559.76	3.763
560.10	4.281
560.44	3.723
560.78	4.196
561.12	4.302
561.45	3.935
561.79	4.692
562.13	4.045
562.47	2.806
562.81	4.611
563.15	4.584
563.48	4.738
563.82	4.804
564.16	5.153
564.50	4.459
564.84	4.618
565.17	4.091
565.51	4.850
565.85	4.252
566.19	4.576
566.52	3.552
566.86	4.949
567.20	3.674
567.54	3.893
567.88	5.038
568.21	4.129
568.55	3.750
568.89	4.774
569.23	4.141
569.56	4.116
569.90	4.791
570.24	4.243
570.57	4.327
570.91	4.671
571.25	4.308
571.59	4.485
571.92	4.800
572.26	3.925
572.60	4.155
572.93	4.581
573.27	4.169
573.61	4.385
573.95	4.397
574.28	4.131
574.62	4.373
574.96	4.513
575.29	4.366
575.63	4.068
575.97	4.283
576.30	4.554
576.64	4.265
576.98	4.607
577.31	4.571
577.65	4.427
577.98	4.607
578.32	4.546
578.66	4.234
578.99	4.469
579.33	4.072
579.67	4.340
580.00	4.430
580.34	4.577
580.67	4.476
581.01	4.011
581.35	4.888
581.68	4.290
582.02	4.349
582.35	4.253
582.69	4.383
583.02	4.273
583.36	4.235
583.70	4.465
584.03	4.254
584.37	4.687
584.70	4.560
585.04	4.171
585.37	4.717
585.71	4.024
586.04	4.337
586.38	4.241
586.72	4.476
587.05	4.448
587.39	4.501
587.72	4.647
588.06	4.428
588.39	4.358
588.73	4.945
589.06	4.860
589.40	4.666
589.73	5.075
590.07	4.721
590.40	4.605
590.73	4.201
591.07	4.156
591.40	4.319
591.74	4.796
592.07	5.056
592.41	4.814
592.74	4.580
593.08	4.645
593.41	4.481
593.75	4.547
594.08	4.463
594.41	4.585
594.75	4.160
595.08	4.427
595.42	4.343
595.75	4.619
596.09	4.848
596.42	4.217
596.75	4.485
597.09	4.465
597.42	4.517
597.75	4.260
598.09	4.799
598.42	4.468
598.76	4.247
599.09	4.447
599.42	4.433
599.76	4.929
600.09	4.186
600.42	4.663
600.76	4.309
601.09	4.046
601.42	4.230
601.76	4.486
602.09	4.043
602.42	5.139
602.76	4.160
603.09	4.942
603.42	4.599
603.76	4.315
604.09	4.455
604.42	4.526
604.76	4.584
605.09	4.113
605.42	4.379
605.75	4.510
606.09	4.416
606.42	4.212
606.75	4.329
607.09	5.538
607.42	4.298
607.75	4.485
608.08	4.358
608.42	5.528
608.75	4.530
609.08	3.687
609.41	4.061
609.75	4.032
610.08	4.443
610.41	4.638
610.74	4.388
611.07	4.548
611.41	4.048
611.74	5.064
612.07	3.587
612.40	4.540
612.73	4.181
613.07	3.825
613.40	4.923
613.73	3.861
614.06	5.064
614.39	4.738
614.72	4.314
615.06	3.911
615.39	4.258
615.72	4.521
616.05	4.078
616.38	3.989
616.71	4.343
617.05	4.571
617.38	4.840
617.71	4.151
618.04	4.254
618.37	5.044
618.70	5.083
619.03	4.653
619.36	3.763
619.69	4.625
620.03	5.040
620.36	3.505
620.69	4.283
621.02	4.740
621.35	4.481
621.68	3.486
622.01	4.833
622.34	4.948
622.67	4.416
623.00	5.436
623.33	3.963
623.66	3.964
623.99	4.009
624.32	4.639
624.65	3.233
624.99	4.439
625.32	3.791
625.65	4.635
625.98	4.835
626.31	3.574
626.64	4.159
626.97	4.363
627.30	4.116
627.63	5.199
627.96	4.043
628.29	4.440
628.62	4.228
628.95	4.108
629.28	2.923
629.61	4.686
629.94	4.301
630.26	4.447
630.59	5.723
630.92	3.897
631.25	3.179
631.58	4.956
631.91	3.180
632.24	3.670
632.57	3.977
632.90	3.321
633.23	4.118
633.56	2.897
633.89	4.069
634.22	4.691
634.55	2.033
634.88	3.193
635.20	4.359
635.53	3.067
635.86	2.341
636.19	4.398
636.52	3.699
636.85	3.350
637.18	3.019
637.51	4.403
637.83	4.205
638.16	6.412
638.49	2.316
638.82	6.447
639.15	3.121
639.48	4.264
639.81	5.858
640.13	3.608
640.46	3.790
640.79	2.946
641.12	2.363
641.45	3.153
641.77	4.741
642.10	4.897
642.43	2.412
642.76	4.455
643.09	5.170
643.41	4.531
643.74	1.977
644.07	4.269
644.40	5.405
644.73	4.203
645.05	4.195
645.38	4.056
645.71	4.255
646.04	5.027
646.36	4.610
646.69	4.496
647.02	4.159
647.35	2.985
647.67	5.484
648.00	4.664
648.33	6.143
648.66	4.407
648.98	1.173
649.31	2.810
649.64	4.710
649.96	1.621
650.29	4.089
650.62	4.274
650.94	2.963
651.27	1.490
651.60	3.964
651.92	6.119
652.25	1.776
652.58	4.167
652.90	3.945
653.23	3.697
653.56	3.553
653.88	3.952
654.21	1.751
654.54	4.924
654.86	2.547
655.19	3.216
655.52	5.341
655.84	4.742
656.17	5.280
656.49	7.026
656.82	7.334
657.15	5.342
657.47	3.952
657.80	2.923
658.13	2.820
658.45	4.197
658.78	4.180
659.10	4.153
659.43	4.087
659.75	3.503
660.08	4.345
660.41	4.290
660.73	5.663
661.06	5.546
661.38	4.110
661.71	0.821
662.03	4.936
662.36	4.835
662.68	5.752
663.01	6.332
663.33	0.928
663.66	-1.395
663.98	2.326
664.31	4.904
664.63	2.074
664.96	0.870
665.28	1.766
665.61	3.680
665.93	5.000
666.26	4.121
666.58	1.342
666.91	3.059
667.23	5.660
667.56	3.318
667.88	4.077
668.21	3.103
668.53	4.255
668.86	4.717
669.18	3.538
669.50	-0.242
669.83	4.651
670.15	3.030
670.48	3.349
670.80	2.304
671.13	4.698
671.45	-0.228
671.77	5.365
672.10	4.752
672.42	6.554
672.75	3.908
673.07	6.082
673.39	4.587
673.72	1.775
674.04	2.708
674.37	4.449
674.69	4.497
675.01	4.444
675.34	4.054
675.66	4.398
675.98	4.435
676.31	5.046
676.63	1.663
676.95	2.500
677.28	5.412
677.60	3.133
677.92	1.376
678.25	6.783
678.57	2.381
678.89	5.042
679.22	3.803
679.54	3.815
679.86	3.777
680.18	6.019
680.51	3.788
680.83	2.187
681.15	3.800
681.48	5.943
681.80	4.545
682.12	2.419
682.44	2.929
682.77	3.753
683.09	4.348
683.41	1.136
683.73	4.147
684.06	4.204
684.38	3.011
684.70	5.664
685.02	3.320
685.34	4.348
685.67	2.439
685.99	5.606
686.31	4.071
686.63	3.711
686.96	2.852
687.28	-0.404
687.60	3.422
687.92	6.263
688.24	4.839
688.56	5.022
688.89	3.795
689.21	5.556
689.53	2.088
689.85	3.953
690.17	3.795
690.49	4.019
690.82	4.369
691.14	3.095
691.46	1.402
691.78	2.928
692.10	4.301
692.42	4.545
692.74	7.265
693.06	3.604
693.39	2.036
693.71	1.131
694.03	3.002
694.35	4.907
694.67	3.788
694.99	3.133
695.31	1.567
695.63	6.250
695.95	5.051
696.27	0.518
696.59	4.444
696.91	3.081
697.23	5.398
697.56	3.960
697.88	5.806
698.20	4.100
698.52	3.765
698.84	4.306
699.16	2.250
699.48	5.263
699.80	4.715
700.12	3.504
700.44	5.882
700.76	1.163
701.08	3.333
701.40	5.120
701.72	9.259
702.04	0.660
702.36	2.676
702.68	4.204
703.00	2.727
703.32	3.226
703.64	0.282
703.96	3.478
704.28	2.147
704.60	3.492
704.91	3.155
705.23	3.322
705.55	7.067
705.87	6.137
706.19	1.111
706.51	7.560
706.83	7.717
707.15	0.935
707.47	5.042
707.79	4.167
708.11	6.500
708.43	4.000
708.74	4.134
709.06	5.915
709.38	4.281
709.70	5.917
710.02	5.096
710.34	7.430
710.66	-1.923
710.98	1.987
711.29	6.885
711.61	3.729
711.93	3.583
712.25	10.653
712.57	2.198
712.89	1.866
713.20	6.228
713.52	4.530
713.84	5.461
714.16	1.718
714.48	3.871
714.80	2.244
715.11	4.255
715.43	1.567
715.75	-0.667
716.07	4.319
716.39	3.020
716.70	4.797
717.02	-0.382
717.34	6.073
717.66	1.770
717.97	1.304
718.29	2.510
718.61	3.543
718.93	3.101
719.24	7.985
719.56	2.811
719.88	5.155
720.20	4.167
720.51	4.598
720.83	-2.703
721.15	5.882
721.46	3.226
721.78	1.186
722.10	2.602
722.42	-3.734
722.73	2.857
723.05	6.122
723.37	8.051
723.68	5.405
724.00	3.419
724.32	0.444
724.63	4.545
724.95	2.183
725.27	3.687
725.58	3.814
725.90	1.587
726.22	3.475
726.53	8.475
726.85	3.371
727.16	9.811
727.48	1.215
727.80	6.883
728.11	3.390
728.43	5.490
728.74	-0.403
729.06	3.200
729.38	9.023
729.69	1.195
730.01	1.538
730.32	5.970
730.64	5.654
730.96	6.792
731.27	6.667
731.59	1.695
731.90	4.777
732.22	9.148
732.53	7.641
732.85	5.319
733.16	6.061
733.48	3.237
733.80	3.986
734.11	3.729
734.43	3.780
734.74	4.242
735.06	2.932
735.37	3.625
735.69	5.724
736.00	2.439
736.32	3.691
736.63	5.634
736.95	6.826
737.26	1.068
737.58	4.362
737.89	0.733
738.21	8.647
738.52	4.527
738.83	0.873
739.15	-2.620
739.46	3.150
739.78	4.029
740.09	5.556
740.41	7.609
740.72	-0.787
741.04	9.312
741.35	3.830
741.66	4.739
741.98	2.041
742.29	9.901
742.61	0.000
742.92	-2.844
743.23	-1.852
743.55	-0.905
743.86	4.306
744.18	-3.349
744.49	2.128
744.80	4.348
745.12	6.952
745.43	6.341
745.74	3.125
746.06	5.366
746.37	3.665
746.68	4.265
747.00	5.319
747.31	4.975
747.62	1.456
747.94	3.349
748.25	3.465
748.56	3.825
748.88	4.712
749.19	4.787
749.50	5.911
749.82	-1.887
750.13	0.917
750.44	3.008
750.75	4.851
751.07	8.029
751.38	3.831
751.69	0.784
752.01	2.713
752.32	5.976
752.63	-0.791
752.94	-1.293
753.26	13.808
753.57	2.715
753.88	-0.442
754.19	2.917
754.51	3.719
754.82	2.024
755.13	5.833
755.44	5.242
755.75	5.859
756.07	6.615
756.38	3.396
756.69	0.383
757.00	2.333
757.31	3.595
757.63	2.439
757.94	6.667
758.25	3.562
758.56	1.064
758.87	3.966
759.18	4.361
759.50	3.636
759.81	5.686
760.12	3.548
760.43	3.939
760.74	4.630
761.05	6.154
761.36	4.830
761.67	6.061
761.99	9.184
762.30	3.636
762.61	5.534
762.92	2.262
763.23	2.703
763.54	3.271
763.85	5.508
764.16	2.905
764.47	0.403
764.78	2.198
765.10	3.704
765.41	2.208
765.72	6.032
766.03	-3.383
766.34	3.285
766.65	7.171
766.96	0.000
767.27	3.191
767.58	4.598
767.89	0.709
768.20	1.705
768.51	4.396
768.82	5.911
769.13	-0.461
769.44	1.717
769.75	-1.370
770.06	9.483
770.37	2.885
770.68	3.046
770.99	1.357
771.30	6.373
771.61	3.167
771.92	3.448
772.23	5.419
772.54	6.989
772.85	-1.852
773.16	6.742
773.47	11.765
773.78	9.150
774.09	0.599
774.39	-3.333
774.70	12.102
775.01	6.897
775.32	14.286
775.63	4.132
775.94	6.870
776.25	9.449
776.56	-4.167
776.87	-13.462
777.18	0.000
777.48	8.621
777.79	0.000
778.10	-4.762
778.41	3.604
778.72	4.762
779.03	17.293
779.34	7.092
779.65	11.644
779.95	-0.685
780.26	11.724
780.57	7.317
780.88	3.937
781.19	1.724
781.50	1.550
781.80	5.325
782.11	-1.258
782.42	-3.846
782.73	9.353
783.04	-0.741
783.34	3.472
783.65	-4.274
783.96	3.279
784.27	10.345
784.57	5.691
784.88	3.906
785.19	9.000
785.50	7.000
785.81	0.000
786.11	-1.724
786.42	1.942
786.73	14.545
787.04	-6.122
787.34	8.036
787.65	1.905
787.96	7.965
788.26	2.727
788.57	-3.419
788.88	0.781
789.19	2.381
789.49	5.217
789.80	-9.184
790.11	0.000
790.41	4.545
790.72	16.304
791.03	0.000
791.33	1.250
791.64	5.000
791.95	4.651
792.25	13.830
792.56	22.472
792.87	-9.589
793.17	2.899
793.48	-14.667
793.79	1.250
794.09	2.500
794.40	-0.943
794.70	1.942
795.01	-1.626
795.32	4.274
795.62	3.810
795.93	4.902
796.23	2.830
796.54	12.500
796.85	10.294
797.15	-4.225
797.46	1.389
797.76	-7.576
798.07	-6.977
798.37	2.632
798.68	-4.545
798.99	13.580
799.29	25.714
799.60	4.348
799.90	6.667
800.21	3.279
800.51	0.000
800.82	20.339
801.12	10.145
801.43	9.836
801.73	12.698
802.04	-10.000
802.34	10.448
802.65	11.538
802.95	-3.571
803.26	1.923
803.56	25.490
803.87	-39.130
804.17	20.000
804.48	23.810
804.78	14.815
805.09	0.000
805.39	-20.000
805.70	12.963
806.00	-7.018
806.30	1.408
806.61	11.429
806.91	-9.722
807.22	14.474
807.52	14.667
807.83	-3.636
808.13	-4.167
808.43	8.824
808.74	1.493
809.04	0.000
809.35	-25.000
809.65	6.250
809.95	-45.946
810.26	-25.000
810.56	4.110
810.86	0.000
811.17	10.000
811.47	0.000
811.77	-23.684
812.08	29.545
812.38	11.321
812.69	-30.000
812.99	0.000
813.29	5.263
813.59	-31.429
813.90	20.455
814.20	-23.077
814.50	-1.923
814.81	3.774
815.11	-14.894
815.41	22.034
815.72	16.667
816.02	9.804
816.32	16.667
816.62	0.000
816.93	-5.405
817.23	-22.857
817.53	10.417
817.84	6.522
818.14	19.231
818.44	-44.737
818.74	6.522
819.04	-10.000
819.35	2.703
819.65	-11.765
819.95	19.444
820.25	4.762
820.56	10.000
820.86	-41.379
821.16	30.000
821.46	4.255
821.76	5.000
822.07	-2.326
822.37	-2.703
822.67	-12.500
822.97	19.048
823.27	-14.286
823.57	-8.000
823.88	22.222
824.18	-14.286
824.48	8.824
824.78	32.258
825.08	8.696
825.38	15.152
825.69	-45.833
825.99	2.632
826.29	2.778
826.59	-60.000
826.89	-19.048
827.19	13.043
827.49	-2.500
827.79	51.429
828.09	0.000
828.39	27.273
828.70	51.351
829.00	0.000
829.30	-19.048
829.60	13.333
829.90	21.875
830.20	5.263
830.50	-37.037
830.80	-26.087
831.10	0.000
831.40	36.364
831.70	22.581
832.00	0.000
832.30	-33.333
832.60	-8.333
832.90	3.448
833.20	-10.000
833.50	15.152
833.80	11.111
834.10	26.923
834.40	28.125
834.70	-88.889
835.00	5.263
835.30	38.462
835.60	0.000
835.90	19.355
836.20	-18.182
836.50	14.286
836.80	-34.615
837.10	21.429
837.40	66.667
837.70	18.182
838.00	-36.364
838.30	26.087
838.60	-7.692
838.90	59.091
839.19	17.857
839.49	16.667
839.79	-23.077
840.09	-25.000
840.39	107.143
840.69	-14.286
840.99	-7.692
841.29	0.000
841.59	50.000
841.88	9.091
842.18	10.000
842.48	0.000
842.78	-66.667
843.08	0.000
843.38	-160.000
843.68	4.348
843.97	-6.667
844.27	-33.333
844.57	-15.000
844.87	-27.778
845.17	-38.095
845.47	-13.333
845.76	9.524
846.06	52.941
846.36	20.000
846.66	7.143
846.96	-46.667
847.25	-87.500
847.55	28.571
847.85	50.000
848.15	36.364
848.44	-533.333
848.74	45.000
849.04	44.444
849.34	-36.364
849.63	-133.333
849.93	-280.000
850.23	11.111
850.53	-50.000
850.82	-23.077
851.12	-66.667
851.42	33.333
851.71	-3.846
852.01	-50.000
852.31	-175.000
852.61	-9.091
852.90	5.000
853.20	21.053
853.50	-25.000
853.79	13.043
854.09	45.833
854.39	-31.579
854.68	-4.167
854.98	-3.226
855.28	50.000
855.57	0.000
855.87	-5.556
856.17	14.815
856.46	50.000
856.76	-20.000
857.05	111.111
857.35	64.000
857.65	72.222
857.94	-30.769
858.24	17.241
858.53	5.556
858.83	7.407
859.13	22.727
859.42	-13.043
859.72	175.000
860.01	-200.000
860.31	24.000
860.60	-14.286
860.90	-400.000
861.20	-20.000
861.49	-250.000
861.79	-13.333
862.08	65.000
862.38	33.333
862.67	-160.000
862.97	-16.667
863.26	16.667
863.56	50.000
863.85	-366.667
864.15	22.222
864.44	90.000
864.74	21.429
865.03	-100.000
865.33	-260.000
865.62	100.000
865.92	16.667
866.21	-166.667
866.51	87.500
866.80	-90.909
867.10	-200.000
867.39	66.667
867.69	0.000
867.98	7.692
868.27	33.333
868.57	73.333
868.86	88.889
869.16	-15.385
869.45	66.667
869.75	-1300.000
870.04	0.000
870.33	-100.000
870.63	61.905
870.92	66.667
871.22	-100.000
871.51	-300.000
871.80	33.333
872.10	466.667
>>>>>End Processed Spectral Data<<<<<
