SpectraSuite Data File
++++++++++++++++++++++++++++++++++++
Date: Tue May 12 13:08:25 PDT 2015
User: schluterlab
Dark Spectrum Present: Yes
Reference Spectrum Present: No
Number of Sampled Component Spectra: 1
Spectrometers: USB2E3373
Integration Time (usec): 2300000 (USB2E3373)
Spectra Averaged: 3 (USB2E3373)
Boxcar Smoothing: 0 (USB2E3373)
Correct for Electrical Dark: No (USB2E3373)
Strobe/Lamp Enabled: No (USB2E3373)
Correct for Detector Non-linearity: No (USB2E3373)
Correct for Stray Light: No (USB2E3373)
Number of Pixels in Processed Spectrum: 2048
>>>>>Begin Processed Spectral Data<<<<<
178.53	0.0000E00
178.91	0.0000E00
179.29	0.0000E00
179.67	0.0000E00
180.04	0.0000E00
180.42	0.0000E00
180.80	0.0000E00
181.18	0.0000E00
181.56	0.0000E00
181.94	0.0000E00
182.31	0.0000E00
182.69	0.0000E00
183.07	0.0000E00
183.45	0.0000E00
183.83	0.0000E00
184.20	0.0000E00
184.58	0.0000E00
184.96	0.0000E00
185.34	0.0000E00
185.72	0.0000E00
186.09	0.0000E00
186.47	0.0000E00
186.85	0.0000E00
187.23	0.0000E00
187.61	0.0000E00
187.98	0.0000E00
188.36	0.0000E00
188.74	0.0000E00
189.12	0.0000E00
189.49	0.0000E00
189.87	0.0000E00
190.25	0.0000E00
190.63	0.0000E00
191.00	0.0000E00
191.38	0.0000E00
191.76	0.0000E00
192.14	0.0000E00
192.51	0.0000E00
192.89	0.0000E00
193.27	0.0000E00
193.65	0.0000E00
194.02	0.0000E00
194.40	0.0000E00
194.78	0.0000E00
195.15	0.0000E00
195.53	-0.0000E00
195.91	0.0000E00
196.29	0.0000E00
196.66	0.0000E00
197.04	0.0000E00
197.42	0.0000E00
197.79	0.0000E00
198.17	0.0000E00
198.55	0.0000E00
198.92	0.0000E00
199.30	0.0000E00
199.68	0.0000E00
200.05	0.0000E00
200.43	0.0000E00
200.81	0.0000E00
201.18	0.0000E00
201.56	0.0000E00
201.94	0.0000E00
202.31	-0.0000E00
202.69	0.0000E00
203.07	0.0000E00
203.44	0.0000E00
203.82	0.0000E00
204.19	0.0000E00
204.57	0.0000E00
204.95	0.0000E00
205.32	0.0000E00
205.70	0.0000E00
206.08	0.0000E00
206.45	0.0000E00
206.83	0.0000E00
207.20	0.0000E00
207.58	0.0000E00
207.96	0.0000E00
208.33	0.0000E00
208.71	0.0000E00
209.08	0.0000E00
209.46	0.0000E00
209.84	0.0000E00
210.21	0.0000E00
210.59	0.0000E00
210.96	0.0000E00
211.34	0.0000E00
211.71	0.0000E00
212.09	0.0000E00
212.46	0.0000E00
212.84	0.0000E00
213.22	0.0000E00
213.59	0.0000E00
213.97	0.0000E00
214.34	0.0000E00
214.72	0.0000E00
215.09	0.0000E00
215.47	0.0000E00
215.84	0.0000E00
216.22	0.0000E00
216.59	0.0000E00
216.97	0.0000E00
217.34	0.0000E00
217.72	0.0000E00
218.09	0.0000E00
218.47	0.0000E00
218.84	0.0000E00
219.22	0.0000E00
219.59	0.0000E00
219.97	0.0000E00
220.34	0.0000E00
220.72	0.0000E00
221.09	0.0000E00
221.47	0.0000E00
221.84	0.0000E00
222.22	0.0000E00
222.59	0.0000E00
222.97	0.0000E00
223.34	0.0000E00
223.72	0.0000E00
224.09	0.0000E00
224.46	0.0000E00
224.84	0.0000E00
225.21	0.0000E00
225.59	0.0000E00
225.96	0.0000E00
226.34	0.0000E00
226.71	0.0000E00
227.08	0.0000E00
227.46	0.0000E00
227.83	0.0000E00
228.21	0.0000E00
228.58	0.0000E00
228.95	0.0000E00
229.33	0.0000E00
229.70	0.0000E00
230.08	0.0000E00
230.45	0.0000E00
230.82	0.0000E00
231.20	0.0000E00
231.57	0.0000E00
231.95	0.0000E00
232.32	0.0000E00
232.69	0.0000E00
233.07	0.0000E00
233.44	0.0000E00
233.81	0.0000E00
234.19	0.0000E00
234.56	0.0000E00
234.93	0.0000E00
235.31	0.0000E00
235.68	0.0000E00
236.05	0.0000E00
236.43	0.0000E00
236.80	0.0000E00
237.17	0.0000E00
237.55	0.0000E00
237.92	0.0000E00
238.29	0.0000E00
238.67	0.0000E00
239.04	0.0000E00
239.41	0.0000E00
239.79	0.0000E00
240.16	0.0000E00
240.53	0.0000E00
240.91	0.0000E00
241.28	0.0000E00
241.65	0.0000E00
242.02	0.0000E00
242.40	0.0000E00
242.77	0.0000E00
243.14	0.0000E00
243.51	0.0000E00
243.89	0.0000E00
244.26	0.0000E00
244.63	0.0000E00
245.00	0.0000E00
245.38	0.0000E00
245.75	0.0000E00
246.12	0.0000E00
246.49	0.0000E00
246.87	0.0000E00
247.24	0.0000E00
247.61	0.0000E00
247.98	0.0000E00
248.36	0.0000E00
248.73	0.0000E00
249.10	0.0000E00
249.47	0.0000E00
249.84	0.0000E00
250.22	0.0000E00
250.59	0.0000E00
250.96	0.0000E00
251.33	0.0000E00
251.70	0.0000E00
252.08	0.0000E00
252.45	0.0000E00
252.82	0.0000E00
253.19	0.0000E00
253.56	0.0000E00
253.94	0.0000E00
254.31	0.0000E00
254.68	0.0000E00
255.05	0.0000E00
255.42	0.0000E00
255.79	0.0000E00
256.16	0.0000E00
256.54	0.0000E00
256.91	0.0000E00
257.28	0.0000E00
257.65	0.0000E00
258.02	0.0000E00
258.39	0.0000E00
258.76	0.0000E00
259.14	0.0000E00
259.51	0.0000E00
259.88	0.0000E00
260.25	0.0000E00
260.62	0.0000E00
260.99	0.0000E00
261.36	0.0000E00
261.73	0.0000E00
262.10	0.0000E00
262.47	0.0000E00
262.85	0.0000E00
263.22	0.0000E00
263.59	0.0000E00
263.96	0.0000E00
264.33	0.0000E00
264.70	0.0000E00
265.07	0.0000E00
265.44	0.0000E00
265.81	0.0000E00
266.18	0.0000E00
266.55	0.0000E00
266.92	0.0000E00
267.29	0.0000E00
267.66	0.0000E00
268.03	0.0000E00
268.40	0.0000E00
268.77	0.0000E00
269.14	0.0000E00
269.51	0.0000E00
269.88	0.0000E00
270.25	0.0000E00
270.62	0.0000E00
270.99	0.0000E00
271.36	0.0000E00
271.73	0.0000E00
272.10	0.0000E00
272.47	0.0000E00
272.84	0.0000E00
273.21	0.0000E00
273.58	0.0000E00
273.95	0.0000E00
274.32	0.0000E00
274.69	0.0000E00
275.06	0.0000E00
275.43	0.0000E00
275.80	0.0000E00
276.17	0.0000E00
276.54	0.0000E00
276.91	0.0000E00
277.28	0.0000E00
277.65	0.0000E00
278.02	0.0000E00
278.39	0.0000E00
278.76	0.0000E00
279.13	0.0000E00
279.50	0.0000E00
279.87	0.0000E00
280.23	0.0000E00
280.60	0.0000E00
280.97	0.0000E00
281.34	0.0000E00
281.71	0.0000E00
282.08	0.0000E00
282.45	0.0000E00
282.82	0.0000E00
283.19	0.0000E00
283.56	0.0000E00
283.92	0.0000E00
284.29	0.0000E00
284.66	0.0000E00
285.03	0.0000E00
285.40	0.0000E00
285.77	0.0000E00
286.14	0.0000E00
286.51	0.0000E00
286.87	0.0000E00
287.24	0.0000E00
287.61	0.0000E00
287.98	0.0000E00
288.35	0.0000E00
288.72	0.0000E00
289.08	0.0000E00
289.45	0.0000E00
289.82	0.0000E00
290.19	0.0000E00
290.56	0.0000E00
290.93	0.0000E00
291.29	0.0000E00
291.66	0.0000E00
292.03	0.0000E00
292.40	0.0000E00
292.77	0.0000E00
293.13	0.0000E00
293.50	0.0000E00
293.87	0.0000E00
294.24	0.0000E00
294.60	0.0000E00
294.97	0.0000E00
295.34	0.0000E00
295.71	0.0000E00
296.08	0.0000E00
296.44	0.0000E00
296.81	0.0000E00
297.18	0.0000E00
297.55	0.0000E00
297.91	0.0000E00
298.28	0.0000E00
298.65	0.0000E00
299.02	0.0000E00
299.38	0.0000E00
299.75	0.0000E00
300.12	1.1046E-01
300.48	2.9803E-01
300.85	1.1056E-01
301.22	2.8715E-01
301.59	9.6784E-02
301.95	1.1531E-01
302.32	1.5520E-01
302.69	1.5838E-01
303.05	9.4027E-02
303.42	1.2848E-01
303.79	1.4945E-01
304.15	9.5430E-02
304.52	9.9213E-02
304.89	9.4553E-02
305.25	1.9670E-01
305.62	1.1754E-01
305.99	1.5118E-01
306.35	8.2350E-02
306.72	1.1024E-01
307.09	1.2450E-01
307.45	1.0975E-01
307.82	7.3250E-02
308.19	9.6316E-02
308.55	9.5259E-02
308.92	1.1840E-01
309.29	9.3535E-02
309.65	1.9348E-01
310.02	8.8666E-02
310.38	8.7827E-02
310.75	1.1203E-01
311.12	1.0518E-01
311.48	1.7702E-01
311.85	1.2807E-01
312.22	9.2766E-02
312.58	1.8217E-01
312.95	1.1810E-01
313.31	1.0736E-01
313.68	1.3819E-01
314.05	2.2873E-01
314.41	1.2695E-01
314.78	8.0809E-02
315.14	2.1301E-01
315.51	2.6298E-01
315.87	1.1592E-01
316.24	1.7050E-01
316.61	1.5795E-01
316.97	1.0966E-01
317.34	2.0053E-01
317.70	1.3905E-01
318.07	1.5110E-01
318.43	1.8303E-01
318.80	1.2803E-01
319.16	1.6235E-01
319.53	1.1395E-01
319.89	2.3675E-01
320.26	1.8833E-01
320.62	2.2050E-01
320.99	2.0656E-01
321.35	1.1709E-01
321.72	1.7915E-01
322.08	2.4346E-01
322.45	1.9300E-01
322.81	1.5738E-01
323.18	5.5461E-01
323.54	2.7707E-01
323.91	2.0289E-01
324.27	4.3725E-01
324.64	3.3665E-01
325.00	2.6846E-01
325.37	4.0579E-01
325.73	1.5546E-01
326.10	6.0281E-01
326.46	2.7424E-01
326.83	2.5366E-01
327.19	5.0920E-01
327.56	2.0516E-01
327.92	2.9682E-01
328.29	2.3705E-01
328.65	2.9543E-01
329.01	3.7630E-01
329.38	2.4859E-01
329.74	2.2072E-01
330.11	3.4498E-01
330.47	2.2420E-01
330.84	3.1545E-01
331.20	3.1623E-01
331.56	2.8843E-01
331.93	3.3169E-01
332.29	3.3784E-01
332.66	2.2044E-01
333.02	2.7590E-01
333.38	4.0954E-01
333.75	1.9828E-01
334.11	4.0668E-01
334.48	3.0662E-01
334.84	2.8519E-01
335.20	3.6444E-01
335.57	6.7711E-01
335.93	4.4539E-01
336.29	3.5352E-01
336.66	3.2372E-01
337.02	2.5790E-01
337.38	2.7908E-01
337.75	2.9720E-01
338.11	2.5260E-01
338.47	3.6693E-01
338.84	3.1274E-01
339.20	2.6027E-01
339.56	7.7728E-01
339.93	2.9643E-01
340.29	3.1800E-01
340.65	3.3977E-01
341.02	5.7928E-01
341.38	3.8633E-01
341.74	4.3268E-01
342.11	4.2901E-01
342.47	4.4203E-01
342.83	2.9619E-01
343.20	5.6013E-01
343.56	3.4805E-01
343.92	5.6078E-01
344.28	3.0483E-01
344.65	4.7040E-01
345.01	2.9149E-01
345.37	4.8299E-01
345.73	4.6042E-01
346.10	3.8950E-01
346.46	4.8575E-01
346.82	3.6477E-01
347.19	8.4377E-01
347.55	3.4667E-01
347.91	3.5637E-01
348.27	3.9543E-01
348.63	3.4708E-01
349.00	3.6409E-01
349.36	7.1563E-01
349.72	4.6371E-01
350.08	6.9684E-01
350.45	4.3088E-01
350.81	4.0361E-01
351.17	5.5080E-01
351.53	5.8583E-01
351.89	4.7899E-01
352.26	5.6587E-01
352.62	4.4934E-01
352.98	5.0751E-01
353.34	4.6847E-01
353.70	6.6140E-01
354.07	5.5222E-01
354.43	5.7353E-01
354.79	6.0541E-01
355.15	4.8261E-01
355.51	4.5618E-01
355.87	5.1168E-01
356.24	5.1044E-01
356.60	4.9388E-01
356.96	5.2953E-01
357.32	4.3732E-01
357.68	4.2354E-01
358.04	3.6282E-01
358.40	3.9891E-01
358.77	3.6966E-01
359.13	4.6208E-01
359.49	5.4448E-01
359.85	5.8694E-01
360.21	4.5644E-01
360.57	5.5362E-01
360.93	5.4704E-01
361.29	5.9455E-01
361.66	4.7027E-01
362.02	4.5473E-01
362.38	5.9685E-01
362.74	5.5079E-01
363.10	6.5860E-01
363.46	7.1218E-01
363.82	6.0447E-01
364.18	7.5593E-01
364.54	7.2579E-01
364.90	7.1872E-01
365.26	7.0864E-01
365.62	8.5532E-01
365.98	7.8415E-01
366.35	6.4413E-01
366.71	7.8966E-01
367.07	1.0052E00
367.43	6.4506E-01
367.79	9.2169E-01
368.15	8.2907E-01
368.51	9.9559E-01
368.87	8.6277E-01
369.23	9.3552E-01
369.59	7.4975E-01
369.95	8.3119E-01
370.31	7.9862E-01
370.67	9.2630E-01
371.03	7.6715E-01
371.39	7.6893E-01
371.75	7.8879E-01
372.11	8.0954E-01
372.47	7.2748E-01
372.83	7.3867E-01
373.19	6.0240E-01
373.55	7.6660E-01
373.91	7.8784E-01
374.27	8.4425E-01
374.63	8.1995E-01
374.99	7.5305E-01
375.35	7.5047E-01
375.71	7.9153E-01
376.07	8.1531E-01
376.42	8.1674E-01
376.78	7.4527E-01
377.14	8.4724E-01
377.50	9.2448E-01
377.86	7.8518E-01
378.22	7.3903E-01
378.58	7.3889E-01
378.94	7.1624E-01
379.30	7.5260E-01
379.66	7.4173E-01
380.02	7.2545E-01
380.38	7.0531E-01
380.74	7.3912E-01
381.09	7.7599E-01
381.45	7.1519E-01
381.81	6.9164E-01
382.17	7.2862E-01
382.53	7.5837E-01
382.89	6.7918E-01
383.25	7.1485E-01
383.61	7.0773E-01
383.97	6.8715E-01
384.32	6.8478E-01
384.68	6.5351E-01
385.04	7.2385E-01
385.40	7.4574E-01
385.76	7.4313E-01
386.12	6.9850E-01
386.48	7.0993E-01
386.83	6.6219E-01
387.19	6.6086E-01
387.55	7.3916E-01
387.91	7.1459E-01
388.27	6.6826E-01
388.62	7.5073E-01
388.98	6.8082E-01
389.34	7.5533E-01
389.70	6.8525E-01
390.06	7.0700E-01
390.42	7.1378E-01
390.77	6.9633E-01
391.13	7.1041E-01
391.49	6.9732E-01
391.85	7.3561E-01
392.20	6.4996E-01
392.56	6.5849E-01
392.92	6.6788E-01
393.28	6.7040E-01
393.64	7.0051E-01
393.99	7.1478E-01
394.35	7.0166E-01
394.71	6.9410E-01
395.07	6.7916E-01
395.42	6.8234E-01
395.78	6.9491E-01
396.14	6.2661E-01
396.50	6.2967E-01
396.85	6.9207E-01
397.21	6.6677E-01
397.57	6.8470E-01
397.92	6.4062E-01
398.28	6.1937E-01
398.64	7.3673E-01
399.00	5.9367E-01
399.35	6.1797E-01
399.71	6.6257E-01
400.07	6.4638E-01
400.42	6.3127E-01
400.78	6.4724E-01
401.14	6.5023E-01
401.49	6.0268E-01
401.85	5.9903E-01
402.21	6.0851E-01
402.57	6.0511E-01
402.92	6.3786E-01
403.28	6.0726E-01
403.63	6.0355E-01
403.99	6.1765E-01
404.35	6.0004E-01
404.70	5.8910E-01
405.06	5.9818E-01
405.42	6.1173E-01
405.77	5.6862E-01
406.13	5.6805E-01
406.49	5.6445E-01
406.84	5.7117E-01
407.20	5.5750E-01
407.55	6.0144E-01
407.91	6.1257E-01
408.27	5.7333E-01
408.62	5.7671E-01
408.98	5.8371E-01
409.34	5.9394E-01
409.69	5.6803E-01
410.05	5.9855E-01
410.40	5.7152E-01
410.76	5.2908E-01
411.11	5.3380E-01
411.47	5.7859E-01
411.83	5.4811E-01
412.18	5.5920E-01
412.54	5.4801E-01
412.89	5.4421E-01
413.25	5.6475E-01
413.60	5.8985E-01
413.96	5.5287E-01
414.31	5.5592E-01
414.67	5.8705E-01
415.03	5.7547E-01
415.38	5.8943E-01
415.74	5.8267E-01
416.09	5.7888E-01
416.45	5.8659E-01
416.80	5.7540E-01
417.16	5.7053E-01
417.51	5.6742E-01
417.87	5.4616E-01
418.22	5.4011E-01
418.58	5.5202E-01
418.93	5.2780E-01
419.29	5.6626E-01
419.64	5.4970E-01
420.00	5.1952E-01
420.35	5.1012E-01
420.71	5.3585E-01
421.06	5.3769E-01
421.42	5.5112E-01
421.77	5.4312E-01
422.12	5.4177E-01
422.48	5.1326E-01
422.83	5.4862E-01
423.19	5.1874E-01
423.54	5.1896E-01
423.90	5.2497E-01
424.25	4.9571E-01
424.61	5.4704E-01
424.96	5.1171E-01
425.31	5.0867E-01
425.67	4.8777E-01
426.02	5.0945E-01
426.38	5.0918E-01
426.73	4.8208E-01
427.09	5.0458E-01
427.44	4.8366E-01
427.79	4.8922E-01
428.15	5.0418E-01
428.50	5.0052E-01
428.85	5.1294E-01
429.21	4.7305E-01
429.56	4.6311E-01
429.92	4.7197E-01
430.27	4.8780E-01
430.62	4.8702E-01
430.98	4.9301E-01
431.33	4.8202E-01
431.68	4.6625E-01
432.04	4.6262E-01
432.39	4.6910E-01
432.74	4.8664E-01
433.10	4.5598E-01
433.45	4.8259E-01
433.80	4.7997E-01
434.16	4.9066E-01
434.51	4.6712E-01
434.86	4.8645E-01
435.22	4.6852E-01
435.57	5.0090E-01
435.92	4.9103E-01
436.28	4.8838E-01
436.63	4.5329E-01
436.98	4.8477E-01
437.34	4.8153E-01
437.69	4.5779E-01
438.04	4.4544E-01
438.39	4.7670E-01
438.75	4.8804E-01
439.10	4.4070E-01
439.45	4.7860E-01
439.81	4.7346E-01
440.16	4.4489E-01
440.51	4.6483E-01
440.86	4.6330E-01
441.22	4.5299E-01
441.57	4.5730E-01
441.92	4.4402E-01
442.27	4.6577E-01
442.63	4.5626E-01
442.98	4.8732E-01
443.33	4.7689E-01
443.68	4.4369E-01
444.03	4.1874E-01
444.39	4.2052E-01
444.74	4.5658E-01
445.09	4.6294E-01
445.44	4.6410E-01
445.79	4.0988E-01
446.15	4.4049E-01
446.50	4.5517E-01
446.85	4.2779E-01
447.20	4.1629E-01
447.55	4.5017E-01
447.91	4.3316E-01
448.26	4.4443E-01
448.61	4.4013E-01
448.96	4.3142E-01
449.31	4.3821E-01
449.66	4.4184E-01
450.02	4.3501E-01
450.37	4.3537E-01
450.72	4.2951E-01
451.07	4.6287E-01
451.42	4.6020E-01
451.77	4.3461E-01
452.12	4.3417E-01
452.47	4.5447E-01
452.83	4.1770E-01
453.18	4.4179E-01
453.53	4.3695E-01
453.88	4.1149E-01
454.23	4.0621E-01
454.58	4.0640E-01
454.93	4.3621E-01
455.28	4.3335E-01
455.63	4.2099E-01
455.98	4.1156E-01
456.34	4.3313E-01
456.69	4.2026E-01
457.04	4.2327E-01
457.39	3.9721E-01
457.74	4.0559E-01
458.09	3.9482E-01
458.44	3.9414E-01
458.79	3.8554E-01
459.14	3.9863E-01
459.49	4.1496E-01
459.84	3.9201E-01
460.19	4.1710E-01
460.54	4.1451E-01
460.89	3.8192E-01
461.24	4.1798E-01
461.59	3.9977E-01
461.94	4.0563E-01
462.29	3.7891E-01
462.64	4.0078E-01
462.99	4.0462E-01
463.34	4.2788E-01
463.69	4.0102E-01
464.04	3.7422E-01
464.39	3.8859E-01
464.74	3.9413E-01
465.09	4.0500E-01
465.44	3.8131E-01
465.79	3.9328E-01
466.14	3.9530E-01
466.49	3.8854E-01
466.84	3.8483E-01
467.19	3.9850E-01
467.54	3.9948E-01
467.89	3.8006E-01
468.24	3.6043E-01
468.59	3.7234E-01
468.94	3.6482E-01
469.29	3.6676E-01
469.64	3.7886E-01
469.99	3.6512E-01
470.34	3.5350E-01
470.68	3.7634E-01
471.03	3.6357E-01
471.38	3.6423E-01
471.73	3.4688E-01
472.08	3.4248E-01
472.43	3.3072E-01
472.78	3.4895E-01
473.13	3.4549E-01
473.48	3.3960E-01
473.83	3.3335E-01
474.17	3.3813E-01
474.52	3.3407E-01
474.87	3.2080E-01
475.22	3.2744E-01
475.57	3.1150E-01
475.92	3.0349E-01
476.27	3.1263E-01
476.61	3.0412E-01
476.96	2.9634E-01
477.31	2.8735E-01
477.66	2.9287E-01
478.01	2.9120E-01
478.36	2.8938E-01
478.70	2.8548E-01
479.05	2.8982E-01
479.40	2.7646E-01
479.75	2.7337E-01
480.10	2.7530E-01
480.45	2.6877E-01
480.79	2.6756E-01
481.14	2.7119E-01
481.49	2.6479E-01
481.84	2.6007E-01
482.19	2.5817E-01
482.53	2.5771E-01
482.88	2.5546E-01
483.23	2.5131E-01
483.58	2.4595E-01
483.92	2.5207E-01
484.27	2.4418E-01
484.62	2.4256E-01
484.97	2.3751E-01
485.31	2.3626E-01
485.66	2.4124E-01
486.01	2.4139E-01
486.36	2.2990E-01
486.70	2.3617E-01
487.05	2.3478E-01
487.40	2.3488E-01
487.75	2.2799E-01
488.09	2.2832E-01
488.44	2.3009E-01
488.79	2.2680E-01
489.13	2.2418E-01
489.48	2.2699E-01
489.83	2.2748E-01
490.17	2.2133E-01
490.52	2.2124E-01
490.87	2.2212E-01
491.22	2.2534E-01
491.56	2.2211E-01
491.91	2.2505E-01
492.26	2.2254E-01
492.60	2.2245E-01
492.95	2.2454E-01
493.30	2.2393E-01
493.64	2.2125E-01
493.99	2.2246E-01
494.34	2.1981E-01
494.68	2.1742E-01
495.03	2.2291E-01
495.37	2.2077E-01
495.72	2.2315E-01
496.07	2.1817E-01
496.41	2.1966E-01
496.76	2.1825E-01
497.11	2.2033E-01
497.45	2.1928E-01
497.80	2.1972E-01
498.14	2.1952E-01
498.49	2.1999E-01
498.84	2.2057E-01
499.18	2.2018E-01
499.53	2.2007E-01
499.87	2.1805E-01
500.22	2.2041E-01
500.56	2.1994E-01
500.91	2.1975E-01
501.26	2.1931E-01
501.60	2.1903E-01
501.95	2.1726E-01
502.29	2.2000E-01
502.64	2.1619E-01
502.98	2.1978E-01
503.33	2.1789E-01
503.67	2.1821E-01
504.02	2.1760E-01
504.36	2.1736E-01
504.71	2.1803E-01
505.06	2.1621E-01
505.40	2.1609E-01
505.75	2.1750E-01
506.09	2.1765E-01
506.44	2.1741E-01
506.78	2.1517E-01
507.13	2.1636E-01
507.47	2.1480E-01
507.82	2.1472E-01
508.16	2.1665E-01
508.51	2.1459E-01
508.85	2.1200E-01
509.19	2.1485E-01
509.54	2.1448E-01
509.88	2.1472E-01
510.23	2.1153E-01
510.57	2.1240E-01
510.92	2.1190E-01
511.26	2.1219E-01
511.61	2.1195E-01
511.95	2.1212E-01
512.30	2.1098E-01
512.64	2.1236E-01
512.98	2.0871E-01
513.33	2.1027E-01
513.67	2.1064E-01
514.02	2.0998E-01
514.36	2.0810E-01
514.70	2.0935E-01
515.05	2.0720E-01
515.39	2.0880E-01
515.74	2.0686E-01
516.08	2.0579E-01
516.42	2.0757E-01
516.77	2.0821E-01
517.11	2.0824E-01
517.46	2.0930E-01
517.80	2.0616E-01
518.14	2.0740E-01
518.49	2.0560E-01
518.83	2.0625E-01
519.17	2.0640E-01
519.52	2.0680E-01
519.86	2.0557E-01
520.20	2.0473E-01
520.55	2.0539E-01
520.89	2.0422E-01
521.23	2.0631E-01
521.58	2.0584E-01
521.92	2.0735E-01
522.26	2.0852E-01
522.61	2.0506E-01
522.95	2.0680E-01
523.29	2.0386E-01
523.64	2.0406E-01
523.98	2.0511E-01
524.32	2.0570E-01
524.66	2.0723E-01
525.01	2.0723E-01
525.35	2.0790E-01
525.69	2.0868E-01
526.04	2.0815E-01
526.38	2.0489E-01
526.72	2.0919E-01
527.06	2.0786E-01
527.41	2.0962E-01
527.75	2.1138E-01
528.09	2.0971E-01
528.43	2.1315E-01
528.78	2.1059E-01
529.12	2.1277E-01
529.46	2.1420E-01
529.80	2.1351E-01
530.15	2.1399E-01
530.49	2.1405E-01
530.83	2.1522E-01
531.17	2.1531E-01
531.51	2.1450E-01
531.86	2.1638E-01
532.20	2.1750E-01
532.54	2.1681E-01
532.88	2.1824E-01
533.22	2.2029E-01
533.57	2.2115E-01
533.91	2.2066E-01
534.25	2.2275E-01
534.59	2.2140E-01
534.93	2.2330E-01
535.27	2.2214E-01
535.62	2.2640E-01
535.96	2.2553E-01
536.30	2.2608E-01
536.64	2.2645E-01
536.98	2.2845E-01
537.32	2.2760E-01
537.66	2.2757E-01
538.01	2.3009E-01
538.35	2.3192E-01
538.69	2.2907E-01
539.03	2.3467E-01
539.37	2.3237E-01
539.71	2.3421E-01
540.05	2.3469E-01
540.39	2.3545E-01
540.73	2.3428E-01
541.07	2.3476E-01
541.42	2.3533E-01
541.76	2.3557E-01
542.10	2.3669E-01
542.44	2.3792E-01
542.78	2.3794E-01
543.12	2.3748E-01
543.46	2.4252E-01
543.80	2.3949E-01
544.14	2.3940E-01
544.48	2.3881E-01
544.82	2.4131E-01
545.16	2.4186E-01
545.50	2.4023E-01
545.84	2.4262E-01
546.18	2.4096E-01
546.52	2.4361E-01
546.86	2.4170E-01
547.20	2.4487E-01
547.54	2.4792E-01
547.88	2.4341E-01
548.22	2.4416E-01
548.56	2.4524E-01
548.90	2.4333E-01
549.24	2.4576E-01
549.58	2.4642E-01
549.92	2.4459E-01
550.26	2.4874E-01
550.60	2.4530E-01
550.94	2.4392E-01
551.28	2.4762E-01
551.62	2.4597E-01
551.96	2.4823E-01
552.30	2.4916E-01
552.64	2.4815E-01
552.98	2.4832E-01
553.32	2.4876E-01
553.66	2.4735E-01
554.00	2.4801E-01
554.34	2.4881E-01
554.68	2.4981E-01
555.02	2.5008E-01
555.36	2.5116E-01
555.69	2.5001E-01
556.03	2.4969E-01
556.37	2.5106E-01
556.71	2.4891E-01
557.05	2.4849E-01
557.39	2.4905E-01
557.73	2.4933E-01
558.07	2.5121E-01
558.41	2.5022E-01
558.75	2.5049E-01
559.08	2.5066E-01
559.42	2.4851E-01
559.76	2.5209E-01
560.10	2.5168E-01
560.44	2.5160E-01
560.78	2.4909E-01
561.12	2.5089E-01
561.45	2.5034E-01
561.79	2.5142E-01
562.13	2.5133E-01
562.47	2.5158E-01
562.81	2.5185E-01
563.15	2.5174E-01
563.48	2.5237E-01
563.82	2.4913E-01
564.16	2.5153E-01
564.50	2.5168E-01
564.84	2.5221E-01
565.17	2.5247E-01
565.51	2.5193E-01
565.85	2.5406E-01
566.19	2.5075E-01
566.52	2.5435E-01
566.86	2.5145E-01
567.20	2.5393E-01
567.54	2.5288E-01
567.88	2.5334E-01
568.21	2.5310E-01
568.55	2.5432E-01
568.89	2.5472E-01
569.23	2.5453E-01
569.56	2.5378E-01
569.90	2.5498E-01
570.24	2.5663E-01
570.57	2.5659E-01
570.91	2.5705E-01
571.25	2.5353E-01
571.59	2.5665E-01
571.92	2.5628E-01
572.26	2.5721E-01
572.60	2.5935E-01
572.93	2.5811E-01
573.27	2.6034E-01
573.61	2.6078E-01
573.95	2.5687E-01
574.28	2.6134E-01
574.62	2.6157E-01
574.96	2.6181E-01
575.29	2.6107E-01
575.63	2.6536E-01
575.97	2.6451E-01
576.30	2.7067E-01
576.64	2.6703E-01
576.98	2.6688E-01
577.31	2.6806E-01
577.65	2.7093E-01
577.98	2.6885E-01
578.32	2.7130E-01
578.66	2.7247E-01
578.99	2.7314E-01
579.33	2.7394E-01
579.67	2.7224E-01
580.00	2.7600E-01
580.34	2.7514E-01
580.67	2.7657E-01
581.01	2.7901E-01
581.35	2.8017E-01
581.68	2.8126E-01
582.02	2.7993E-01
582.35	2.8213E-01
582.69	2.8212E-01
583.02	2.8648E-01
583.36	2.8370E-01
583.70	2.8323E-01
584.03	2.8533E-01
584.37	2.8358E-01
584.70	2.8946E-01
585.04	2.8941E-01
585.37	2.8808E-01
585.71	2.9256E-01
586.04	2.9154E-01
586.38	2.8946E-01
586.72	2.9344E-01
587.05	2.9498E-01
587.39	2.9599E-01
587.72	2.9402E-01
588.06	2.9634E-01
588.39	2.9606E-01
588.73	2.9917E-01
589.06	2.9697E-01
589.40	3.0165E-01
589.73	3.0316E-01
590.07	3.0381E-01
590.40	3.0402E-01
590.73	3.0767E-01
591.07	3.0471E-01
591.40	3.1113E-01
591.74	3.0431E-01
592.07	3.0840E-01
592.41	3.0984E-01
592.74	3.1068E-01
593.08	3.0884E-01
593.41	3.1080E-01
593.75	3.0862E-01
594.08	3.1341E-01
594.41	3.1184E-01
594.75	3.1305E-01
595.08	3.1296E-01
595.42	3.0931E-01
595.75	3.1437E-01
596.09	3.1431E-01
596.42	3.1262E-01
596.75	3.1649E-01
597.09	3.1809E-01
597.42	3.1496E-01
597.75	3.1872E-01
598.09	3.1944E-01
598.42	3.1710E-01
598.76	3.1893E-01
599.09	3.2307E-01
599.42	3.2297E-01
599.76	3.2158E-01
600.09	3.2070E-01
600.42	3.2530E-01
600.76	3.1915E-01
601.09	3.2294E-01
601.42	3.2608E-01
601.76	3.2245E-01
602.09	3.2139E-01
602.42	3.2376E-01
602.76	3.2268E-01
603.09	3.2167E-01
603.42	3.2747E-01
603.76	3.2374E-01
604.09	3.2403E-01
604.42	3.2641E-01
604.76	3.2396E-01
605.09	3.2899E-01
605.42	3.2582E-01
605.75	3.2726E-01
606.09	3.2564E-01
606.42	3.2683E-01
606.75	3.2857E-01
607.09	3.2881E-01
607.42	3.2907E-01
607.75	3.2937E-01
608.08	3.2895E-01
608.42	3.3144E-01
608.75	3.2760E-01
609.08	3.3175E-01
609.41	3.3128E-01
609.75	3.2940E-01
610.08	3.3121E-01
610.41	3.3335E-01
610.74	3.3232E-01
611.07	3.3233E-01
611.41	3.3175E-01
611.74	3.3292E-01
612.07	3.3492E-01
612.40	3.2987E-01
612.73	3.3358E-01
613.07	3.3555E-01
613.40	3.3176E-01
613.73	3.3081E-01
614.06	3.3385E-01
614.39	3.3466E-01
614.72	3.3603E-01
615.06	3.3549E-01
615.39	3.3918E-01
615.72	3.3396E-01
616.05	3.3727E-01
616.38	3.3819E-01
616.71	3.3919E-01
617.05	3.3697E-01
617.38	3.3908E-01
617.71	3.3710E-01
618.04	3.3860E-01
618.37	3.3696E-01
618.70	3.3801E-01
619.03	3.3879E-01
619.36	3.3356E-01
619.69	3.4062E-01
620.03	3.3694E-01
620.36	3.3792E-01
620.69	3.3621E-01
621.02	3.3916E-01
621.35	3.3773E-01
621.68	3.3508E-01
622.01	3.3421E-01
622.34	3.3626E-01
622.67	3.3498E-01
623.00	3.3653E-01
623.33	3.3692E-01
623.66	3.3482E-01
623.99	3.3561E-01
624.32	3.3425E-01
624.65	3.3537E-01
624.99	3.3556E-01
625.32	3.3668E-01
625.65	3.3571E-01
625.98	3.3112E-01
626.31	3.3524E-01
626.64	3.3592E-01
626.97	3.3640E-01
627.30	3.3387E-01
627.63	3.3559E-01
627.96	3.3278E-01
628.29	3.3293E-01
628.62	3.3578E-01
628.95	3.3582E-01
629.28	3.3026E-01
629.61	3.4100E-01
629.94	3.3593E-01
630.26	3.3656E-01
630.59	3.3849E-01
630.92	3.3645E-01
631.25	3.3835E-01
631.58	3.4170E-01
631.91	3.3718E-01
632.24	3.4423E-01
632.57	3.4066E-01
632.90	3.4117E-01
633.23	3.4187E-01
633.56	3.4358E-01
633.89	3.4392E-01
634.22	3.4541E-01
634.55	3.4649E-01
634.88	3.5050E-01
635.20	3.4948E-01
635.53	3.5195E-01
635.86	3.5212E-01
636.19	3.5620E-01
636.52	3.5712E-01
636.85	3.5436E-01
637.18	3.5898E-01
637.51	3.5572E-01
637.83	3.5956E-01
638.16	3.5603E-01
638.49	3.6687E-01
638.82	3.6517E-01
639.15	3.6758E-01
639.48	3.7034E-01
639.81	3.7228E-01
640.13	3.6904E-01
640.46	3.7446E-01
640.79	3.7449E-01
641.12	3.7795E-01
641.45	3.7714E-01
641.77	3.7510E-01
642.10	3.8360E-01
642.43	3.8489E-01
642.76	3.8638E-01
643.09	3.8404E-01
643.41	3.8733E-01
643.74	3.8763E-01
644.07	3.8775E-01
644.40	3.9083E-01
644.73	3.9499E-01
645.05	3.9643E-01
645.38	3.9914E-01
645.71	4.0045E-01
646.04	4.0033E-01
646.36	3.9957E-01
646.69	4.0581E-01
647.02	4.0614E-01
647.35	4.0366E-01
647.67	4.0860E-01
648.00	4.0754E-01
648.33	4.1234E-01
648.66	4.1041E-01
648.98	4.1580E-01
649.31	4.1438E-01
649.64	4.1656E-01
649.96	4.2052E-01
650.29	4.2286E-01
650.62	4.2290E-01
650.94	4.2262E-01
651.27	4.2235E-01
651.60	4.2331E-01
651.92	4.3038E-01
652.25	4.3125E-01
652.58	4.3049E-01
652.90	4.3268E-01
653.23	4.3279E-01
653.56	4.3411E-01
653.88	4.3615E-01
654.21	4.3644E-01
654.54	4.3865E-01
654.86	4.4363E-01
655.19	4.3850E-01
655.52	4.4535E-01
655.84	4.4402E-01
656.17	4.4690E-01
656.49	4.5180E-01
656.82	4.4666E-01
657.15	4.5161E-01
657.47	4.5173E-01
657.80	4.5165E-01
658.13	4.5330E-01
658.45	4.5630E-01
658.78	4.5475E-01
659.10	4.6043E-01
659.43	4.6002E-01
659.75	4.5905E-01
660.08	4.5702E-01
660.41	4.6315E-01
660.73	4.6382E-01
661.06	4.6743E-01
661.38	4.6550E-01
661.71	4.6717E-01
662.03	4.6757E-01
662.36	4.7339E-01
662.68	4.7251E-01
663.01	4.6661E-01
663.33	4.7098E-01
663.66	4.7434E-01
663.98	4.7172E-01
664.31	4.7204E-01
664.63	4.8174E-01
664.96	4.7815E-01
665.28	4.8147E-01
665.61	4.8062E-01
665.93	4.8137E-01
666.26	4.8420E-01
666.58	4.8463E-01
666.91	4.8131E-01
667.23	4.8679E-01
667.56	4.8082E-01
667.88	4.8872E-01
668.21	4.8840E-01
668.53	4.8589E-01
668.86	4.9611E-01
669.18	4.8829E-01
669.50	4.9931E-01
669.83	4.9795E-01
670.15	4.9883E-01
670.48	4.9832E-01
670.80	4.9645E-01
671.13	4.9379E-01
671.45	4.9949E-01
671.77	5.0258E-01
672.10	4.9930E-01
672.42	5.0689E-01
672.75	5.0413E-01
673.07	5.0791E-01
673.39	5.0311E-01
673.72	5.0588E-01
674.04	5.0983E-01
674.37	5.1350E-01
674.69	5.1032E-01
675.01	5.1433E-01
675.34	5.1585E-01
675.66	5.1733E-01
675.98	5.1183E-01
676.31	5.1999E-01
676.63	5.2132E-01
676.95	5.1825E-01
677.28	5.2280E-01
677.60	5.2293E-01
677.92	5.2128E-01
678.25	5.2708E-01
678.57	5.2793E-01
678.89	5.2619E-01
679.22	5.3431E-01
679.54	5.3155E-01
679.86	5.3159E-01
680.18	5.3398E-01
680.51	5.3556E-01
680.83	5.4009E-01
681.15	5.3494E-01
681.48	5.3907E-01
681.80	5.4255E-01
682.12	5.3910E-01
682.44	5.4813E-01
682.77	5.4781E-01
683.09	5.5134E-01
683.41	5.4872E-01
683.73	5.5493E-01
684.06	5.5351E-01
684.38	5.5514E-01
684.70	5.5353E-01
685.02	5.5887E-01
685.34	5.6474E-01
685.67	5.6031E-01
685.99	5.6740E-01
686.31	5.6325E-01
686.63	5.7252E-01
686.96	5.6900E-01
687.28	5.7596E-01
687.60	5.6851E-01
687.92	5.7504E-01
688.24	5.8046E-01
688.56	5.8147E-01
688.89	5.8328E-01
689.21	5.8065E-01
689.53	5.8333E-01
689.85	5.9214E-01
690.17	5.8779E-01
690.49	5.9710E-01
690.82	5.9709E-01
691.14	5.9700E-01
691.46	6.0003E-01
691.78	6.0429E-01
692.10	5.9724E-01
692.42	6.0422E-01
692.74	6.0938E-01
693.06	6.1017E-01
693.39	6.2031E-01
693.71	6.2179E-01
694.03	6.2188E-01
694.35	6.2337E-01
694.67	6.2554E-01
694.99	6.3173E-01
695.31	6.3380E-01
695.63	6.3268E-01
695.95	6.3834E-01
696.27	6.3621E-01
696.59	6.4201E-01
696.91	6.5095E-01
697.23	6.4938E-01
697.56	6.4836E-01
697.88	6.5522E-01
698.20	6.5440E-01
698.52	6.6101E-01
698.84	6.6606E-01
699.16	6.7100E-01
699.48	6.6468E-01
699.80	6.7279E-01
700.12	6.7920E-01
700.44	6.8024E-01
700.76	6.8178E-01
701.08	6.8622E-01
701.40	6.8879E-01
701.72	6.9579E-01
702.04	6.9496E-01
702.36	7.0164E-01
702.68	7.0471E-01
703.00	7.0957E-01
703.32	7.1345E-01
703.64	7.1444E-01
703.96	7.0691E-01
704.28	7.1789E-01
704.60	7.2618E-01
704.91	7.2857E-01
705.23	7.2943E-01
705.55	7.3737E-01
705.87	7.3282E-01
706.19	7.3478E-01
706.51	7.4039E-01
706.83	7.4351E-01
707.15	7.6282E-01
707.47	7.4736E-01
707.79	7.6152E-01
708.11	7.6311E-01
708.43	7.6685E-01
708.74	7.7278E-01
709.06	7.8400E-01
709.38	7.7904E-01
709.70	7.7409E-01
710.02	7.8521E-01
710.34	7.8213E-01
710.66	8.0213E-01
710.98	7.9764E-01
711.29	7.9664E-01
711.61	8.1075E-01
711.93	8.1587E-01
712.25	8.0890E-01
712.57	8.2017E-01
712.89	8.2319E-01
713.20	8.2392E-01
713.52	8.3196E-01
713.84	8.4012E-01
714.16	8.3372E-01
714.48	8.3546E-01
714.80	8.4909E-01
715.11	8.4703E-01
715.43	8.5870E-01
715.75	8.6415E-01
716.07	8.7357E-01
716.39	8.5791E-01
716.70	8.6784E-01
717.02	8.6391E-01
717.34	8.8890E-01
717.66	8.7950E-01
717.97	8.9094E-01
718.29	8.9640E-01
718.61	9.0884E-01
718.93	9.0734E-01
719.24	9.0985E-01
719.56	9.2975E-01
719.88	9.2162E-01
720.20	9.3323E-01
720.51	9.4493E-01
720.83	9.4125E-01
721.15	9.6078E-01
721.46	9.5717E-01
721.78	9.6258E-01
722.10	9.7715E-01
722.42	9.8606E-01
722.73	9.9260E-01
723.05	9.8027E-01
723.37	9.9441E-01
723.68	1.0045E00
724.00	1.0045E00
724.32	1.0225E00
724.63	1.0197E00
724.95	1.0138E00
725.27	1.0243E00
725.58	1.0309E00
725.90	1.0308E00
726.22	1.0473E00
726.53	1.0250E00
726.85	1.0396E00
727.16	1.0617E00
727.48	1.0436E00
727.80	1.0549E00
728.11	1.0592E00
728.43	1.0571E00
728.74	1.0527E00
729.06	1.0718E00
729.38	1.0672E00
729.69	1.0728E00
730.01	1.0798E00
730.32	1.0881E00
730.64	1.0873E00
730.96	1.0760E00
731.27	1.1057E00
731.59	1.0799E00
731.90	1.0937E00
732.22	1.1020E00
732.53	1.0989E00
732.85	1.1133E00
733.16	1.1098E00
733.48	1.1166E00
733.80	1.1099E00
734.11	1.1304E00
734.43	1.1298E00
734.74	1.1281E00
735.06	1.1433E00
735.37	1.1521E00
735.69	1.1372E00
736.00	1.1503E00
736.32	1.1513E00
736.63	1.1604E00
736.95	1.1578E00
737.26	1.1798E00
737.58	1.1782E00
737.89	1.1865E00
738.21	1.1755E00
738.52	1.1827E00
738.83	1.1855E00
739.15	1.1846E00
739.46	1.2027E00
739.78	1.1980E00
740.09	1.2129E00
740.41	1.2061E00
740.72	1.2015E00
741.04	1.2029E00
741.35	1.2048E00
741.66	1.2258E00
741.98	1.2181E00
742.29	1.2255E00
742.61	1.2190E00
742.92	1.2238E00
743.23	1.2229E00
743.55	1.2322E00
743.86	1.2215E00
744.18	1.2290E00
744.49	1.2307E00
744.80	1.2284E00
745.12	1.2305E00
745.43	1.2344E00
745.74	1.2335E00
746.06	1.2249E00
746.37	1.2232E00
746.68	1.2333E00
747.00	1.2300E00
747.31	1.2205E00
747.62	1.2137E00
747.94	1.2331E00
748.25	1.2336E00
748.56	1.2348E00
748.88	1.2172E00
749.19	1.2275E00
749.50	1.2303E00
749.82	1.2215E00
750.13	1.2294E00
750.44	1.2309E00
750.75	1.2159E00
751.07	1.2324E00
751.38	1.2400E00
751.69	1.2169E00
752.01	1.2339E00
752.32	1.2330E00
752.63	1.2341E00
752.94	1.2410E00
753.26	1.2470E00
753.57	1.2342E00
753.88	1.2414E00
754.19	1.2442E00
754.51	1.2465E00
754.82	1.2429E00
755.13	1.2567E00
755.44	1.2553E00
755.75	1.2589E00
756.07	1.2589E00
756.38	1.2740E00
756.69	1.2698E00
757.00	1.2783E00
757.31	1.2930E00
757.63	1.2999E00
757.94	1.3026E00
758.25	1.3160E00
758.56	1.2842E00
758.87	1.3290E00
759.18	1.3325E00
759.50	1.3291E00
759.81	1.3247E00
760.12	1.3328E00
760.43	1.3477E00
760.74	1.3502E00
761.05	1.3235E00
761.36	1.2245E00
761.67	1.3266E00
761.99	1.3934E00
762.30	1.3793E00
762.61	1.4116E00
762.92	1.4067E00
763.23	1.4028E00
763.54	1.4075E00
763.85	1.4302E00
764.16	1.4405E00
764.47	1.4659E00
764.78	1.4751E00
765.10	1.4744E00
765.41	1.4738E00
765.72	1.4817E00
766.03	1.5154E00
766.34	1.5260E00
766.65	1.5343E00
766.96	1.5669E00
767.27	1.5548E00
767.58	1.5561E00
767.89	1.5737E00
768.20	1.5970E00
768.51	1.5986E00
768.82	1.6022E00
769.13	1.6317E00
769.44	1.6543E00
769.75	1.6519E00
770.06	1.6553E00
770.37	1.6542E00
770.68	1.6949E00
770.99	1.7068E00
771.30	1.7151E00
771.61	1.7694E00
771.92	1.7291E00
772.23	1.7513E00
772.54	1.7911E00
772.85	1.7730E00
773.16	1.7912E00
773.47	1.8450E00
773.78	1.8293E00
774.09	1.8597E00
774.39	1.8619E00
774.70	1.8677E00
775.01	1.9055E00
775.32	1.9147E00
775.63	1.9370E00
775.94	1.9577E00
776.25	1.9450E00
776.56	1.9639E00
776.87	2.0156E00
777.18	2.0083E00
777.48	2.0293E00
777.79	2.0487E00
778.10	2.0656E00
778.41	2.0828E00
778.72	2.1054E00
779.03	2.1168E00
779.34	2.1601E00
779.65	2.1625E00
779.95	2.2028E00
780.26	2.1858E00
780.57	2.2226E00
780.88	2.2167E00
781.19	2.2569E00
781.50	2.2592E00
781.80	2.2793E00
782.11	2.2843E00
782.42	2.3396E00
782.73	2.2942E00
783.04	2.3848E00
783.34	2.3845E00
783.65	2.4033E00
783.96	2.4109E00
784.27	2.4259E00
784.57	2.4433E00
784.88	2.4732E00
785.19	2.4849E00
785.50	2.5115E00
785.81	2.5468E00
786.11	2.5084E00
786.42	2.5367E00
786.73	2.5638E00
787.04	2.5959E00
787.34	2.6433E00
787.65	2.6572E00
787.96	2.7169E00
788.26	2.6968E00
788.57	2.7535E00
788.88	2.7212E00
789.19	2.8040E00
789.49	2.7763E00
789.80	2.8286E00
790.11	2.8358E00
790.41	2.8642E00
790.72	2.8925E00
791.03	2.9049E00
791.33	2.9359E00
791.64	3.0028E00
791.95	2.9472E00
792.25	3.0420E00
792.56	3.0117E00
792.87	3.0589E00
793.17	3.0776E00
793.48	3.0930E00
793.79	3.1239E00
794.09	3.1842E00
794.40	3.1402E00
794.70	3.1477E00
795.01	3.1621E00
795.32	3.2034E00
795.62	3.2676E00
795.93	3.2734E00
796.23	3.2849E00
796.54	3.3294E00
796.85	3.3155E00
797.15	3.3580E00
797.46	3.3859E00
797.76	3.4729E00
798.07	3.4599E00
798.37	3.4623E00
798.68	3.5180E00
798.99	3.5206E00
799.29	3.5550E00
799.60	3.6165E00
799.90	3.6182E00
800.21	3.6739E00
800.51	3.7024E00
800.82	3.6987E00
801.12	3.7696E00
801.43	3.7630E00
801.73	3.8434E00
802.04	3.8246E00
802.34	3.7273E00
802.65	3.7349E00
802.95	3.8364E00
803.26	3.8191E00
803.56	3.7586E00
803.87	3.8005E00
804.17	3.8296E00
804.48	3.8188E00
804.78	3.9075E00
805.09	3.9460E00
805.39	3.9515E00
805.70	3.9756E00
806.00	4.0234E00
806.30	4.0054E00
806.61	4.0002E00
806.91	3.9959E00
807.22	4.0268E00
807.52	4.0471E00
807.83	4.0204E00
808.13	4.0764E00
808.43	3.9825E00
808.74	4.0586E00
809.04	4.0176E00
809.35	3.9783E00
809.65	4.0462E00
809.95	4.0066E00
810.26	3.9674E00
810.56	4.0049E00
810.86	4.0190E00
811.17	3.9989E00
811.47	3.9675E00
811.77	3.9164E00
812.08	3.8772E00
812.38	3.9424E00
812.69	3.8369E00
812.99	3.8414E00
813.29	3.5127E00
813.59	3.3621E00
813.90	3.2860E00
814.20	3.2249E00
814.50	3.1255E00
814.81	3.0476E00
815.11	2.9719E00
815.41	2.8976E00
815.72	2.8358E00
816.02	2.7728E00
816.32	2.6554E00
816.62	2.6412E00
816.93	2.7196E00
817.23	2.7091E00
817.53	2.6673E00
817.84	2.6503E00
818.14	2.6523E00
818.44	2.6966E00
818.74	2.8480E00
819.04	2.7542E00
819.35	2.7575E00
819.65	2.7721E00
819.95	2.7813E00
820.25	2.8903E00
820.56	3.0237E00
820.86	3.1248E00
821.16	3.2525E00
821.46	3.1803E00
821.76	3.1931E00
822.07	3.1806E00
822.37	2.9768E00
822.67	2.9639E00
822.97	2.6925E00
823.27	2.4535E00
823.57	2.4641E00
823.88	2.5320E00
824.18	2.6058E00
824.48	2.6893E00
824.78	2.7207E00
825.08	2.8641E00
825.38	2.9338E00
825.69	2.8219E00
825.99	2.8567E00
826.29	2.8825E00
826.59	2.8196E00
826.89	2.8547E00
827.19	2.9247E00
827.49	2.8058E00
827.79	2.6051E00
828.09	2.5258E00
828.39	2.4894E00
828.70	2.4708E00
829.00	2.4667E00
829.30	2.3689E00
829.60	2.3467E00
829.90	2.3735E00
830.20	2.2501E00
830.50	2.2673E00
830.80	2.3104E00
831.10	2.2019E00
831.40	2.2891E00
831.70	2.2291E00
832.00	2.2218E00
832.30	2.1237E00
832.60	2.1430E00
832.90	2.1304E00
833.20	2.1337E00
833.50	2.0358E00
833.80	2.0418E00
834.10	2.0356E00
834.40	2.1202E00
834.70	2.1158E00
835.00	2.0520E00
835.30	2.0648E00
835.60	2.0751E00
835.90	2.0623E00
836.20	2.0898E00
836.50	2.0859E00
836.80	2.2417E00
837.10	2.5798E00
837.40	2.1767E00
837.70	2.2277E00
838.00	2.0752E00
838.30	2.1322E00
838.60	2.2021E00
838.90	2.1793E00
839.19	2.4705E00
839.49	2.1199E00
839.79	2.2362E00
840.09	2.1336E00
840.39	2.1942E00
840.69	2.2030E00
840.99	2.3918E00
841.29	2.3027E00
841.59	2.1339E00
841.88	2.1090E00
842.18	2.2106E00
842.48	2.1430E00
842.78	2.1444E00
843.08	2.1291E00
843.38	2.0973E00
843.68	2.2977E00
843.97	2.3063E00
844.27	2.1961E00
844.57	2.1294E00
844.87	2.1466E00
845.17	2.1354E00
845.47	2.0773E00
845.76	2.2214E00
846.06	2.2655E00
846.36	2.6859E00
846.66	2.1762E00
846.96	2.2126E00
847.25	2.0768E00
847.55	2.0828E00
847.85	2.1359E00
848.15	2.0812E00
848.44	2.1083E00
848.74	2.0577E00
849.04	2.0746E00
849.34	2.1579E00
849.63	2.1018E00
849.93	2.0151E00
850.23	2.0317E00
850.53	1.9624E00
850.82	1.9871E00
851.12	1.9707E00
851.42	2.0268E00
851.71	2.0090E00
852.01	2.0036E00
852.31	2.0524E00
852.61	1.9831E00
852.90	2.0125E00
853.20	2.1222E00
853.50	2.4057E00
853.79	2.3034E00
854.09	1.9624E00
854.39	1.9123E00
854.68	1.9008E00
854.98	1.8569E00
855.28	1.9110E00
855.57	2.1023E00
855.87	1.9956E00
856.17	1.9982E00
856.46	1.8662E00
856.76	1.8973E00
857.05	2.0598E00
857.35	1.9602E00
857.65	2.1630E00
857.94	2.0857E00
858.24	2.1623E00
858.53	1.9900E00
858.83	2.5336E00
859.13	2.0219E00
859.42	1.9980E00
859.72	2.1357E00
860.01	2.0761E00
860.31	1.9928E00
860.60	2.0073E00
860.90	2.1746E00
861.20	2.0318E00
861.49	2.0348E00
861.79	2.0573E00
862.08	3.1772E00
862.38	2.3565E00
862.67	2.0659E00
862.97	2.0619E00
863.26	2.0026E00
863.56	2.2852E00
863.85	2.4103E00
864.15	1.9707E00
864.44	2.1143E00
864.74	2.0935E00
865.03	2.3389E00
865.33	2.1754E00
865.62	2.0900E00
865.92	1.9851E00
866.21	2.1033E00
866.51	2.0255E00
866.80	2.2682E00
867.10	2.3970E00
867.39	2.1175E00
867.69	2.3300E00
867.98	1.8830E00
868.27	1.9154E00
868.57	1.8999E00
868.86	2.2205E00
869.16	1.9839E00
869.45	2.0067E00
869.75	1.9531E00
870.04	2.0284E00
870.33	2.1839E00
870.63	1.9818E00
870.92	2.1012E00
871.22	3.1660E00
871.51	2.0406E00
871.80	2.2639E00
872.10	2.2639E00
>>>>>End Processed Spectral Data<<<<<
