SpectraSuite Data File
++++++++++++++++++++++++++++++++++++
Date: Tue May 12 12:57:17 PDT 2015
User: schluterlab
Dark Spectrum Present: Yes
Reference Spectrum Present: No
Number of Sampled Component Spectra: 1
Spectrometers: USB2E3373
Integration Time (usec): 2300000 (USB2E3373)
Spectra Averaged: 3 (USB2E3373)
Boxcar Smoothing: 0 (USB2E3373)
Correct for Electrical Dark: No (USB2E3373)
Strobe/Lamp Enabled: No (USB2E3373)
Correct for Detector Non-linearity: No (USB2E3373)
Correct for Stray Light: No (USB2E3373)
Number of Pixels in Processed Spectrum: 2048
>>>>>Begin Processed Spectral Data<<<<<
178.53	0.0000E00
178.91	0.0000E00
179.29	0.0000E00
179.67	0.0000E00
180.04	0.0000E00
180.42	0.0000E00
180.80	0.0000E00
181.18	0.0000E00
181.56	0.0000E00
181.94	0.0000E00
182.31	0.0000E00
182.69	0.0000E00
183.07	0.0000E00
183.45	0.0000E00
183.83	0.0000E00
184.20	0.0000E00
184.58	0.0000E00
184.96	0.0000E00
185.34	0.0000E00
185.72	0.0000E00
186.09	0.0000E00
186.47	0.0000E00
186.85	0.0000E00
187.23	0.0000E00
187.61	0.0000E00
187.98	0.0000E00
188.36	0.0000E00
188.74	0.0000E00
189.12	0.0000E00
189.49	0.0000E00
189.87	0.0000E00
190.25	0.0000E00
190.63	0.0000E00
191.00	0.0000E00
191.38	0.0000E00
191.76	0.0000E00
192.14	0.0000E00
192.51	0.0000E00
192.89	0.0000E00
193.27	0.0000E00
193.65	0.0000E00
194.02	0.0000E00
194.40	0.0000E00
194.78	0.0000E00
195.15	0.0000E00
195.53	-0.0000E00
195.91	0.0000E00
196.29	0.0000E00
196.66	0.0000E00
197.04	0.0000E00
197.42	0.0000E00
197.79	0.0000E00
198.17	0.0000E00
198.55	0.0000E00
198.92	0.0000E00
199.30	0.0000E00
199.68	0.0000E00
200.05	0.0000E00
200.43	0.0000E00
200.81	0.0000E00
201.18	0.0000E00
201.56	0.0000E00
201.94	0.0000E00
202.31	-0.0000E00
202.69	0.0000E00
203.07	0.0000E00
203.44	0.0000E00
203.82	0.0000E00
204.19	0.0000E00
204.57	0.0000E00
204.95	0.0000E00
205.32	0.0000E00
205.70	0.0000E00
206.08	0.0000E00
206.45	0.0000E00
206.83	0.0000E00
207.20	0.0000E00
207.58	0.0000E00
207.96	0.0000E00
208.33	0.0000E00
208.71	0.0000E00
209.08	0.0000E00
209.46	0.0000E00
209.84	0.0000E00
210.21	0.0000E00
210.59	0.0000E00
210.96	0.0000E00
211.34	0.0000E00
211.71	0.0000E00
212.09	0.0000E00
212.46	0.0000E00
212.84	0.0000E00
213.22	0.0000E00
213.59	0.0000E00
213.97	0.0000E00
214.34	0.0000E00
214.72	0.0000E00
215.09	0.0000E00
215.47	0.0000E00
215.84	0.0000E00
216.22	0.0000E00
216.59	0.0000E00
216.97	0.0000E00
217.34	0.0000E00
217.72	0.0000E00
218.09	0.0000E00
218.47	0.0000E00
218.84	0.0000E00
219.22	0.0000E00
219.59	0.0000E00
219.97	0.0000E00
220.34	0.0000E00
220.72	0.0000E00
221.09	0.0000E00
221.47	0.0000E00
221.84	0.0000E00
222.22	0.0000E00
222.59	0.0000E00
222.97	0.0000E00
223.34	0.0000E00
223.72	0.0000E00
224.09	0.0000E00
224.46	0.0000E00
224.84	0.0000E00
225.21	0.0000E00
225.59	0.0000E00
225.96	0.0000E00
226.34	0.0000E00
226.71	0.0000E00
227.08	0.0000E00
227.46	0.0000E00
227.83	0.0000E00
228.21	0.0000E00
228.58	0.0000E00
228.95	0.0000E00
229.33	0.0000E00
229.70	0.0000E00
230.08	0.0000E00
230.45	0.0000E00
230.82	0.0000E00
231.20	0.0000E00
231.57	0.0000E00
231.95	0.0000E00
232.32	0.0000E00
232.69	0.0000E00
233.07	0.0000E00
233.44	0.0000E00
233.81	0.0000E00
234.19	0.0000E00
234.56	0.0000E00
234.93	0.0000E00
235.31	0.0000E00
235.68	0.0000E00
236.05	0.0000E00
236.43	0.0000E00
236.80	0.0000E00
237.17	0.0000E00
237.55	0.0000E00
237.92	0.0000E00
238.29	0.0000E00
238.67	0.0000E00
239.04	0.0000E00
239.41	0.0000E00
239.79	0.0000E00
240.16	0.0000E00
240.53	0.0000E00
240.91	0.0000E00
241.28	0.0000E00
241.65	0.0000E00
242.02	0.0000E00
242.40	0.0000E00
242.77	0.0000E00
243.14	0.0000E00
243.51	0.0000E00
243.89	0.0000E00
244.26	0.0000E00
244.63	0.0000E00
245.00	0.0000E00
245.38	0.0000E00
245.75	0.0000E00
246.12	0.0000E00
246.49	0.0000E00
246.87	0.0000E00
247.24	0.0000E00
247.61	0.0000E00
247.98	0.0000E00
248.36	0.0000E00
248.73	0.0000E00
249.10	0.0000E00
249.47	0.0000E00
249.84	0.0000E00
250.22	0.0000E00
250.59	0.0000E00
250.96	0.0000E00
251.33	0.0000E00
251.70	0.0000E00
252.08	0.0000E00
252.45	0.0000E00
252.82	0.0000E00
253.19	0.0000E00
253.56	0.0000E00
253.94	0.0000E00
254.31	0.0000E00
254.68	0.0000E00
255.05	0.0000E00
255.42	0.0000E00
255.79	0.0000E00
256.16	0.0000E00
256.54	0.0000E00
256.91	0.0000E00
257.28	0.0000E00
257.65	0.0000E00
258.02	0.0000E00
258.39	0.0000E00
258.76	0.0000E00
259.14	0.0000E00
259.51	0.0000E00
259.88	0.0000E00
260.25	0.0000E00
260.62	0.0000E00
260.99	0.0000E00
261.36	0.0000E00
261.73	0.0000E00
262.10	0.0000E00
262.47	0.0000E00
262.85	0.0000E00
263.22	0.0000E00
263.59	0.0000E00
263.96	0.0000E00
264.33	0.0000E00
264.70	0.0000E00
265.07	0.0000E00
265.44	0.0000E00
265.81	0.0000E00
266.18	0.0000E00
266.55	0.0000E00
266.92	0.0000E00
267.29	0.0000E00
267.66	0.0000E00
268.03	0.0000E00
268.40	0.0000E00
268.77	0.0000E00
269.14	0.0000E00
269.51	0.0000E00
269.88	0.0000E00
270.25	0.0000E00
270.62	0.0000E00
270.99	0.0000E00
271.36	0.0000E00
271.73	0.0000E00
272.10	0.0000E00
272.47	0.0000E00
272.84	0.0000E00
273.21	0.0000E00
273.58	0.0000E00
273.95	0.0000E00
274.32	0.0000E00
274.69	0.0000E00
275.06	0.0000E00
275.43	0.0000E00
275.80	0.0000E00
276.17	0.0000E00
276.54	0.0000E00
276.91	0.0000E00
277.28	0.0000E00
277.65	0.0000E00
278.02	0.0000E00
278.39	0.0000E00
278.76	0.0000E00
279.13	0.0000E00
279.50	0.0000E00
279.87	0.0000E00
280.23	0.0000E00
280.60	0.0000E00
280.97	0.0000E00
281.34	0.0000E00
281.71	0.0000E00
282.08	0.0000E00
282.45	0.0000E00
282.82	0.0000E00
283.19	0.0000E00
283.56	0.0000E00
283.92	0.0000E00
284.29	0.0000E00
284.66	0.0000E00
285.03	0.0000E00
285.40	0.0000E00
285.77	0.0000E00
286.14	0.0000E00
286.51	0.0000E00
286.87	0.0000E00
287.24	0.0000E00
287.61	0.0000E00
287.98	0.0000E00
288.35	0.0000E00
288.72	0.0000E00
289.08	0.0000E00
289.45	0.0000E00
289.82	0.0000E00
290.19	0.0000E00
290.56	0.0000E00
290.93	0.0000E00
291.29	0.0000E00
291.66	0.0000E00
292.03	0.0000E00
292.40	0.0000E00
292.77	0.0000E00
293.13	0.0000E00
293.50	0.0000E00
293.87	0.0000E00
294.24	0.0000E00
294.60	0.0000E00
294.97	0.0000E00
295.34	0.0000E00
295.71	0.0000E00
296.08	0.0000E00
296.44	0.0000E00
296.81	0.0000E00
297.18	0.0000E00
297.55	0.0000E00
297.91	0.0000E00
298.28	0.0000E00
298.65	0.0000E00
299.02	0.0000E00
299.38	0.0000E00
299.75	0.0000E00
300.12	8.6623E-01
300.48	2.1382E00
300.85	9.1770E-01
301.22	2.4177E00
301.59	7.3448E-01
301.95	8.6922E-01
302.32	1.3299E00
302.69	1.3436E00
303.05	8.3615E-01
303.42	1.1354E00
303.79	1.3094E00
304.15	8.0298E-01
304.52	9.7519E-01
304.89	9.2704E-01
305.25	1.8343E00
305.62	1.2070E00
305.99	1.4489E00
306.35	8.9370E-01
306.72	1.2258E00
307.09	1.0087E00
307.45	1.0607E00
307.82	7.7917E-01
308.19	9.7186E-01
308.55	1.1263E00
308.92	1.2760E00
309.29	1.0764E00
309.65	1.1145E00
310.02	9.2657E-01
310.38	9.5702E-01
310.75	1.2086E00
311.12	1.1141E00
311.48	1.8599E00
311.85	1.1661E00
312.22	8.0307E-01
312.58	1.8816E00
312.95	1.1342E00
313.31	1.0549E00
313.68	1.3631E00
314.05	2.2150E00
314.41	1.2072E00
314.78	7.1146E-01
315.14	1.1748E00
315.51	2.4639E00
315.87	1.0637E00
316.24	1.5819E00
316.61	1.4407E00
316.97	9.5297E-01
317.34	1.4653E00
317.70	1.1481E00
318.07	1.1577E00
318.43	1.3707E00
318.80	1.0255E00
319.16	1.2837E00
319.53	8.9874E-01
319.89	1.8132E00
320.26	1.3724E00
320.62	1.6598E00
320.99	1.4557E00
321.35	8.4445E-01
321.72	1.1353E00
322.08	1.8077E00
322.45	9.8894E-01
322.81	1.1630E00
323.18	3.5168E00
323.54	1.8643E00
323.91	1.4276E00
324.27	2.7643E00
324.64	2.0107E00
325.00	1.4572E00
325.37	2.4427E00
325.73	8.9951E-01
326.10	3.0899E00
326.46	1.4340E00
326.83	1.1705E00
327.19	2.5082E00
327.56	9.6870E-01
327.92	1.4047E00
328.29	1.1188E00
328.65	1.4670E00
329.01	1.7376E00
329.38	1.1271E00
329.74	1.0098E00
330.11	1.4767E00
330.47	9.8458E-01
330.84	1.4224E00
331.20	1.4220E00
331.56	1.3224E00
331.93	1.4720E00
332.29	1.3644E00
332.66	9.5382E-01
333.02	1.1543E00
333.38	1.7270E00
333.75	8.0612E-01
334.11	1.2605E00
334.48	1.2579E00
334.84	1.1765E00
335.20	1.4458E00
335.57	2.6796E00
335.93	1.7829E00
336.29	1.3839E00
336.66	1.3339E00
337.02	9.3264E-01
337.38	1.1651E00
337.75	1.1300E00
338.11	9.5603E-01
338.47	1.3334E00
338.84	1.1006E00
339.20	9.1528E-01
339.56	2.6868E00
339.93	8.3871E-01
340.29	9.9870E-01
340.65	1.0894E00
341.02	1.8274E00
341.38	1.2452E00
341.74	1.3408E00
342.11	1.3064E00
342.47	1.3169E00
342.83	7.2435E-01
343.20	1.6749E00
343.56	1.0139E00
343.92	1.4128E00
344.28	9.3965E-01
344.65	1.4900E00
345.01	8.7749E-01
345.37	1.4187E00
345.73	1.2643E00
346.10	1.0841E00
346.46	1.2881E00
346.82	9.8236E-01
347.19	2.2301E00
347.55	9.1803E-01
347.91	9.2588E-01
348.27	1.0397E00
348.63	9.0441E-01
349.00	8.9418E-01
349.36	1.8018E00
349.72	1.1219E00
350.08	1.6359E00
350.45	9.3659E-01
350.81	8.7225E-01
351.17	1.1477E00
351.53	1.2435E00
351.89	1.0142E00
352.26	1.1641E00
352.62	9.6254E-01
352.98	1.1196E00
353.34	9.8930E-01
353.70	1.3062E00
354.07	9.5821E-01
354.43	9.0947E-01
354.79	1.0670E00
355.15	8.5300E-01
355.51	8.1485E-01
355.87	9.2198E-01
356.24	9.6127E-01
356.60	9.2998E-01
356.96	1.0078E00
357.32	9.0688E-01
357.68	8.5215E-01
358.04	7.6843E-01
358.40	8.4848E-01
358.77	7.8961E-01
359.13	9.3477E-01
359.49	9.9361E-01
359.85	9.6530E-01
360.21	7.2633E-01
360.57	8.8616E-01
360.93	8.7967E-01
361.29	9.3358E-01
361.66	7.7427E-01
362.02	7.1390E-01
362.38	9.3089E-01
362.74	8.1099E-01
363.10	8.5548E-01
363.46	9.9465E-01
363.82	8.5041E-01
364.18	1.0174E00
364.54	9.6448E-01
364.90	9.1878E-01
365.26	9.0321E-01
365.62	1.0324E00
365.98	9.0024E-01
366.35	7.2088E-01
366.71	8.7318E-01
367.07	1.1193E00
367.43	7.0775E-01
367.79	1.0109E00
368.15	9.2726E-01
368.51	1.0991E00
368.87	9.6167E-01
369.23	1.0279E00
369.59	8.0782E-01
369.95	8.7455E-01
370.31	8.3372E-01
370.67	9.8680E-01
371.03	8.3319E-01
371.39	8.1469E-01
371.75	8.2232E-01
372.11	8.4882E-01
372.47	7.8048E-01
372.83	7.8790E-01
373.19	6.5829E-01
373.55	8.6256E-01
373.91	8.8011E-01
374.27	9.4927E-01
374.63	9.2574E-01
374.99	8.4086E-01
375.35	8.0854E-01
375.71	8.2373E-01
376.07	8.3062E-01
376.42	8.2226E-01
376.78	7.4507E-01
377.14	8.4447E-01
377.50	9.2250E-01
377.86	7.8478E-01
378.22	7.4063E-01
378.58	7.4183E-01
378.94	7.1915E-01
379.30	7.5475E-01
379.66	7.4423E-01
380.02	7.2827E-01
380.38	7.0818E-01
380.74	7.4181E-01
381.09	7.7894E-01
381.45	7.1766E-01
381.81	6.9421E-01
382.17	7.3159E-01
382.53	7.6034E-01
382.89	6.8141E-01
383.25	7.1602E-01
383.61	7.0792E-01
383.97	6.8762E-01
384.32	6.8543E-01
384.68	6.5413E-01
385.04	7.2630E-01
385.40	7.4839E-01
385.76	7.4545E-01
386.12	7.0098E-01
386.48	7.1257E-01
386.83	6.6488E-01
387.19	6.6320E-01
387.55	7.4152E-01
387.91	7.1712E-01
388.27	6.7103E-01
388.62	7.5358E-01
388.98	6.8335E-01
389.34	7.5800E-01
389.70	6.8774E-01
390.06	7.1000E-01
390.42	7.1674E-01
390.77	6.9850E-01
391.13	7.1300E-01
391.49	7.0022E-01
391.85	7.3853E-01
392.20	6.5193E-01
392.56	6.6060E-01
392.92	6.7025E-01
393.28	6.7260E-01
393.64	7.0299E-01
393.99	7.1694E-01
394.35	7.0397E-01
394.71	6.9608E-01
395.07	6.8145E-01
395.42	6.8470E-01
395.78	6.9683E-01
396.14	6.2921E-01
396.50	6.3157E-01
396.85	6.9441E-01
397.21	6.6884E-01
397.57	6.8731E-01
397.92	6.4256E-01
398.28	6.2152E-01
398.64	7.3928E-01
399.00	5.9604E-01
399.35	6.1979E-01
399.71	6.6464E-01
400.07	6.4834E-01
400.42	6.3373E-01
400.78	6.4925E-01
401.14	6.5282E-01
401.49	6.0487E-01
401.85	6.0095E-01
402.21	6.1099E-01
402.57	6.0689E-01
402.92	6.4056E-01
403.28	6.0873E-01
403.63	6.0574E-01
403.99	6.1957E-01
404.35	6.0191E-01
404.70	5.9088E-01
405.06	5.9984E-01
405.42	6.1353E-01
405.77	5.7029E-01
406.13	5.7006E-01
406.49	5.6620E-01
406.84	5.7320E-01
407.20	5.5914E-01
407.55	6.0326E-01
407.91	6.1448E-01
408.27	5.7546E-01
408.62	5.7860E-01
408.98	5.8563E-01
409.34	5.9620E-01
409.69	5.6975E-01
410.05	6.0072E-01
410.40	5.7365E-01
410.76	5.3064E-01
411.11	5.3514E-01
411.47	5.8009E-01
411.83	5.4992E-01
412.18	5.6080E-01
412.54	5.4991E-01
412.89	5.4571E-01
413.25	5.6656E-01
413.60	5.9169E-01
413.96	5.5483E-01
414.31	5.5784E-01
414.67	5.8858E-01
415.03	5.7741E-01
415.38	5.9153E-01
415.74	5.8424E-01
416.09	5.8089E-01
416.45	5.8852E-01
416.80	5.7759E-01
417.16	5.7235E-01
417.51	5.6884E-01
417.87	5.4805E-01
418.22	5.4151E-01
418.58	5.5341E-01
418.93	5.2990E-01
419.29	5.6777E-01
419.64	5.5132E-01
420.00	5.2092E-01
420.35	5.1180E-01
420.71	5.3700E-01
421.06	5.3914E-01
421.42	5.5274E-01
421.77	5.4472E-01
422.12	5.4346E-01
422.48	5.1486E-01
422.83	5.5019E-01
423.19	5.2004E-01
423.54	5.2053E-01
423.90	5.2660E-01
424.25	4.9734E-01
424.61	5.4842E-01
424.96	5.1357E-01
425.31	5.1043E-01
425.67	4.8908E-01
426.02	5.1108E-01
426.38	5.1072E-01
426.73	4.8345E-01
427.09	5.0629E-01
427.44	4.8491E-01
427.79	4.9058E-01
428.15	5.0553E-01
428.50	5.0191E-01
428.85	5.1423E-01
429.21	4.7448E-01
429.56	4.6423E-01
429.92	4.7364E-01
430.27	4.8944E-01
430.62	4.8874E-01
430.98	4.9442E-01
431.33	4.8335E-01
431.68	4.6718E-01
432.04	4.6386E-01
432.39	4.7080E-01
432.74	4.8794E-01
433.10	4.5713E-01
433.45	4.8397E-01
433.80	4.8130E-01
434.16	4.9197E-01
434.51	4.6862E-01
434.86	4.8754E-01
435.22	4.6998E-01
435.57	5.0207E-01
435.92	4.9209E-01
436.28	4.8998E-01
436.63	4.5478E-01
436.98	4.8607E-01
437.34	4.8291E-01
437.69	4.5882E-01
438.04	4.4652E-01
438.39	4.7793E-01
438.75	4.8977E-01
439.10	4.4188E-01
439.45	4.7984E-01
439.81	4.7477E-01
440.16	4.4601E-01
440.51	4.6616E-01
440.86	4.6458E-01
441.22	4.5412E-01
441.57	4.5876E-01
441.92	4.4509E-01
442.27	4.6694E-01
442.63	4.5716E-01
442.98	4.8880E-01
443.33	4.7772E-01
443.68	4.4454E-01
444.03	4.1968E-01
444.39	4.2146E-01
444.74	4.5761E-01
445.09	4.6422E-01
445.44	4.6550E-01
445.79	4.1049E-01
446.15	4.4133E-01
446.50	4.5600E-01
446.85	4.2912E-01
447.20	4.1727E-01
447.55	4.5111E-01
447.91	4.3420E-01
448.26	4.4547E-01
448.61	4.4139E-01
448.96	4.3239E-01
449.31	4.3923E-01
449.66	4.4291E-01
450.02	4.3613E-01
450.37	4.3650E-01
450.72	4.3051E-01
451.07	4.6403E-01
451.42	4.6151E-01
451.77	4.3585E-01
452.12	4.3534E-01
452.47	4.5557E-01
452.83	4.1893E-01
453.18	4.4309E-01
453.53	4.3786E-01
453.88	4.1245E-01
454.23	4.0730E-01
454.58	4.0714E-01
454.93	4.3727E-01
455.28	4.3462E-01
455.63	4.2209E-01
455.98	4.1259E-01
456.34	4.3444E-01
456.69	4.2102E-01
457.04	4.2447E-01
457.39	3.9831E-01
457.74	4.0681E-01
458.09	3.9585E-01
458.44	3.9530E-01
458.79	3.8651E-01
459.14	3.9980E-01
459.49	4.1593E-01
459.84	3.9303E-01
460.19	4.1832E-01
460.54	4.1569E-01
460.89	3.8301E-01
461.24	4.1939E-01
461.59	4.0115E-01
461.94	4.0668E-01
462.29	3.7992E-01
462.64	4.0158E-01
462.99	4.0563E-01
463.34	4.2921E-01
463.69	4.0202E-01
464.04	3.7535E-01
464.39	3.8970E-01
464.74	3.9543E-01
465.09	4.0605E-01
465.44	3.8230E-01
465.79	3.9441E-01
466.14	3.9619E-01
466.49	3.8942E-01
466.84	3.8590E-01
467.19	3.9943E-01
467.54	4.0055E-01
467.89	3.8112E-01
468.24	3.6149E-01
468.59	3.7337E-01
468.94	3.6580E-01
469.29	3.6787E-01
469.64	3.7968E-01
469.99	3.6607E-01
470.34	3.5436E-01
470.68	3.7748E-01
471.03	3.6423E-01
471.38	3.6524E-01
471.73	3.4793E-01
472.08	3.4349E-01
472.43	3.3170E-01
472.78	3.5013E-01
473.13	3.4630E-01
473.48	3.4071E-01
473.83	3.3413E-01
474.17	3.3904E-01
474.52	3.3525E-01
474.87	3.2155E-01
475.22	3.2846E-01
475.57	3.1236E-01
475.92	3.0444E-01
476.27	3.1338E-01
476.61	3.0504E-01
476.96	2.9727E-01
477.31	2.8827E-01
477.66	2.9370E-01
478.01	2.9198E-01
478.36	2.9035E-01
478.70	2.8608E-01
479.05	2.9075E-01
479.40	2.7740E-01
479.75	2.7430E-01
480.10	2.7611E-01
480.45	2.6956E-01
480.79	2.6837E-01
481.14	2.7208E-01
481.49	2.6548E-01
481.84	2.6086E-01
482.19	2.5882E-01
482.53	2.5842E-01
482.88	2.5630E-01
483.23	2.5183E-01
483.58	2.4661E-01
483.92	2.5277E-01
484.27	2.4492E-01
484.62	2.4326E-01
484.97	2.3827E-01
485.31	2.3714E-01
485.66	2.4216E-01
486.01	2.4204E-01
486.36	2.3056E-01
486.70	2.3695E-01
487.05	2.3545E-01
487.40	2.3553E-01
487.75	2.2862E-01
488.09	2.2881E-01
488.44	2.3084E-01
488.79	2.2735E-01
489.13	2.2487E-01
489.48	2.2752E-01
489.83	2.2805E-01
490.17	2.2204E-01
490.52	2.2204E-01
490.87	2.2287E-01
491.22	2.2586E-01
491.56	2.2286E-01
491.91	2.2562E-01
492.26	2.2314E-01
492.60	2.2312E-01
492.95	2.2507E-01
493.30	2.2461E-01
493.64	2.2191E-01
493.99	2.2315E-01
494.34	2.2036E-01
494.68	2.1808E-01
495.03	2.2359E-01
495.37	2.2151E-01
495.72	2.2379E-01
496.07	2.1883E-01
496.41	2.2031E-01
496.76	2.1876E-01
497.11	2.2103E-01
497.45	2.1994E-01
497.80	2.2029E-01
498.14	2.2020E-01
498.49	2.2054E-01
498.84	2.2117E-01
499.18	2.2083E-01
499.53	2.2059E-01
499.87	2.1863E-01
500.22	2.2119E-01
500.56	2.2063E-01
500.91	2.2044E-01
501.26	2.2013E-01
501.60	2.1981E-01
501.95	2.1803E-01
502.29	2.2080E-01
502.64	2.1698E-01
502.98	2.2031E-01
503.33	2.1847E-01
503.67	2.1906E-01
504.02	2.1826E-01
504.36	2.1813E-01
504.71	2.1864E-01
505.06	2.1652E-01
505.40	2.1674E-01
505.75	2.1812E-01
506.09	2.1823E-01
506.44	2.1812E-01
506.78	2.1607E-01
507.13	2.1701E-01
507.47	2.1540E-01
507.82	2.1528E-01
508.16	2.1744E-01
508.51	2.1535E-01
508.85	2.1259E-01
509.19	2.1539E-01
509.54	2.1498E-01
509.88	2.1534E-01
510.23	2.1204E-01
510.57	2.1295E-01
510.92	2.1256E-01
511.26	2.1285E-01
511.61	2.1254E-01
511.95	2.1272E-01
512.30	2.1149E-01
512.64	2.1297E-01
512.98	2.0937E-01
513.33	2.1093E-01
513.67	2.1131E-01
514.02	2.1052E-01
514.36	2.0884E-01
514.70	2.1004E-01
515.05	2.0788E-01
515.39	2.0949E-01
515.74	2.0754E-01
516.08	2.0628E-01
516.42	2.0818E-01
516.77	2.0866E-01
517.11	2.0871E-01
517.46	2.0986E-01
517.80	2.0682E-01
518.14	2.0787E-01
518.49	2.0621E-01
518.83	2.0689E-01
519.17	2.0695E-01
519.52	2.0737E-01
519.86	2.0619E-01
520.20	2.0526E-01
520.55	2.0616E-01
520.89	2.0477E-01
521.23	2.0704E-01
521.58	2.0647E-01
521.92	2.0789E-01
522.26	2.0892E-01
522.61	2.0583E-01
522.95	2.0726E-01
523.29	2.0450E-01
523.64	2.0472E-01
523.98	2.0569E-01
524.32	2.0625E-01
524.66	2.0790E-01
525.01	2.0793E-01
525.35	2.0874E-01
525.69	2.0927E-01
526.04	2.0873E-01
526.38	2.0562E-01
526.72	2.0973E-01
527.06	2.0845E-01
527.41	2.1022E-01
527.75	2.1202E-01
528.09	2.1044E-01
528.43	2.1368E-01
528.78	2.1123E-01
529.12	2.1338E-01
529.46	2.1481E-01
529.80	2.1407E-01
530.15	2.1470E-01
530.49	2.1469E-01
530.83	2.1574E-01
531.17	2.1601E-01
531.51	2.1523E-01
531.86	2.1708E-01
532.20	2.1803E-01
532.54	2.1747E-01
532.88	2.1894E-01
533.22	2.2097E-01
533.57	2.2191E-01
533.91	2.2126E-01
534.25	2.2333E-01
534.59	2.2188E-01
534.93	2.2392E-01
535.27	2.2281E-01
535.62	2.2705E-01
535.96	2.2623E-01
536.30	2.2673E-01
536.64	2.2725E-01
536.98	2.2902E-01
537.32	2.2845E-01
537.66	2.2834E-01
538.01	2.3077E-01
538.35	2.3265E-01
538.69	2.2982E-01
539.03	2.3545E-01
539.37	2.3312E-01
539.71	2.3494E-01
540.05	2.3526E-01
540.39	2.3602E-01
540.73	2.3501E-01
541.07	2.3564E-01
541.42	2.3617E-01
541.76	2.3623E-01
542.10	2.3749E-01
542.44	2.3862E-01
542.78	2.3887E-01
543.12	2.3818E-01
543.46	2.4342E-01
543.80	2.4030E-01
544.14	2.4021E-01
544.48	2.3930E-01
544.82	2.4200E-01
545.16	2.4264E-01
545.50	2.4089E-01
545.84	2.4332E-01
546.18	2.4159E-01
546.52	2.4439E-01
546.86	2.4235E-01
547.20	2.4555E-01
547.54	2.4869E-01
547.88	2.4413E-01
548.22	2.4486E-01
548.56	2.4594E-01
548.90	2.4430E-01
549.24	2.4637E-01
549.58	2.4717E-01
549.92	2.4550E-01
550.26	2.4956E-01
550.60	2.4608E-01
550.94	2.4479E-01
551.28	2.4820E-01
551.62	2.4663E-01
551.96	2.4905E-01
552.30	2.5013E-01
552.64	2.4899E-01
552.98	2.4911E-01
553.32	2.4949E-01
553.66	2.4808E-01
554.00	2.4865E-01
554.34	2.4957E-01
554.68	2.5043E-01
555.02	2.5076E-01
555.36	2.5164E-01
555.69	2.5066E-01
556.03	2.5055E-01
556.37	2.5169E-01
556.71	2.4958E-01
557.05	2.4933E-01
557.39	2.4976E-01
557.73	2.5011E-01
558.07	2.5201E-01
558.41	2.5085E-01
558.75	2.5118E-01
559.08	2.5142E-01
559.42	2.4918E-01
559.76	2.5287E-01
560.10	2.5249E-01
560.44	2.5242E-01
560.78	2.5002E-01
561.12	2.5167E-01
561.45	2.5103E-01
561.79	2.5225E-01
562.13	2.5233E-01
562.47	2.5247E-01
562.81	2.5283E-01
563.15	2.5240E-01
563.48	2.5327E-01
563.82	2.4991E-01
564.16	2.5240E-01
564.50	2.5245E-01
564.84	2.5306E-01
565.17	2.5328E-01
565.51	2.5261E-01
565.85	2.5465E-01
566.19	2.5169E-01
566.52	2.5512E-01
566.86	2.5214E-01
567.20	2.5470E-01
567.54	2.5367E-01
567.88	2.5409E-01
568.21	2.5389E-01
568.55	2.5531E-01
568.89	2.5525E-01
569.23	2.5532E-01
569.56	2.5477E-01
569.90	2.5569E-01
570.24	2.5754E-01
570.57	2.5730E-01
570.91	2.5763E-01
571.25	2.5432E-01
571.59	2.5745E-01
571.92	2.5705E-01
572.26	2.5810E-01
572.60	2.6010E-01
572.93	2.5900E-01
573.27	2.6125E-01
573.61	2.6171E-01
573.95	2.5765E-01
574.28	2.6218E-01
574.62	2.6240E-01
574.96	2.6258E-01
575.29	2.6195E-01
575.63	2.6607E-01
575.97	2.6531E-01
576.30	2.7120E-01
576.64	2.6798E-01
576.98	2.6764E-01
577.31	2.6908E-01
577.65	2.7161E-01
577.98	2.6969E-01
578.32	2.7207E-01
578.66	2.7346E-01
578.99	2.7399E-01
579.33	2.7506E-01
579.67	2.7311E-01
580.00	2.7681E-01
580.34	2.7591E-01
580.67	2.7741E-01
581.01	2.7976E-01
581.35	2.8097E-01
581.68	2.8204E-01
582.02	2.8088E-01
582.35	2.8301E-01
582.69	2.8302E-01
583.02	2.8753E-01
583.36	2.8469E-01
583.70	2.8434E-01
584.03	2.8630E-01
584.37	2.8439E-01
584.70	2.9041E-01
585.04	2.9029E-01
585.37	2.8888E-01
585.71	2.9350E-01
586.04	2.9240E-01
586.38	2.9054E-01
586.72	2.9443E-01
587.05	2.9595E-01
587.39	2.9686E-01
587.72	2.9484E-01
588.06	2.9747E-01
588.39	2.9688E-01
588.73	3.0008E-01
589.06	2.9810E-01
589.40	3.0254E-01
589.73	3.0398E-01
590.07	3.0483E-01
590.40	3.0481E-01
590.73	3.0855E-01
591.07	3.0555E-01
591.40	3.1218E-01
591.74	3.0518E-01
592.07	3.0934E-01
592.41	3.1070E-01
592.74	3.1146E-01
593.08	3.0980E-01
593.41	3.1185E-01
593.75	3.0950E-01
594.08	3.1447E-01
594.41	3.1298E-01
594.75	3.1441E-01
595.08	3.1390E-01
595.42	3.1024E-01
595.75	3.1532E-01
596.09	3.1524E-01
596.42	3.1360E-01
596.75	3.1765E-01
597.09	3.1878E-01
597.42	3.1592E-01
597.75	3.1960E-01
598.09	3.2039E-01
598.42	3.1792E-01
598.76	3.2004E-01
599.09	3.2402E-01
599.42	3.2367E-01
599.76	3.2256E-01
600.09	3.2150E-01
600.42	3.2626E-01
600.76	3.2003E-01
601.09	3.2375E-01
601.42	3.2727E-01
601.76	3.2340E-01
602.09	3.2258E-01
602.42	3.2477E-01
602.76	3.2349E-01
603.09	3.2279E-01
603.42	3.2869E-01
603.76	3.2477E-01
604.09	3.2490E-01
604.42	3.2726E-01
604.76	3.2489E-01
605.09	3.2999E-01
605.42	3.2695E-01
605.75	3.2842E-01
606.09	3.2671E-01
606.42	3.2782E-01
606.75	3.2937E-01
607.09	3.2972E-01
607.42	3.3004E-01
607.75	3.3028E-01
608.08	3.2975E-01
608.42	3.3251E-01
608.75	3.2871E-01
609.08	3.3279E-01
609.41	3.3225E-01
609.75	3.3031E-01
610.08	3.3256E-01
610.41	3.3430E-01
610.74	3.3338E-01
611.07	3.3351E-01
611.41	3.3281E-01
611.74	3.3405E-01
612.07	3.3602E-01
612.40	3.3098E-01
612.73	3.3448E-01
613.07	3.3660E-01
613.40	3.3274E-01
613.73	3.3181E-01
614.06	3.3489E-01
614.39	3.3582E-01
614.72	3.3705E-01
615.06	3.3639E-01
615.39	3.4036E-01
615.72	3.3486E-01
616.05	3.3824E-01
616.38	3.3916E-01
616.71	3.4001E-01
617.05	3.3808E-01
617.38	3.4023E-01
617.71	3.3777E-01
618.04	3.3981E-01
618.37	3.3784E-01
618.70	3.3889E-01
619.03	3.4002E-01
619.36	3.3445E-01
619.69	3.4150E-01
620.03	3.3787E-01
620.36	3.3873E-01
620.69	3.3732E-01
621.02	3.4019E-01
621.35	3.3884E-01
621.68	3.3606E-01
622.01	3.3502E-01
622.34	3.3693E-01
622.67	3.3623E-01
623.00	3.3746E-01
623.33	3.3817E-01
623.66	3.3569E-01
623.99	3.3642E-01
624.32	3.3547E-01
624.65	3.3647E-01
624.99	3.3644E-01
625.32	3.3752E-01
625.65	3.3691E-01
625.98	3.3181E-01
626.31	3.3635E-01
626.64	3.3688E-01
626.97	3.3733E-01
627.30	3.3482E-01
627.63	3.3661E-01
627.96	3.3376E-01
628.29	3.3365E-01
628.62	3.3668E-01
628.95	3.3664E-01
629.28	3.3149E-01
629.61	3.4197E-01
629.94	3.3710E-01
630.26	3.3758E-01
630.59	3.3948E-01
630.92	3.3744E-01
631.25	3.3947E-01
631.58	3.4277E-01
631.91	3.3803E-01
632.24	3.4528E-01
632.57	3.4196E-01
632.90	3.4250E-01
633.23	3.4287E-01
633.56	3.4474E-01
633.89	3.4520E-01
634.22	3.4640E-01
634.55	3.4743E-01
634.88	3.5159E-01
635.20	3.5048E-01
635.53	3.5296E-01
635.86	3.5321E-01
636.19	3.5719E-01
636.52	3.5855E-01
636.85	3.5546E-01
637.18	3.5975E-01
637.51	3.5683E-01
637.83	3.6059E-01
638.16	3.5692E-01
638.49	3.6772E-01
638.82	3.6643E-01
639.15	3.6870E-01
639.48	3.7140E-01
639.81	3.7370E-01
640.13	3.7032E-01
640.46	3.7569E-01
640.79	3.7560E-01
641.12	3.7916E-01
641.45	3.7825E-01
641.77	3.7601E-01
642.10	3.8503E-01
642.43	3.8583E-01
642.76	3.8762E-01
643.09	3.8524E-01
643.41	3.8827E-01
643.74	3.8907E-01
644.07	3.8852E-01
644.40	3.9178E-01
644.73	3.9615E-01
645.05	3.9746E-01
645.38	4.0049E-01
645.71	4.0159E-01
646.04	4.0154E-01
646.36	4.0075E-01
646.69	4.0690E-01
647.02	4.0720E-01
647.35	4.0474E-01
647.67	4.0987E-01
648.00	4.0888E-01
648.33	4.1377E-01
648.66	4.1140E-01
648.98	4.1688E-01
649.31	4.1579E-01
649.64	4.1779E-01
649.96	4.2169E-01
650.29	4.2403E-01
650.62	4.2433E-01
650.94	4.2368E-01
651.27	4.2348E-01
651.60	4.2471E-01
651.92	4.3187E-01
652.25	4.3263E-01
652.58	4.3168E-01
652.90	4.3387E-01
653.23	4.3414E-01
653.56	4.3561E-01
653.88	4.3740E-01
654.21	4.3758E-01
654.54	4.3983E-01
654.86	4.4486E-01
655.19	4.3983E-01
655.52	4.4678E-01
655.84	4.4568E-01
656.17	4.4806E-01
656.49	4.5309E-01
656.82	4.4797E-01
657.15	4.5282E-01
657.47	4.5279E-01
657.80	4.5306E-01
658.13	4.5467E-01
658.45	4.5777E-01
658.78	4.5633E-01
659.10	4.6174E-01
659.43	4.6157E-01
659.75	4.6056E-01
660.08	4.5856E-01
660.41	4.6463E-01
660.73	4.6515E-01
661.06	4.6864E-01
661.38	4.6708E-01
661.71	4.6862E-01
662.03	4.6874E-01
662.36	4.7495E-01
662.68	4.7386E-01
663.01	4.6802E-01
663.33	4.7229E-01
663.66	4.7591E-01
663.98	4.7299E-01
664.31	4.7364E-01
664.63	4.8257E-01
664.96	4.7943E-01
665.28	4.8319E-01
665.61	4.8187E-01
665.93	4.8300E-01
666.26	4.8542E-01
666.58	4.8606E-01
666.91	4.8256E-01
667.23	4.8818E-01
667.56	4.8228E-01
667.88	4.8982E-01
668.21	4.8975E-01
668.53	4.8736E-01
668.86	4.9731E-01
669.18	4.9011E-01
669.50	5.0104E-01
669.83	4.9899E-01
670.15	5.0030E-01
670.48	4.9948E-01
670.80	4.9774E-01
671.13	4.9533E-01
671.45	5.0130E-01
671.77	5.0419E-01
672.10	5.0047E-01
672.42	5.0825E-01
672.75	5.0522E-01
673.07	5.0953E-01
673.39	5.0437E-01
673.72	5.0781E-01
674.04	5.1142E-01
674.37	5.1528E-01
674.69	5.1196E-01
675.01	5.1603E-01
675.34	5.1750E-01
675.66	5.1885E-01
675.98	5.1361E-01
676.31	5.2139E-01
676.63	5.2290E-01
676.95	5.2036E-01
677.28	5.2443E-01
677.60	5.2429E-01
677.92	5.2246E-01
678.25	5.2836E-01
678.57	5.2967E-01
678.89	5.2760E-01
679.22	5.3575E-01
679.54	5.3316E-01
679.86	5.3334E-01
680.18	5.3523E-01
680.51	5.3672E-01
680.83	5.4201E-01
681.15	5.3652E-01
681.48	5.4010E-01
681.80	5.4428E-01
682.12	5.4069E-01
682.44	5.4927E-01
682.77	5.4957E-01
683.09	5.5263E-01
683.41	5.5067E-01
683.73	5.5622E-01
684.06	5.5509E-01
684.38	5.5663E-01
684.70	5.5516E-01
685.02	5.6047E-01
685.34	5.6631E-01
685.67	5.6162E-01
685.99	5.6888E-01
686.31	5.6501E-01
686.63	5.7411E-01
686.96	5.7102E-01
687.28	5.7771E-01
687.60	5.6979E-01
687.92	5.7633E-01
688.24	5.8212E-01
688.56	5.8334E-01
688.89	5.8530E-01
689.21	5.8236E-01
689.53	5.8565E-01
689.85	5.9399E-01
690.17	5.9003E-01
690.49	5.9865E-01
690.82	5.9848E-01
691.14	5.9881E-01
691.46	6.0159E-01
691.78	6.0596E-01
692.10	5.9911E-01
692.42	6.0589E-01
692.74	6.1101E-01
693.06	6.1233E-01
693.39	6.2213E-01
693.71	6.2367E-01
694.03	6.2371E-01
694.35	6.2515E-01
694.67	6.2711E-01
694.99	6.3354E-01
695.31	6.3567E-01
695.63	6.3448E-01
695.95	6.4033E-01
696.27	6.3803E-01
696.59	6.4390E-01
696.91	6.5281E-01
697.23	6.5135E-01
697.56	6.4999E-01
697.88	6.5737E-01
698.20	6.5667E-01
698.52	6.6284E-01
698.84	6.6825E-01
699.16	6.7310E-01
699.48	6.6652E-01
699.80	6.7483E-01
700.12	6.8079E-01
700.44	6.8248E-01
700.76	6.8390E-01
701.08	6.8842E-01
701.40	6.9064E-01
701.72	6.9796E-01
702.04	6.9712E-01
702.36	7.0298E-01
702.68	7.0636E-01
703.00	7.1147E-01
703.32	7.1573E-01
703.64	7.1642E-01
703.96	7.0936E-01
704.28	7.2044E-01
704.60	7.2857E-01
704.91	7.3059E-01
705.23	7.3152E-01
705.55	7.4012E-01
705.87	7.3485E-01
706.19	7.3713E-01
706.51	7.4219E-01
706.83	7.4583E-01
707.15	7.6527E-01
707.47	7.4865E-01
707.79	7.6370E-01
708.11	7.6522E-01
708.43	7.6870E-01
708.74	7.7532E-01
709.06	7.8590E-01
709.38	7.8134E-01
709.70	7.7690E-01
710.02	7.8759E-01
710.34	7.8430E-01
710.66	8.0435E-01
710.98	7.9965E-01
711.29	7.9919E-01
711.61	8.1306E-01
711.93	8.1813E-01
712.25	8.1156E-01
712.57	8.2258E-01
712.89	8.2532E-01
713.20	8.2684E-01
713.52	8.3485E-01
713.84	8.4238E-01
714.16	8.3581E-01
714.48	8.3799E-01
714.80	8.5188E-01
715.11	8.4989E-01
715.43	8.6204E-01
715.75	8.6714E-01
716.07	8.7599E-01
716.39	8.5961E-01
716.70	8.7002E-01
717.02	8.6608E-01
717.34	8.9167E-01
717.66	8.8293E-01
717.97	8.9333E-01
718.29	8.9896E-01
718.61	9.1159E-01
718.93	9.1064E-01
719.24	9.1300E-01
719.56	9.3256E-01
719.88	9.2441E-01
720.20	9.3678E-01
720.51	9.4755E-01
720.83	9.4443E-01
721.15	9.6402E-01
721.46	9.5999E-01
721.78	9.6517E-01
722.10	9.7968E-01
722.42	9.8939E-01
722.73	9.9527E-01
723.05	9.8383E-01
723.37	9.9691E-01
723.68	1.0071E00
724.00	1.0074E00
724.32	1.0249E00
724.63	1.0232E00
724.95	1.0169E00
725.27	1.0275E00
725.58	1.0336E00
725.90	1.0337E00
726.22	1.0504E00
726.53	1.0282E00
726.85	1.0433E00
727.16	1.0643E00
727.48	1.0464E00
727.80	1.0572E00
728.11	1.0626E00
728.43	1.0603E00
728.74	1.0551E00
729.06	1.0745E00
729.38	1.0707E00
729.69	1.0756E00
730.01	1.0839E00
730.32	1.0903E00
730.64	1.0901E00
730.96	1.0791E00
731.27	1.1087E00
731.59	1.0835E00
731.90	1.0957E00
732.22	1.1055E00
732.53	1.1028E00
732.85	1.1171E00
733.16	1.1126E00
733.48	1.1197E00
733.80	1.1138E00
734.11	1.1339E00
734.43	1.1333E00
734.74	1.1321E00
735.06	1.1461E00
735.37	1.1559E00
735.69	1.1397E00
736.00	1.1533E00
736.32	1.1556E00
736.63	1.1627E00
736.95	1.1607E00
737.26	1.1829E00
737.58	1.1810E00
737.89	1.1902E00
738.21	1.1786E00
738.52	1.1857E00
738.83	1.1893E00
739.15	1.1888E00
739.46	1.2060E00
739.78	1.2020E00
740.09	1.2169E00
740.41	1.2097E00
740.72	1.2050E00
741.04	1.2068E00
741.35	1.2085E00
741.66	1.2296E00
741.98	1.2224E00
742.29	1.2293E00
742.61	1.2225E00
742.92	1.2276E00
743.23	1.2270E00
743.55	1.2355E00
743.86	1.2259E00
744.18	1.2332E00
744.49	1.2345E00
744.80	1.2316E00
745.12	1.2333E00
745.43	1.2381E00
745.74	1.2375E00
746.06	1.2289E00
746.37	1.2267E00
746.68	1.2363E00
747.00	1.2344E00
747.31	1.2254E00
747.62	1.2178E00
747.94	1.2379E00
748.25	1.2373E00
748.56	1.2383E00
748.88	1.2220E00
749.19	1.2313E00
749.50	1.2341E00
749.82	1.2263E00
750.13	1.2328E00
750.44	1.2351E00
750.75	1.2205E00
751.07	1.2367E00
751.38	1.2450E00
751.69	1.2206E00
752.01	1.2376E00
752.32	1.2369E00
752.63	1.2380E00
752.94	1.2454E00
753.26	1.2510E00
753.57	1.2387E00
753.88	1.2466E00
754.19	1.2474E00
754.51	1.2504E00
754.82	1.2458E00
755.13	1.2611E00
755.44	1.2589E00
755.75	1.2630E00
756.07	1.2643E00
756.38	1.2780E00
756.69	1.2748E00
757.00	1.2814E00
757.31	1.2977E00
757.63	1.3039E00
757.94	1.3072E00
758.25	1.3207E00
758.56	1.2888E00
758.87	1.3328E00
759.18	1.3368E00
759.50	1.3344E00
759.81	1.3286E00
760.12	1.3368E00
760.43	1.3484E00
760.74	1.3446E00
761.05	1.3712E00
761.36	1.3740E00
761.67	1.3854E00
761.99	1.3939E00
762.30	1.3730E00
762.61	1.4065E00
762.92	1.4046E00
763.23	1.4060E00
763.54	1.4210E00
763.85	1.4443E00
764.16	1.4456E00
764.47	1.4638E00
764.78	1.4740E00
765.10	1.4764E00
765.41	1.4777E00
765.72	1.4866E00
766.03	1.5217E00
766.34	1.5318E00
766.65	1.5400E00
766.96	1.5725E00
767.27	1.5610E00
767.58	1.5620E00
767.89	1.5781E00
768.20	1.6032E00
768.51	1.6038E00
768.82	1.6079E00
769.13	1.6379E00
769.44	1.6593E00
769.75	1.6567E00
770.06	1.6621E00
770.37	1.6591E00
770.68	1.7005E00
770.99	1.7127E00
771.30	1.7215E00
771.61	1.7743E00
771.92	1.7354E00
772.23	1.7578E00
772.54	1.7960E00
772.85	1.7788E00
773.16	1.7966E00
773.47	1.8500E00
773.78	1.8362E00
774.09	1.8667E00
774.39	1.8699E00
774.70	1.8740E00
775.01	1.9126E00
775.32	1.9210E00
775.63	1.9446E00
775.94	1.9636E00
776.25	1.9524E00
776.56	1.9699E00
776.87	2.0224E00
777.18	2.0165E00
777.48	2.0354E00
777.79	2.0567E00
778.10	2.0731E00
778.41	2.0894E00
778.72	2.1127E00
779.03	2.1226E00
779.34	2.1672E00
779.65	2.1696E00
779.95	2.2114E00
780.26	2.1919E00
780.57	2.2294E00
780.88	2.2244E00
781.19	2.2647E00
781.50	2.2666E00
781.80	2.2888E00
782.11	2.2924E00
782.42	2.3475E00
782.73	2.3033E00
783.04	2.3935E00
783.34	2.3927E00
783.65	2.4124E00
783.96	2.4198E00
784.27	2.4335E00
784.57	2.4531E00
784.88	2.4820E00
785.19	2.4924E00
785.50	2.5222E00
785.81	2.5534E00
786.11	2.5190E00
786.42	2.5470E00
786.73	2.5711E00
787.04	2.6058E00
787.34	2.6527E00
787.65	2.6657E00
787.96	2.7251E00
788.26	2.7062E00
788.57	2.7630E00
788.88	2.7304E00
789.19	2.8144E00
789.49	2.7859E00
789.80	2.8384E00
790.11	2.8451E00
790.41	2.8751E00
790.72	2.9015E00
791.03	2.9157E00
791.33	2.9468E00
791.64	3.0134E00
791.95	2.9571E00
792.25	3.0538E00
792.56	3.0250E00
792.87	3.0690E00
793.17	3.0901E00
793.48	3.1034E00
793.79	3.1344E00
794.09	3.1947E00
794.40	3.1508E00
794.70	3.1597E00
795.01	3.1728E00
795.32	3.2148E00
795.62	3.2806E00
795.93	3.2838E00
796.23	3.2940E00
796.54	3.3372E00
796.85	3.3230E00
797.15	3.3675E00
797.46	3.3982E00
797.76	3.4822E00
798.07	3.4659E00
798.37	3.4746E00
798.68	3.5301E00
798.99	3.5270E00
799.29	3.5645E00
799.60	3.6262E00
799.90	3.6251E00
800.21	3.6780E00
800.51	3.7056E00
800.82	3.6987E00
801.12	3.7677E00
801.43	3.7591E00
801.73	3.8404E00
802.04	3.8289E00
802.34	3.8220E00
802.65	3.8710E00
802.95	3.9999E00
803.26	3.9717E00
803.56	3.9008E00
803.87	3.9625E00
804.17	3.9893E00
804.48	3.9903E00
804.78	4.0601E00
805.09	4.1298E00
805.39	4.1059E00
805.70	4.1276E00
806.00	4.1907E00
806.30	4.1833E00
806.61	4.2475E00
806.91	4.2739E00
807.22	4.3190E00
807.52	4.3394E00
807.83	4.3604E00
808.13	4.4086E00
808.43	4.3220E00
808.74	4.4452E00
809.04	4.4829E00
809.35	4.4619E00
809.65	4.5685E00
809.95	4.5866E00
810.26	4.6431E00
810.56	4.6609E00
810.86	4.7222E00
811.17	4.7579E00
811.47	4.7528E00
811.77	4.7524E00
812.08	4.7492E00
812.38	4.8934E00
812.69	4.7980E00
812.99	4.9502E00
813.29	4.9781E00
813.59	5.0227E00
813.90	5.0345E00
814.20	5.0395E00
814.50	5.1071E00
814.81	5.0541E00
815.11	5.1683E00
815.41	5.3002E00
815.72	5.2350E00
816.02	5.2676E00
816.32	5.2820E00
816.62	5.2445E00
816.93	5.3439E00
817.23	5.5075E00
817.53	5.4082E00
817.84	5.5146E00
818.14	5.5123E00
818.44	5.4941E00
818.74	5.6551E00
819.04	5.7585E00
819.35	5.6923E00
819.65	5.7384E00
819.95	5.8905E00
820.25	5.8938E00
820.56	5.8856E00
820.86	5.9521E00
821.16	6.0021E00
821.46	6.0031E00
821.76	6.0362E00
822.07	5.9887E00
822.37	6.0970E00
822.67	6.1965E00
822.97	6.2385E00
823.27	6.2263E00
823.57	6.3263E00
823.88	6.2898E00
824.18	6.3990E00
824.48	6.3860E00
824.78	6.4675E00
825.08	6.4410E00
825.38	6.5500E00
825.69	6.5491E00
825.99	6.6462E00
826.29	6.6804E00
826.59	6.6567E00
826.89	6.7766E00
827.19	6.6066E00
827.49	7.0437E00
827.79	6.9400E00
828.09	6.8762E00
828.39	7.0452E00
828.70	7.0187E00
829.00	7.0123E00
829.30	7.1392E00
829.60	7.2486E00
829.90	7.1476E00
830.20	7.0921E00
830.50	7.4137E00
830.80	7.4555E00
831.10	7.3063E00
831.40	7.5659E00
831.70	7.4811E00
832.00	7.5240E00
832.30	7.7425E00
832.60	7.6280E00
832.90	7.7772E00
833.20	7.9201E00
833.50	7.7490E00
833.80	7.8850E00
834.10	7.9598E00
834.40	7.8284E00
834.70	8.0052E00
835.00	8.0457E00
835.30	8.0187E00
835.60	8.1474E00
835.90	8.2143E00
836.20	8.4152E00
836.50	8.3994E00
836.80	8.4128E00
837.10	8.3630E00
837.40	8.5152E00
837.70	8.5748E00
838.00	8.5668E00
838.30	8.5414E00
838.60	8.8757E00
838.90	8.8671E00
839.19	8.7806E00
839.49	9.1135E00
839.79	9.0016E00
840.09	9.0970E00
840.39	8.9466E00
840.69	9.1241E00
840.99	9.6235E00
841.29	9.4804E00
841.59	9.4941E00
841.88	9.5457E00
842.18	9.6088E00
842.48	9.8514E00
842.78	9.7882E00
843.08	9.9084E00
843.38	9.7653E00
843.68	1.0070E01
843.97	1.0108E01
844.27	1.0146E01
844.57	1.0333E01
844.87	1.0385E01
845.17	1.0278E01
845.47	1.0152E01
845.76	1.0455E01
846.06	1.0632E01
846.36	1.0532E01
846.66	1.0760E01
846.96	1.0695E01
847.25	1.0720E01
847.55	1.0807E01
847.85	1.1082E01
848.15	1.0892E01
848.44	1.1241E01
848.74	1.0973E01
849.04	1.1266E01
849.34	1.1340E01
849.63	1.1573E01
849.93	1.1537E01
850.23	1.1994E01
850.53	1.1498E01
850.82	1.1799E01
851.12	1.1789E01
851.42	1.1662E01
851.71	1.1961E01
852.01	1.2218E01
852.31	1.2437E01
852.61	1.2504E01
852.90	1.2514E01
853.20	1.2640E01
853.50	1.2832E01
853.79	1.3163E01
854.09	1.2681E01
854.39	1.2884E01
854.68	1.3591E01
854.98	1.3406E01
855.28	1.3361E01
855.57	1.3507E01
855.87	1.3560E01
856.17	1.3634E01
856.46	1.3614E01
856.76	1.3733E01
857.05	1.3984E01
857.35	1.4091E01
857.65	1.3919E01
857.94	1.4277E01
858.24	1.4239E01
858.53	1.4589E01
858.83	1.4539E01
859.13	1.4787E01
859.42	1.4626E01
859.72	1.5130E01
860.01	1.5679E01
860.31	1.5304E01
860.60	1.5655E01
860.90	1.5627E01
861.20	1.5853E01
861.49	1.5577E01
861.79	1.6291E01
862.08	1.6341E01
862.38	1.6633E01
862.67	1.6575E01
862.97	1.6707E01
863.26	1.6550E01
863.56	1.7452E01
863.85	1.7319E01
864.15	1.7105E01
864.44	1.7715E01
864.74	1.7529E01
865.03	1.7664E01
865.33	1.7810E01
865.62	1.8243E01
865.92	1.8038E01
866.21	1.9238E01
866.51	1.9086E01
866.80	1.8999E01
867.10	1.9408E01
867.39	1.9099E01
867.69	1.9866E01
867.98	1.9051E01
868.27	1.9706E01
868.57	1.9740E01
868.86	2.0892E01
869.16	2.0581E01
869.45	2.0708E01
869.75	2.0178E01
870.04	2.1034E01
870.33	2.1255E01
870.63	2.1040E01
870.92	2.2050E01
871.22	2.2339E01
871.51	2.1971E01
871.80	2.2257E01
872.10	2.2257E01
>>>>>End Processed Spectral Data<<<<<
