SpectraSuite Data File
++++++++++++++++++++++++++++++++++++
Date: Tue May 12 12:57:37 PDT 2015
User: schluterlab
Dark Spectrum Present: Yes
Reference Spectrum Present: No
Number of Sampled Component Spectra: 1
Spectrometers: USB2E3373
Integration Time (usec): 2300000 (USB2E3373)
Spectra Averaged: 3 (USB2E3373)
Boxcar Smoothing: 0 (USB2E3373)
Correct for Electrical Dark: No (USB2E3373)
Strobe/Lamp Enabled: No (USB2E3373)
Correct for Detector Non-linearity: No (USB2E3373)
Correct for Stray Light: No (USB2E3373)
Number of Pixels in Processed Spectrum: 2048
>>>>>Begin Processed Spectral Data<<<<<
178.53	0.0000E00
178.91	0.0000E00
179.29	0.0000E00
179.67	0.0000E00
180.04	0.0000E00
180.42	0.0000E00
180.80	0.0000E00
181.18	0.0000E00
181.56	0.0000E00
181.94	0.0000E00
182.31	0.0000E00
182.69	0.0000E00
183.07	0.0000E00
183.45	0.0000E00
183.83	0.0000E00
184.20	0.0000E00
184.58	0.0000E00
184.96	0.0000E00
185.34	0.0000E00
185.72	0.0000E00
186.09	0.0000E00
186.47	0.0000E00
186.85	0.0000E00
187.23	0.0000E00
187.61	0.0000E00
187.98	0.0000E00
188.36	0.0000E00
188.74	0.0000E00
189.12	0.0000E00
189.49	0.0000E00
189.87	0.0000E00
190.25	0.0000E00
190.63	0.0000E00
191.00	0.0000E00
191.38	0.0000E00
191.76	0.0000E00
192.14	0.0000E00
192.51	0.0000E00
192.89	0.0000E00
193.27	0.0000E00
193.65	0.0000E00
194.02	0.0000E00
194.40	0.0000E00
194.78	0.0000E00
195.15	0.0000E00
195.53	-0.0000E00
195.91	0.0000E00
196.29	0.0000E00
196.66	0.0000E00
197.04	0.0000E00
197.42	0.0000E00
197.79	0.0000E00
198.17	0.0000E00
198.55	0.0000E00
198.92	0.0000E00
199.30	0.0000E00
199.68	0.0000E00
200.05	0.0000E00
200.43	0.0000E00
200.81	0.0000E00
201.18	0.0000E00
201.56	0.0000E00
201.94	0.0000E00
202.31	-0.0000E00
202.69	0.0000E00
203.07	0.0000E00
203.44	0.0000E00
203.82	0.0000E00
204.19	0.0000E00
204.57	0.0000E00
204.95	0.0000E00
205.32	0.0000E00
205.70	0.0000E00
206.08	0.0000E00
206.45	0.0000E00
206.83	0.0000E00
207.20	0.0000E00
207.58	0.0000E00
207.96	0.0000E00
208.33	0.0000E00
208.71	0.0000E00
209.08	0.0000E00
209.46	0.0000E00
209.84	0.0000E00
210.21	0.0000E00
210.59	0.0000E00
210.96	0.0000E00
211.34	0.0000E00
211.71	0.0000E00
212.09	0.0000E00
212.46	0.0000E00
212.84	0.0000E00
213.22	0.0000E00
213.59	0.0000E00
213.97	0.0000E00
214.34	0.0000E00
214.72	0.0000E00
215.09	0.0000E00
215.47	0.0000E00
215.84	0.0000E00
216.22	0.0000E00
216.59	0.0000E00
216.97	0.0000E00
217.34	0.0000E00
217.72	0.0000E00
218.09	0.0000E00
218.47	0.0000E00
218.84	0.0000E00
219.22	0.0000E00
219.59	0.0000E00
219.97	0.0000E00
220.34	0.0000E00
220.72	0.0000E00
221.09	0.0000E00
221.47	0.0000E00
221.84	0.0000E00
222.22	0.0000E00
222.59	0.0000E00
222.97	0.0000E00
223.34	0.0000E00
223.72	0.0000E00
224.09	0.0000E00
224.46	0.0000E00
224.84	0.0000E00
225.21	0.0000E00
225.59	0.0000E00
225.96	0.0000E00
226.34	0.0000E00
226.71	0.0000E00
227.08	0.0000E00
227.46	0.0000E00
227.83	0.0000E00
228.21	0.0000E00
228.58	0.0000E00
228.95	0.0000E00
229.33	0.0000E00
229.70	0.0000E00
230.08	0.0000E00
230.45	0.0000E00
230.82	0.0000E00
231.20	0.0000E00
231.57	0.0000E00
231.95	0.0000E00
232.32	0.0000E00
232.69	0.0000E00
233.07	0.0000E00
233.44	0.0000E00
233.81	0.0000E00
234.19	0.0000E00
234.56	0.0000E00
234.93	0.0000E00
235.31	0.0000E00
235.68	0.0000E00
236.05	0.0000E00
236.43	0.0000E00
236.80	0.0000E00
237.17	0.0000E00
237.55	0.0000E00
237.92	0.0000E00
238.29	0.0000E00
238.67	0.0000E00
239.04	0.0000E00
239.41	0.0000E00
239.79	0.0000E00
240.16	0.0000E00
240.53	0.0000E00
240.91	0.0000E00
241.28	0.0000E00
241.65	0.0000E00
242.02	0.0000E00
242.40	0.0000E00
242.77	0.0000E00
243.14	0.0000E00
243.51	0.0000E00
243.89	0.0000E00
244.26	0.0000E00
244.63	0.0000E00
245.00	0.0000E00
245.38	0.0000E00
245.75	0.0000E00
246.12	0.0000E00
246.49	0.0000E00
246.87	0.0000E00
247.24	0.0000E00
247.61	0.0000E00
247.98	0.0000E00
248.36	0.0000E00
248.73	0.0000E00
249.10	0.0000E00
249.47	0.0000E00
249.84	0.0000E00
250.22	0.0000E00
250.59	0.0000E00
250.96	0.0000E00
251.33	0.0000E00
251.70	0.0000E00
252.08	0.0000E00
252.45	0.0000E00
252.82	0.0000E00
253.19	0.0000E00
253.56	0.0000E00
253.94	0.0000E00
254.31	0.0000E00
254.68	0.0000E00
255.05	0.0000E00
255.42	0.0000E00
255.79	0.0000E00
256.16	0.0000E00
256.54	0.0000E00
256.91	0.0000E00
257.28	0.0000E00
257.65	0.0000E00
258.02	0.0000E00
258.39	0.0000E00
258.76	0.0000E00
259.14	0.0000E00
259.51	0.0000E00
259.88	0.0000E00
260.25	0.0000E00
260.62	0.0000E00
260.99	0.0000E00
261.36	0.0000E00
261.73	0.0000E00
262.10	0.0000E00
262.47	0.0000E00
262.85	0.0000E00
263.22	0.0000E00
263.59	0.0000E00
263.96	0.0000E00
264.33	0.0000E00
264.70	0.0000E00
265.07	0.0000E00
265.44	0.0000E00
265.81	0.0000E00
266.18	0.0000E00
266.55	0.0000E00
266.92	0.0000E00
267.29	0.0000E00
267.66	0.0000E00
268.03	0.0000E00
268.40	0.0000E00
268.77	0.0000E00
269.14	0.0000E00
269.51	0.0000E00
269.88	0.0000E00
270.25	0.0000E00
270.62	0.0000E00
270.99	0.0000E00
271.36	0.0000E00
271.73	0.0000E00
272.10	0.0000E00
272.47	0.0000E00
272.84	0.0000E00
273.21	0.0000E00
273.58	0.0000E00
273.95	0.0000E00
274.32	0.0000E00
274.69	0.0000E00
275.06	0.0000E00
275.43	0.0000E00
275.80	0.0000E00
276.17	0.0000E00
276.54	0.0000E00
276.91	0.0000E00
277.28	0.0000E00
277.65	0.0000E00
278.02	0.0000E00
278.39	0.0000E00
278.76	0.0000E00
279.13	0.0000E00
279.50	0.0000E00
279.87	0.0000E00
280.23	0.0000E00
280.60	0.0000E00
280.97	0.0000E00
281.34	0.0000E00
281.71	0.0000E00
282.08	0.0000E00
282.45	0.0000E00
282.82	0.0000E00
283.19	0.0000E00
283.56	0.0000E00
283.92	0.0000E00
284.29	0.0000E00
284.66	0.0000E00
285.03	0.0000E00
285.40	0.0000E00
285.77	0.0000E00
286.14	0.0000E00
286.51	0.0000E00
286.87	0.0000E00
287.24	0.0000E00
287.61	0.0000E00
287.98	0.0000E00
288.35	0.0000E00
288.72	0.0000E00
289.08	0.0000E00
289.45	0.0000E00
289.82	0.0000E00
290.19	0.0000E00
290.56	0.0000E00
290.93	0.0000E00
291.29	0.0000E00
291.66	0.0000E00
292.03	0.0000E00
292.40	0.0000E00
292.77	0.0000E00
293.13	0.0000E00
293.50	0.0000E00
293.87	0.0000E00
294.24	0.0000E00
294.60	0.0000E00
294.97	0.0000E00
295.34	0.0000E00
295.71	0.0000E00
296.08	0.0000E00
296.44	0.0000E00
296.81	0.0000E00
297.18	0.0000E00
297.55	0.0000E00
297.91	0.0000E00
298.28	0.0000E00
298.65	0.0000E00
299.02	0.0000E00
299.38	0.0000E00
299.75	0.0000E00
300.12	8.1991E-01
300.48	2.0441E00
300.85	8.5905E-01
301.22	2.2747E00
301.59	6.8560E-01
301.95	8.1538E-01
302.32	1.2380E00
302.69	1.2612E00
303.05	7.7405E-01
303.42	1.0441E00
303.79	1.1877E00
304.15	7.3753E-01
304.52	8.8909E-01
304.89	8.4258E-01
305.25	1.6653E00
305.62	1.0907E00
305.99	1.3167E00
306.35	8.0156E-01
306.72	1.0979E00
307.09	9.1529E-01
307.45	9.5185E-01
307.82	7.0786E-01
308.19	8.9303E-01
308.55	1.0621E00
308.92	1.2283E00
309.29	1.0381E00
309.65	1.1211E00
310.02	9.3342E-01
310.38	9.6766E-01
310.75	1.2203E00
311.12	1.1208E00
311.48	1.8645E00
311.85	1.1662E00
312.22	8.0307E-01
312.58	1.8816E00
312.95	1.1339E00
313.31	1.0547E00
313.68	1.3631E00
314.05	2.2154E00
314.41	1.2074E00
314.78	7.1177E-01
315.14	1.1750E00
315.51	2.4658E00
315.87	1.0649E00
316.24	1.5800E00
316.61	1.4411E00
316.97	9.5355E-01
317.34	1.4649E00
317.70	1.1480E00
318.07	1.1580E00
318.43	1.3711E00
318.80	1.0262E00
319.16	1.2828E00
319.53	8.9920E-01
319.89	1.8134E00
320.26	1.3721E00
320.62	1.6607E00
320.99	1.4566E00
321.35	8.4445E-01
321.72	1.1350E00
322.08	1.8085E00
322.45	9.8868E-01
322.81	1.1630E00
323.18	3.5162E00
323.54	1.8644E00
323.91	1.4267E00
324.27	2.7650E00
324.64	2.0101E00
325.00	1.4561E00
325.37	2.4429E00
325.73	8.9912E-01
326.10	3.0891E00
326.46	1.4341E00
326.83	1.1708E00
327.19	2.5084E00
327.56	9.6794E-01
327.92	1.4047E00
328.29	1.1193E00
328.65	1.4665E00
329.01	1.7378E00
329.38	1.1267E00
329.74	1.0097E00
330.11	1.4776E00
330.47	9.8467E-01
330.84	1.4221E00
331.20	1.4221E00
331.56	1.3221E00
331.93	1.4719E00
332.29	1.3643E00
332.66	9.5349E-01
333.02	1.1542E00
333.38	1.7278E00
333.75	8.0598E-01
334.11	1.2600E00
334.48	1.2577E00
334.84	1.1768E00
335.20	1.4456E00
335.57	2.6803E00
335.93	1.7826E00
336.29	1.3846E00
336.66	1.3339E00
337.02	9.3256E-01
337.38	1.1647E00
337.75	1.1301E00
338.11	9.5603E-01
338.47	1.3332E00
338.84	1.1009E00
339.20	9.1497E-01
339.56	2.6868E00
339.93	8.3922E-01
340.29	9.9870E-01
340.65	1.0893E00
341.02	1.8258E00
341.38	1.2448E00
341.74	1.3408E00
342.11	1.3062E00
342.47	1.3168E00
342.83	7.2441E-01
343.20	1.6735E00
343.56	1.0143E00
343.92	1.4122E00
344.28	9.3925E-01
344.65	1.4904E00
345.01	8.7734E-01
345.37	1.4189E00
345.73	1.2646E00
346.10	1.0838E00
346.46	1.2873E00
346.82	9.8286E-01
347.19	2.2286E00
347.55	9.1811E-01
347.91	9.2572E-01
348.27	1.0397E00
348.63	9.0448E-01
349.00	8.9387E-01
349.36	1.8002E00
349.72	1.1221E00
350.08	1.6351E00
350.45	9.3578E-01
350.81	8.7255E-01
351.17	1.1481E00
351.53	1.2419E00
351.89	1.0138E00
352.26	1.1637E00
352.62	9.6238E-01
352.98	1.1203E00
353.34	9.8904E-01
353.70	1.3066E00
354.07	9.5846E-01
354.43	9.0971E-01
354.79	1.0684E00
355.15	8.5351E-01
355.51	8.1541E-01
355.87	9.2246E-01
356.24	9.6151E-01
356.60	9.3086E-01
356.96	1.0082E00
357.32	9.0696E-01
357.68	8.5193E-01
358.04	7.6817E-01
358.40	8.4811E-01
358.77	7.8961E-01
359.13	9.3437E-01
359.49	9.9327E-01
359.85	9.6572E-01
360.21	7.2683E-01
360.57	8.8677E-01
360.93	8.8043E-01
361.29	9.3391E-01
361.66	7.7501E-01
362.02	7.1408E-01
362.38	9.3161E-01
362.74	8.1113E-01
363.10	8.5548E-01
363.46	9.9508E-01
363.82	8.5063E-01
364.18	1.0176E00
364.54	9.6490E-01
364.90	9.1918E-01
365.26	9.0336E-01
365.62	1.0331E00
365.98	9.0032E-01
366.35	7.2057E-01
366.71	8.7325E-01
367.07	1.1194E00
367.43	7.0763E-01
367.79	1.0111E00
368.15	9.2726E-01
368.51	1.0990E00
368.87	9.6133E-01
369.23	1.0277E00
369.59	8.0740E-01
369.95	8.7425E-01
370.31	8.3408E-01
370.67	9.8637E-01
371.03	8.3269E-01
371.39	8.1434E-01
371.75	8.2239E-01
372.11	8.4860E-01
372.47	7.7987E-01
372.83	7.8776E-01
373.19	6.5841E-01
373.55	8.6256E-01
373.91	8.7973E-01
374.27	9.4976E-01
374.63	9.2558E-01
374.99	8.4043E-01
375.35	8.0798E-01
375.71	8.2330E-01
376.07	8.3019E-01
376.42	8.2212E-01
376.78	7.4520E-01
377.14	8.4454E-01
377.50	9.2257E-01
377.86	7.8471E-01
378.22	7.4063E-01
378.58	7.4183E-01
378.94	7.1878E-01
379.30	7.5481E-01
379.66	7.4404E-01
380.02	7.2808E-01
380.38	7.0757E-01
380.74	7.4168E-01
381.09	7.7861E-01
381.45	7.1748E-01
381.81	6.9445E-01
382.17	7.3102E-01
382.53	7.6053E-01
382.89	6.8112E-01
383.25	7.1627E-01
383.61	7.0828E-01
383.97	6.8756E-01
384.32	6.8566E-01
384.68	6.5396E-01
385.04	7.2630E-01
385.40	7.4833E-01
385.76	7.4532E-01
386.12	7.0098E-01
386.48	7.1244E-01
386.83	6.6448E-01
387.19	6.6331E-01
387.55	7.4210E-01
387.91	7.1724E-01
388.27	6.7046E-01
388.62	7.5352E-01
388.98	6.8347E-01
389.34	7.5787E-01
389.70	6.8762E-01
390.06	7.0963E-01
390.42	7.1606E-01
390.77	6.9904E-01
391.13	7.1300E-01
391.49	6.9998E-01
391.85	7.3828E-01
392.20	6.5199E-01
392.56	6.6089E-01
392.92	6.7031E-01
393.28	6.7248E-01
393.64	7.0226E-01
393.99	7.1688E-01
394.35	7.0427E-01
394.71	6.9602E-01
395.07	6.8204E-01
395.42	6.8470E-01
395.78	6.9713E-01
396.14	6.2937E-01
396.50	6.3157E-01
396.85	6.9483E-01
397.21	6.6919E-01
397.57	6.8731E-01
397.92	6.4245E-01
398.28	6.2146E-01
398.64	7.3909E-01
399.00	5.9593E-01
399.35	6.1979E-01
399.71	6.6458E-01
400.07	6.4890E-01
400.42	6.3379E-01
400.78	6.4931E-01
401.14	6.5276E-01
401.49	6.0435E-01
401.85	6.0136E-01
402.21	6.1051E-01
402.57	6.0699E-01
402.92	6.3985E-01
403.28	6.0910E-01
403.63	6.0580E-01
403.99	6.2011E-01
404.35	6.0196E-01
404.70	5.9088E-01
405.06	6.0015E-01
405.42	6.1374E-01
405.77	5.7053E-01
406.13	5.6996E-01
406.49	5.6606E-01
406.84	5.7310E-01
407.20	5.5943E-01
407.55	6.0341E-01
407.91	6.1437E-01
408.27	5.7531E-01
408.62	5.7875E-01
408.98	5.8512E-01
409.34	5.9579E-01
409.69	5.6990E-01
410.05	6.0057E-01
410.40	5.7340E-01
410.76	5.3059E-01
411.11	5.3578E-01
411.47	5.8029E-01
411.83	5.5006E-01
412.18	5.6080E-01
412.54	5.4967E-01
412.89	5.4628E-01
413.25	5.6641E-01
413.60	5.9143E-01
413.96	5.5440E-01
414.31	5.5770E-01
414.67	5.8863E-01
415.03	5.7756E-01
415.38	5.9132E-01
415.74	5.8439E-01
416.09	5.8069E-01
416.45	5.8887E-01
416.80	5.7735E-01
417.16	5.7220E-01
417.51	5.6923E-01
417.87	5.4800E-01
418.22	5.4161E-01
418.58	5.5355E-01
418.93	5.2971E-01
419.29	5.6831E-01
419.64	5.5180E-01
420.00	5.2092E-01
420.35	5.1193E-01
420.71	5.3737E-01
421.06	5.3942E-01
421.42	5.5298E-01
421.77	5.4463E-01
422.12	5.4351E-01
422.48	5.1504E-01
422.83	5.5024E-01
423.19	5.2031E-01
423.54	5.2039E-01
423.90	5.2669E-01
424.25	4.9700E-01
424.61	5.4879E-01
424.96	5.1352E-01
425.31	5.1052E-01
425.67	4.8908E-01
426.02	5.1108E-01
426.38	5.1081E-01
426.73	4.8383E-01
427.09	5.0629E-01
427.44	4.8495E-01
427.79	4.9053E-01
428.15	5.0544E-01
428.50	5.0195E-01
428.85	5.1401E-01
429.21	4.7469E-01
429.56	4.6431E-01
429.92	4.7360E-01
430.27	4.8944E-01
430.62	4.8870E-01
430.98	4.9455E-01
431.33	4.8368E-01
431.68	4.6730E-01
432.04	4.6410E-01
432.39	4.7076E-01
432.74	4.8790E-01
433.10	4.5752E-01
433.45	4.8418E-01
433.80	4.8135E-01
434.16	4.9206E-01
434.51	4.6850E-01
434.86	4.8745E-01
435.22	4.7010E-01
435.57	5.0238E-01
435.92	4.9222E-01
436.28	4.9011E-01
436.63	4.5470E-01
436.98	4.8620E-01
437.34	4.8295E-01
437.69	4.5898E-01
438.04	4.4655E-01
438.39	4.7822E-01
438.75	4.8981E-01
439.10	4.4199E-01
439.45	4.7976E-01
439.81	4.7436E-01
440.16	4.4605E-01
440.51	4.6608E-01
440.86	4.6454E-01
441.22	4.5436E-01
441.57	4.5844E-01
441.92	4.4502E-01
442.27	4.6722E-01
442.63	4.5748E-01
442.98	4.8842E-01
443.33	4.7805E-01
443.68	4.4484E-01
444.03	4.1932E-01
444.39	4.2157E-01
444.74	4.5741E-01
445.09	4.6410E-01
445.44	4.6510E-01
445.79	4.1073E-01
446.15	4.4144E-01
446.50	4.5631E-01
446.85	4.2890E-01
447.20	4.1727E-01
447.55	4.5138E-01
447.91	4.3417E-01
448.26	4.4543E-01
448.61	4.4112E-01
448.96	4.3243E-01
449.31	4.3886E-01
449.66	4.4310E-01
450.02	4.3647E-01
450.37	4.3646E-01
450.72	4.3051E-01
451.07	4.6403E-01
451.42	4.6135E-01
451.77	4.3566E-01
452.12	4.3552E-01
452.47	4.5545E-01
452.83	4.1860E-01
453.18	4.4282E-01
453.53	4.3805E-01
453.88	4.1241E-01
454.23	4.0741E-01
454.58	4.0745E-01
454.93	4.3727E-01
455.28	4.3477E-01
455.63	4.2212E-01
455.98	4.1280E-01
456.34	4.3459E-01
456.69	4.2124E-01
457.04	4.2473E-01
457.39	3.9824E-01
457.74	4.0681E-01
458.09	3.9605E-01
458.44	3.9496E-01
458.79	3.8671E-01
459.14	3.9970E-01
459.49	4.1585E-01
459.84	3.9306E-01
460.19	4.1850E-01
460.54	4.1548E-01
460.89	3.8278E-01
461.24	4.1924E-01
461.59	4.0088E-01
461.94	4.0629E-01
462.29	3.7992E-01
462.64	4.0175E-01
462.99	4.0546E-01
463.34	4.2917E-01
463.69	4.0223E-01
464.04	3.7538E-01
464.39	3.8970E-01
464.74	3.9523E-01
465.09	4.0630E-01
465.44	3.8237E-01
465.79	3.9430E-01
466.14	3.9629E-01
466.49	3.8962E-01
466.84	3.8613E-01
467.19	3.9954E-01
467.54	4.0055E-01
467.89	3.8112E-01
468.24	3.6124E-01
468.59	3.7334E-01
468.94	3.6608E-01
469.29	3.6775E-01
469.64	3.7994E-01
469.99	3.6622E-01
470.34	3.5433E-01
470.68	3.7715E-01
471.03	3.6417E-01
471.38	3.6511E-01
471.73	3.4784E-01
472.08	3.4355E-01
472.43	3.3167E-01
472.78	3.5004E-01
473.13	3.4633E-01
473.48	3.4074E-01
473.83	3.3401E-01
474.17	3.3924E-01
474.52	3.3557E-01
474.87	3.2132E-01
475.22	3.2863E-01
475.57	3.1260E-01
475.92	3.0436E-01
476.27	3.1352E-01
476.61	3.0509E-01
476.96	2.9727E-01
477.31	2.8839E-01
477.66	2.9385E-01
478.01	2.9198E-01
478.36	2.9041E-01
478.70	2.8622E-01
479.05	2.9070E-01
479.40	2.7747E-01
479.75	2.7427E-01
480.10	2.7633E-01
480.45	2.6970E-01
480.79	2.6832E-01
481.14	2.7213E-01
481.49	2.6571E-01
481.84	2.6081E-01
482.19	2.5895E-01
482.53	2.5842E-01
482.88	2.5617E-01
483.23	2.5179E-01
483.58	2.4670E-01
483.92	2.5279E-01
484.27	2.4490E-01
484.62	2.4330E-01
484.97	2.3835E-01
485.31	2.3710E-01
485.66	2.4198E-01
486.01	2.4206E-01
486.36	2.3062E-01
486.70	2.3692E-01
487.05	2.3551E-01
487.40	2.3557E-01
487.75	2.2868E-01
488.09	2.2901E-01
488.44	2.3088E-01
488.79	2.2749E-01
489.13	2.2493E-01
489.48	2.2756E-01
489.83	2.2811E-01
490.17	2.2204E-01
490.52	2.2196E-01
490.87	2.2301E-01
491.22	2.2584E-01
491.56	2.2297E-01
491.91	2.2576E-01
492.26	2.2310E-01
492.60	2.2306E-01
492.95	2.2510E-01
493.30	2.2465E-01
493.64	2.2208E-01
493.99	2.2325E-01
494.34	2.2047E-01
494.68	2.1812E-01
495.03	2.2374E-01
495.37	2.2165E-01
495.72	2.2385E-01
496.07	2.1872E-01
496.41	2.2031E-01
496.76	2.1871E-01
497.11	2.2109E-01
497.45	2.2002E-01
497.80	2.2037E-01
498.14	2.2034E-01
498.49	2.2066E-01
498.84	2.2118E-01
499.18	2.2073E-01
499.53	2.2074E-01
499.87	2.1857E-01
500.22	2.2129E-01
500.56	2.2063E-01
500.91	2.2040E-01
501.26	2.2030E-01
501.60	2.1975E-01
501.95	2.1796E-01
502.29	2.2084E-01
502.64	2.1681E-01
502.98	2.2041E-01
503.33	2.1851E-01
503.67	2.1901E-01
504.02	2.1835E-01
504.36	2.1803E-01
504.71	2.1875E-01
505.06	2.1662E-01
505.40	2.1689E-01
505.75	2.1812E-01
506.09	2.1829E-01
506.44	2.1808E-01
506.78	2.1592E-01
507.13	2.1707E-01
507.47	2.1547E-01
507.82	2.1537E-01
508.16	2.1736E-01
508.51	2.1532E-01
508.85	2.1257E-01
509.19	2.1546E-01
509.54	2.1517E-01
509.88	2.1547E-01
510.23	2.1210E-01
510.57	2.1302E-01
510.92	2.1274E-01
511.26	2.1278E-01
511.61	2.1265E-01
511.95	2.1278E-01
512.30	2.1149E-01
512.64	2.1306E-01
512.98	2.0934E-01
513.33	2.1098E-01
513.67	2.1128E-01
514.02	2.1054E-01
514.36	2.0889E-01
514.70	2.1015E-01
515.05	2.0785E-01
515.39	2.0953E-01
515.74	2.0746E-01
516.08	2.0638E-01
516.42	2.0824E-01
516.77	2.0862E-01
517.11	2.0873E-01
517.46	2.0996E-01
517.80	2.0681E-01
518.14	2.0807E-01
518.49	2.0624E-01
518.83	2.0704E-01
519.17	2.0706E-01
519.52	2.0751E-01
519.86	2.0619E-01
520.20	2.0546E-01
520.55	2.0607E-01
520.89	2.0495E-01
521.23	2.0693E-01
521.58	2.0656E-01
521.92	2.0809E-01
522.26	2.0902E-01
522.61	2.0574E-01
522.95	2.0757E-01
523.29	2.0446E-01
523.64	2.0482E-01
523.98	2.0576E-01
524.32	2.0638E-01
524.66	2.0797E-01
525.01	2.0774E-01
525.35	2.0860E-01
525.69	2.0934E-01
526.04	2.0858E-01
526.38	2.0558E-01
526.72	2.0978E-01
527.06	2.0862E-01
527.41	2.1011E-01
527.75	2.1213E-01
528.09	2.1050E-01
528.43	2.1387E-01
528.78	2.1127E-01
529.12	2.1336E-01
529.46	2.1491E-01
529.80	2.1418E-01
530.15	2.1468E-01
530.49	2.1477E-01
530.83	2.1576E-01
531.17	2.1611E-01
531.51	2.1524E-01
531.86	2.1698E-01
532.20	2.1806E-01
532.54	2.1751E-01
532.88	2.1910E-01
533.22	2.2097E-01
533.57	2.2197E-01
533.91	2.2135E-01
534.25	2.2333E-01
534.59	2.2200E-01
534.93	2.2398E-01
535.27	2.2293E-01
535.62	2.2709E-01
535.96	2.2640E-01
536.30	2.2675E-01
536.64	2.2721E-01
536.98	2.2902E-01
537.32	2.2841E-01
537.66	2.2830E-01
538.01	2.3075E-01
538.35	2.3259E-01
538.69	2.2978E-01
539.03	2.3557E-01
539.37	2.3308E-01
539.71	2.3481E-01
540.05	2.3544E-01
540.39	2.3600E-01
540.73	2.3495E-01
541.07	2.3568E-01
541.42	2.3621E-01
541.76	2.3631E-01
542.10	2.3747E-01
542.44	2.3854E-01
542.78	2.3872E-01
543.12	2.3820E-01
543.46	2.4325E-01
543.80	2.4032E-01
544.14	2.4027E-01
544.48	2.3928E-01
544.82	2.4193E-01
545.16	2.4260E-01
545.50	2.4087E-01
545.84	2.4344E-01
546.18	2.4167E-01
546.52	2.4452E-01
546.86	2.4233E-01
547.20	2.4565E-01
547.54	2.4850E-01
547.88	2.4411E-01
548.22	2.4479E-01
548.56	2.4598E-01
548.90	2.4432E-01
549.24	2.4635E-01
549.58	2.4708E-01
549.92	2.4539E-01
550.26	2.4965E-01
550.60	2.4617E-01
550.94	2.4500E-01
551.28	2.4826E-01
551.62	2.4667E-01
551.96	2.4892E-01
552.30	2.5011E-01
552.64	2.4903E-01
552.98	2.4903E-01
553.32	2.4960E-01
553.66	2.4806E-01
554.00	2.4859E-01
554.34	2.4955E-01
554.68	2.5056E-01
555.02	2.5078E-01
555.36	2.5194E-01
555.69	2.5074E-01
556.03	2.5038E-01
556.37	2.5176E-01
556.71	2.4967E-01
557.05	2.4918E-01
557.39	2.4981E-01
557.73	2.5030E-01
558.07	2.5221E-01
558.41	2.5091E-01
558.75	2.5142E-01
559.08	2.5125E-01
559.42	2.4922E-01
559.76	2.5287E-01
560.10	2.5244E-01
560.44	2.5247E-01
560.78	2.4993E-01
561.12	2.5173E-01
561.45	2.5118E-01
561.79	2.5214E-01
562.13	2.5227E-01
562.47	2.5245E-01
562.81	2.5277E-01
563.15	2.5259E-01
563.48	2.5325E-01
563.82	2.5001E-01
564.16	2.5227E-01
564.50	2.5271E-01
564.84	2.5300E-01
565.17	2.5328E-01
565.51	2.5254E-01
565.85	2.5483E-01
566.19	2.5165E-01
566.52	2.5504E-01
566.86	2.5227E-01
567.20	2.5472E-01
567.54	2.5369E-01
567.88	2.5422E-01
568.21	2.5380E-01
568.55	2.5533E-01
568.89	2.5567E-01
569.23	2.5528E-01
569.56	2.5488E-01
569.90	2.5567E-01
570.24	2.5732E-01
570.57	2.5723E-01
570.91	2.5778E-01
571.25	2.5443E-01
571.59	2.5738E-01
571.92	2.5717E-01
572.26	2.5802E-01
572.60	2.6030E-01
572.93	2.5896E-01
573.27	2.6125E-01
573.61	2.6155E-01
573.95	2.5770E-01
574.28	2.6236E-01
574.62	2.6238E-01
574.96	2.6260E-01
575.29	2.6193E-01
575.63	2.6607E-01
575.97	2.6536E-01
576.30	2.7144E-01
576.64	2.6793E-01
576.98	2.6771E-01
577.31	2.6899E-01
577.65	2.7159E-01
577.98	2.6997E-01
578.32	2.7214E-01
578.66	2.7341E-01
578.99	2.7389E-01
579.33	2.7487E-01
579.67	2.7330E-01
580.00	2.7695E-01
580.34	2.7600E-01
580.67	2.7736E-01
581.01	2.7974E-01
581.35	2.8099E-01
581.68	2.8221E-01
582.02	2.8086E-01
582.35	2.8306E-01
582.69	2.8300E-01
583.02	2.8750E-01
583.36	2.8461E-01
583.70	2.8412E-01
584.03	2.8625E-01
584.37	2.8441E-01
584.70	2.9054E-01
585.04	2.9041E-01
585.37	2.8893E-01
585.71	2.9368E-01
586.04	2.9245E-01
586.38	2.9036E-01
586.72	2.9438E-01
587.05	2.9587E-01
587.39	2.9683E-01
587.72	2.9476E-01
588.06	2.9729E-01
588.39	2.9711E-01
588.73	3.0023E-01
589.06	2.9805E-01
589.40	3.0254E-01
589.73	3.0400E-01
590.07	3.0494E-01
590.40	3.0486E-01
590.73	3.0895E-01
591.07	3.0553E-01
591.40	3.1207E-01
591.74	3.0505E-01
592.07	3.0934E-01
592.41	3.1059E-01
592.74	3.1165E-01
593.08	3.0962E-01
593.41	3.1163E-01
593.75	3.0953E-01
594.08	3.1420E-01
594.41	3.1308E-01
594.75	3.1427E-01
595.08	3.1396E-01
595.42	3.1019E-01
595.75	3.1516E-01
596.09	3.1519E-01
596.42	3.1384E-01
596.75	3.1756E-01
597.09	3.1897E-01
597.42	3.1578E-01
597.75	3.1955E-01
598.09	3.2036E-01
598.42	3.1809E-01
598.76	3.1979E-01
599.09	3.2422E-01
599.42	3.2390E-01
599.76	3.2250E-01
600.09	3.2156E-01
600.42	3.2637E-01
600.76	3.1990E-01
601.09	3.2392E-01
601.42	3.2716E-01
601.76	3.2340E-01
602.09	3.2261E-01
602.42	3.2477E-01
602.76	3.2366E-01
603.09	3.2290E-01
603.42	3.2860E-01
603.76	3.2475E-01
604.09	3.2499E-01
604.42	3.2720E-01
604.76	3.2489E-01
605.09	3.2996E-01
605.42	3.2672E-01
605.75	3.2836E-01
606.09	3.2671E-01
606.42	3.2799E-01
606.75	3.2951E-01
607.09	3.2975E-01
607.42	3.2989E-01
607.75	3.3045E-01
608.08	3.2992E-01
608.42	3.3248E-01
608.75	3.2877E-01
609.08	3.3293E-01
609.41	3.3231E-01
609.75	3.3054E-01
610.08	3.3221E-01
610.41	3.3433E-01
610.74	3.3358E-01
611.07	3.3340E-01
611.41	3.3270E-01
611.74	3.3422E-01
612.07	3.3602E-01
612.40	3.3098E-01
612.73	3.3459E-01
613.07	3.3645E-01
613.40	3.3274E-01
613.73	3.3204E-01
614.06	3.3501E-01
614.39	3.3597E-01
614.72	3.3707E-01
615.06	3.3659E-01
615.39	3.4051E-01
615.72	3.3483E-01
616.05	3.3841E-01
616.38	3.3913E-01
616.71	3.4001E-01
617.05	3.3797E-01
617.38	3.4002E-01
617.71	3.3792E-01
618.04	3.3998E-01
618.37	3.3775E-01
618.70	3.3883E-01
619.03	3.3999E-01
619.36	3.3442E-01
619.69	3.4159E-01
620.03	3.3779E-01
620.36	3.3868E-01
620.69	3.3732E-01
621.02	3.4030E-01
621.35	3.3916E-01
621.68	3.3580E-01
622.01	3.3505E-01
622.34	3.3704E-01
622.67	3.3611E-01
623.00	3.3760E-01
623.33	3.3817E-01
623.66	3.3569E-01
623.99	3.3642E-01
624.32	3.3541E-01
624.65	3.3650E-01
624.99	3.3675E-01
625.32	3.3770E-01
625.65	3.3682E-01
625.98	3.3187E-01
626.31	3.3612E-01
626.64	3.3715E-01
626.97	3.3756E-01
627.30	3.3476E-01
627.63	3.3679E-01
627.96	3.3382E-01
628.29	3.3362E-01
628.62	3.3685E-01
628.95	3.3658E-01
629.28	3.3152E-01
629.61	3.4174E-01
629.94	3.3695E-01
630.26	3.3738E-01
630.59	3.3942E-01
630.92	3.3767E-01
631.25	3.3935E-01
631.58	3.4295E-01
631.91	3.3814E-01
632.24	3.4540E-01
632.57	3.4178E-01
632.90	3.4218E-01
633.23	3.4299E-01
633.56	3.4465E-01
633.89	3.4509E-01
634.22	3.4643E-01
634.55	3.4746E-01
634.88	3.5141E-01
635.20	3.5033E-01
635.53	3.5308E-01
635.86	3.5312E-01
636.19	3.5731E-01
636.52	3.5830E-01
636.85	3.5525E-01
637.18	3.5991E-01
637.51	3.5689E-01
637.83	3.6047E-01
638.16	3.5695E-01
638.49	3.6798E-01
638.82	3.6634E-01
639.15	3.6889E-01
639.48	3.7166E-01
639.81	3.7370E-01
640.13	3.6997E-01
640.46	3.7576E-01
640.79	3.7576E-01
641.12	3.7913E-01
641.45	3.7851E-01
641.77	3.7617E-01
642.10	3.8473E-01
642.43	3.8616E-01
642.76	3.8765E-01
643.09	3.8514E-01
643.41	3.8847E-01
643.74	3.8864E-01
644.07	3.8886E-01
644.40	3.9188E-01
644.73	3.9598E-01
645.05	3.9777E-01
645.38	4.0056E-01
645.71	4.0173E-01
646.04	4.0144E-01
646.36	4.0064E-01
646.69	4.0726E-01
647.02	4.0751E-01
647.35	4.0492E-01
647.67	4.1023E-01
648.00	4.0874E-01
648.33	4.1362E-01
648.66	4.1144E-01
648.98	4.1713E-01
649.31	4.1589E-01
649.64	4.1775E-01
649.96	4.2176E-01
650.29	4.2403E-01
650.62	4.2415E-01
650.94	4.2372E-01
651.27	4.2352E-01
651.60	4.2463E-01
651.92	4.3169E-01
652.25	4.3248E-01
652.58	4.3153E-01
652.90	4.3387E-01
653.23	4.3407E-01
653.56	4.3572E-01
653.88	4.3747E-01
654.21	4.3750E-01
654.54	4.3975E-01
654.86	4.4498E-01
655.19	4.3994E-01
655.52	4.4690E-01
655.84	4.4572E-01
656.17	4.4833E-01
656.49	4.5313E-01
656.82	4.4820E-01
657.15	4.5302E-01
657.47	4.5275E-01
657.80	4.5326E-01
658.13	4.5451E-01
658.45	4.5781E-01
658.78	4.5609E-01
659.10	4.6174E-01
659.43	4.6153E-01
659.75	4.6056E-01
660.08	4.5880E-01
660.41	4.6463E-01
660.73	4.6495E-01
661.06	4.6856E-01
661.38	4.6695E-01
661.71	4.6846E-01
662.03	4.6894E-01
662.36	4.7507E-01
662.68	4.7374E-01
663.01	4.6790E-01
663.33	4.7241E-01
663.66	4.7603E-01
663.98	4.7287E-01
664.31	4.7351E-01
664.63	4.8287E-01
664.96	4.7972E-01
665.28	4.8314E-01
665.61	4.8207E-01
665.93	4.8292E-01
666.26	4.8555E-01
666.58	4.8610E-01
666.91	4.8298E-01
667.23	4.8835E-01
667.56	4.8253E-01
667.88	4.9033E-01
668.21	4.8971E-01
668.53	4.8762E-01
668.86	4.9727E-01
669.18	4.8998E-01
669.50	5.0065E-01
669.83	4.9916E-01
670.15	5.0060E-01
670.48	4.9953E-01
670.80	4.9786E-01
671.13	4.9550E-01
671.45	5.0139E-01
671.77	5.0419E-01
672.10	5.0073E-01
672.42	5.0830E-01
672.75	5.0549E-01
673.07	5.0927E-01
673.39	5.0442E-01
673.72	5.0746E-01
674.04	5.1138E-01
674.37	5.1510E-01
674.69	5.1196E-01
675.01	5.1598E-01
675.34	5.1755E-01
675.66	5.1876E-01
675.98	5.1343E-01
676.31	5.2162E-01
676.63	5.2336E-01
676.95	5.2014E-01
677.28	5.2411E-01
677.60	5.2470E-01
677.92	5.2282E-01
678.25	5.2836E-01
678.57	5.2926E-01
678.89	5.2751E-01
679.22	5.3579E-01
679.54	5.3321E-01
679.86	5.3348E-01
680.18	5.3551E-01
680.51	5.3700E-01
680.83	5.4220E-01
681.15	5.3670E-01
681.48	5.4066E-01
681.80	5.4414E-01
682.12	5.4069E-01
682.44	5.4922E-01
682.77	5.4952E-01
683.09	5.5283E-01
683.41	5.5086E-01
683.73	5.5598E-01
684.06	5.5528E-01
684.38	5.5663E-01
684.70	5.5540E-01
685.02	5.6091E-01
685.34	5.6626E-01
685.67	5.6181E-01
685.99	5.6888E-01
686.31	5.6491E-01
686.63	5.7431E-01
686.96	5.7077E-01
687.28	5.7791E-01
687.60	5.6955E-01
687.92	5.7643E-01
688.24	5.8232E-01
688.56	5.8309E-01
688.89	5.8500E-01
689.21	5.8266E-01
689.53	5.8535E-01
689.85	5.9394E-01
690.17	5.8983E-01
690.49	5.9885E-01
690.82	5.9859E-01
691.14	5.9922E-01
691.46	6.0201E-01
691.78	6.0612E-01
692.10	5.9911E-01
692.42	6.0579E-01
692.74	6.1117E-01
693.06	6.1217E-01
693.39	6.2246E-01
693.71	6.2297E-01
694.03	6.2371E-01
694.35	6.2547E-01
694.67	6.2776E-01
694.99	6.3304E-01
695.31	6.3583E-01
695.63	6.3509E-01
695.95	6.4017E-01
696.27	6.3825E-01
696.59	6.4379E-01
696.91	6.5281E-01
697.23	6.5169E-01
697.56	6.4999E-01
697.88	6.5715E-01
698.20	6.5644E-01
698.52	6.6284E-01
698.84	6.6819E-01
699.16	6.7333E-01
699.48	6.6617E-01
699.80	6.7523E-01
700.12	6.8102E-01
700.44	6.8242E-01
700.76	6.8390E-01
701.08	6.8818E-01
701.40	6.9088E-01
701.72	6.9827E-01
702.04	6.9725E-01
702.36	7.0352E-01
702.68	7.0648E-01
703.00	7.1153E-01
703.32	7.1548E-01
703.64	7.1617E-01
703.96	7.0911E-01
704.28	7.2032E-01
704.60	7.2857E-01
704.91	7.3040E-01
705.23	7.3152E-01
705.55	7.4006E-01
705.87	7.3453E-01
706.19	7.3694E-01
706.51	7.4193E-01
706.83	7.4519E-01
707.15	7.6560E-01
707.47	7.4917E-01
707.79	7.6370E-01
708.11	7.6549E-01
708.43	7.6897E-01
708.74	7.7519E-01
709.06	7.8604E-01
709.38	7.8181E-01
709.70	7.7670E-01
710.02	7.8772E-01
710.34	7.8362E-01
710.66	8.0401E-01
710.98	7.9951E-01
711.29	7.9905E-01
711.61	8.1328E-01
711.93	8.1806E-01
712.25	8.1135E-01
712.57	8.2258E-01
712.89	8.2554E-01
713.20	8.2663E-01
713.52	8.3456E-01
713.84	8.4245E-01
714.16	8.3610E-01
714.48	8.3799E-01
714.80	8.5203E-01
715.11	8.4945E-01
715.43	8.6130E-01
715.75	8.6722E-01
716.07	8.7569E-01
716.39	8.5961E-01
716.70	8.7062E-01
717.02	8.6533E-01
717.34	8.9098E-01
717.66	8.8285E-01
717.97	8.9302E-01
718.29	8.9850E-01
718.61	9.1135E-01
718.93	9.1025E-01
719.24	9.1339E-01
719.56	9.3305E-01
719.88	9.2425E-01
720.20	9.3606E-01
720.51	9.4779E-01
720.83	9.4402E-01
721.15	9.6344E-01
721.46	9.6007E-01
721.78	9.6550E-01
722.10	9.7968E-01
722.42	9.8922E-01
722.73	9.9595E-01
723.05	9.8290E-01
723.37	9.9699E-01
723.68	1.0070E00
724.00	1.0070E00
724.32	1.0254E00
724.63	1.0233E00
724.95	1.0170E00
725.27	1.0266E00
725.58	1.0332E00
725.90	1.0334E00
726.22	1.0507E00
726.53	1.0278E00
726.85	1.0430E00
727.16	1.0652E00
727.48	1.0469E00
727.80	1.0577E00
728.11	1.0622E00
728.43	1.0604E00
728.74	1.0552E00
729.06	1.0747E00
729.38	1.0703E00
729.69	1.0759E00
730.01	1.0838E00
730.32	1.0908E00
730.64	1.0898E00
730.96	1.0791E00
731.27	1.1089E00
731.59	1.0834E00
731.90	1.0964E00
732.22	1.1057E00
732.53	1.1031E00
732.85	1.1158E00
733.16	1.1126E00
733.48	1.1191E00
733.80	1.1137E00
734.11	1.1340E00
734.43	1.1337E00
734.74	1.1314E00
735.06	1.1466E00
735.37	1.1550E00
735.69	1.1396E00
736.00	1.1530E00
736.32	1.1555E00
736.63	1.1630E00
736.95	1.1613E00
737.26	1.1825E00
737.58	1.1813E00
737.89	1.1901E00
738.21	1.1790E00
738.52	1.1858E00
738.83	1.1895E00
739.15	1.1894E00
739.46	1.2065E00
739.78	1.2017E00
740.09	1.2162E00
740.41	1.2100E00
740.72	1.2059E00
741.04	1.2060E00
741.35	1.2084E00
741.66	1.2294E00
741.98	1.2233E00
742.29	1.2295E00
742.61	1.2228E00
742.92	1.2270E00
743.23	1.2265E00
743.55	1.2356E00
743.86	1.2248E00
744.18	1.2325E00
744.49	1.2340E00
744.80	1.2325E00
745.12	1.2344E00
745.43	1.2380E00
745.74	1.2369E00
746.06	1.2290E00
746.37	1.2274E00
746.68	1.2368E00
747.00	1.2345E00
747.31	1.2253E00
747.62	1.2174E00
747.94	1.2371E00
748.25	1.2375E00
748.56	1.2386E00
748.88	1.2216E00
749.19	1.2317E00
749.50	1.2345E00
749.82	1.2258E00
750.13	1.2339E00
750.44	1.2355E00
750.75	1.2199E00
751.07	1.2372E00
751.38	1.2450E00
751.69	1.2208E00
752.01	1.2388E00
752.32	1.2367E00
752.63	1.2394E00
752.94	1.2458E00
753.26	1.2518E00
753.57	1.2384E00
753.88	1.2466E00
754.19	1.2480E00
754.51	1.2506E00
754.82	1.2458E00
755.13	1.2613E00
755.44	1.2593E00
755.75	1.2633E00
756.07	1.2632E00
756.38	1.2783E00
756.69	1.2736E00
757.00	1.2821E00
757.31	1.2975E00
757.63	1.3049E00
757.94	1.3071E00
758.25	1.3213E00
758.56	1.2882E00
758.87	1.3332E00
759.18	1.3371E00
759.50	1.3342E00
759.81	1.3296E00
760.12	1.3375E00
760.43	1.3487E00
760.74	1.3443E00
761.05	1.3708E00
761.36	1.3748E00
761.67	1.3851E00
761.99	1.3945E00
762.30	1.3733E00
762.61	1.4073E00
762.92	1.4051E00
763.23	1.4057E00
763.54	1.4210E00
763.85	1.4439E00
764.16	1.4461E00
764.47	1.4643E00
764.78	1.4749E00
765.10	1.4768E00
765.41	1.4779E00
765.72	1.4867E00
766.03	1.5209E00
766.34	1.5319E00
766.65	1.5404E00
766.96	1.5713E00
767.27	1.5613E00
767.58	1.5616E00
767.89	1.5784E00
768.20	1.6033E00
768.51	1.6043E00
768.82	1.6067E00
769.13	1.6379E00
769.44	1.6602E00
769.75	1.6568E00
770.06	1.6621E00
770.37	1.6594E00
770.68	1.6999E00
770.99	1.7122E00
771.30	1.7214E00
771.61	1.7734E00
771.92	1.7356E00
772.23	1.7580E00
772.54	1.7966E00
772.85	1.7787E00
773.16	1.7963E00
773.47	1.8503E00
773.78	1.8347E00
774.09	1.8661E00
774.39	1.8701E00
774.70	1.8745E00
775.01	1.9119E00
775.32	1.9215E00
775.63	1.9447E00
775.94	1.9638E00
776.25	1.9514E00
776.56	1.9702E00
776.87	2.0225E00
777.18	2.0165E00
777.48	2.0365E00
777.79	2.0569E00
778.10	2.0751E00
778.41	2.0914E00
778.72	2.1138E00
779.03	2.1244E00
779.34	2.1698E00
779.65	2.1720E00
779.95	2.2122E00
780.26	2.1939E00
780.57	2.2313E00
780.88	2.2257E00
781.19	2.2656E00
781.50	2.2676E00
781.80	2.2896E00
782.11	2.2936E00
782.42	2.3502E00
782.73	2.3053E00
783.04	2.3951E00
783.34	2.3925E00
783.65	2.4122E00
783.96	2.4198E00
784.27	2.4333E00
784.57	2.4533E00
784.88	2.4824E00
785.19	2.4950E00
785.50	2.5226E00
785.81	2.5554E00
786.11	2.5179E00
786.42	2.5485E00
786.73	2.5751E00
787.04	2.6065E00
787.34	2.6548E00
787.65	2.6673E00
787.96	2.7277E00
788.26	2.7073E00
788.57	2.7625E00
788.88	2.7311E00
789.19	2.8164E00
789.49	2.7876E00
789.80	2.8413E00
790.11	2.8464E00
790.41	2.8766E00
790.72	2.9030E00
791.03	2.9165E00
791.33	2.9471E00
791.64	3.0142E00
791.95	2.9594E00
792.25	3.0544E00
792.56	3.0255E00
792.87	3.0727E00
793.17	3.0904E00
793.48	3.1058E00
793.79	3.1369E00
794.09	3.1936E00
794.40	3.1516E00
794.70	3.1605E00
795.01	3.1731E00
795.32	3.2176E00
795.62	3.2806E00
795.93	3.2867E00
796.23	3.2951E00
796.54	3.3401E00
796.85	3.3247E00
797.15	3.3693E00
797.46	3.3964E00
797.76	3.4859E00
798.07	3.4724E00
798.37	3.4761E00
798.68	3.5311E00
798.99	3.5295E00
799.29	3.5623E00
799.60	3.6258E00
799.90	3.6260E00
800.21	3.6799E00
800.51	3.7056E00
800.82	3.6999E00
801.12	3.7683E00
801.43	3.7614E00
801.73	3.8411E00
802.04	3.8282E00
802.34	3.8236E00
802.65	3.8727E00
802.95	4.0016E00
803.26	3.9710E00
803.56	3.9008E00
803.87	3.9635E00
804.17	3.9907E00
804.48	3.9903E00
804.78	4.0629E00
805.09	4.1330E00
805.39	4.1073E00
805.70	4.1279E00
806.00	4.1885E00
806.30	4.1851E00
806.61	4.2493E00
806.91	4.2750E00
807.22	4.3175E00
807.52	4.3390E00
807.83	4.3604E00
808.13	4.4124E00
808.43	4.3261E00
808.74	4.4459E00
809.04	4.4833E00
809.35	4.4611E00
809.65	4.5666E00
809.95	4.5906E00
810.26	4.6407E00
810.56	4.6633E00
810.86	4.7242E00
811.17	4.7595E00
811.47	4.7515E00
811.77	4.7532E00
812.08	4.7464E00
812.38	4.8921E00
812.69	4.7968E00
812.99	4.9519E00
813.29	4.9773E00
813.59	5.0214E00
813.90	5.0380E00
814.20	5.0373E00
814.50	5.1079E00
814.81	5.0493E00
815.11	5.1732E00
815.41	5.2988E00
815.72	5.2336E00
816.02	5.2694E00
816.32	5.2834E00
816.62	5.2459E00
816.93	5.3471E00
817.23	5.5089E00
817.53	5.4054E00
817.84	5.5180E00
818.14	5.5113E00
818.44	5.4983E00
818.74	5.6541E00
819.04	5.7575E00
819.35	5.6967E00
819.65	5.7360E00
819.95	5.8905E00
820.25	5.8938E00
820.56	5.8841E00
820.86	5.9557E00
821.16	6.0052E00
821.46	6.0051E00
821.76	6.0336E00
822.07	5.9939E00
822.37	6.0959E00
822.67	6.2002E00
822.97	6.2385E00
823.27	6.2230E00
823.57	6.3225E00
823.88	6.2947E00
824.18	6.4018E00
824.48	6.3827E00
824.78	6.4714E00
825.08	6.4466E00
825.38	6.5528E00
825.69	6.5530E00
825.99	6.6450E00
826.29	6.6776E00
826.59	6.6555E00
826.89	6.7789E00
827.19	6.6049E00
827.49	7.0419E00
827.79	6.9406E00
828.09	6.8809E00
828.39	7.0433E00
828.70	7.0211E00
829.00	7.0111E00
829.30	7.1386E00
829.60	7.2480E00
829.90	7.1476E00
830.20	7.0915E00
830.50	7.4137E00
830.80	7.4542E00
831.10	7.3019E00
831.40	7.5672E00
831.70	7.4811E00
832.00	7.5259E00
832.30	7.7405E00
832.60	7.6339E00
832.90	7.7839E00
833.20	7.9242E00
833.50	7.7470E00
833.80	7.8823E00
834.10	7.9632E00
834.40	7.8257E00
834.70	8.0025E00
835.00	8.0534E00
835.30	8.0181E00
835.60	8.1502E00
835.90	8.2171E00
836.20	8.4138E00
836.50	8.4074E00
836.80	8.4077E00
837.10	8.3666E00
837.40	8.5152E00
837.70	8.5696E00
838.00	8.5705E00
838.30	8.5406E00
838.60	8.8719E00
838.90	8.8602E00
839.19	8.7776E00
839.49	9.1119E00
839.79	8.9977E00
840.09	9.1009E00
840.39	8.9497E00
840.69	9.1170E00
840.99	9.6276E00
841.29	9.4804E00
841.59	9.4924E00
841.88	9.5465E00
842.18	9.6137E00
842.48	9.8472E00
842.78	9.7949E00
843.08	9.9067E00
843.38	9.7628E00
843.68	1.0074E01
843.97	1.0110E01
844.27	1.0149E01
844.57	1.0335E01
844.87	1.0390E01
845.17	1.0277E01
845.47	1.0155E01
845.76	1.0454E01
846.06	1.0631E01
846.36	1.0531E01
846.66	1.0761E01
846.96	1.0701E01
847.25	1.0725E01
847.55	1.0807E01
847.85	1.1078E01
848.15	1.0892E01
848.44	1.1243E01
848.74	1.0973E01
849.04	1.1269E01
849.34	1.1337E01
849.63	1.1575E01
849.93	1.1533E01
850.23	1.1997E01
850.53	1.1495E01
850.82	1.1803E01
851.12	1.1790E01
851.42	1.1654E01
851.71	1.1959E01
852.01	1.2223E01
852.31	1.2439E01
852.61	1.2507E01
852.90	1.2513E01
853.20	1.2640E01
853.50	1.2834E01
853.79	1.3156E01
854.09	1.2690E01
854.39	1.2893E01
854.68	1.3591E01
854.98	1.3409E01
855.28	1.3374E01
855.57	1.3513E01
855.87	1.3566E01
856.17	1.3629E01
856.46	1.3616E01
856.76	1.3737E01
857.05	1.3990E01
857.35	1.4089E01
857.65	1.3917E01
857.94	1.4276E01
858.24	1.4241E01
858.53	1.4599E01
858.83	1.4540E01
859.13	1.4779E01
859.42	1.4628E01
859.72	1.5139E01
860.01	1.5684E01
860.31	1.5293E01
860.60	1.5643E01
860.90	1.5621E01
861.20	1.5846E01
861.49	1.5577E01
861.79	1.6298E01
862.08	1.6337E01
862.38	1.6624E01
862.67	1.6580E01
862.97	1.6694E01
863.26	1.6541E01
863.56	1.7462E01
863.85	1.7320E01
864.15	1.7112E01
864.44	1.7727E01
864.74	1.7524E01
865.03	1.7679E01
865.33	1.7799E01
865.62	1.8257E01
865.92	1.8044E01
866.21	1.9242E01
866.51	1.9086E01
866.80	1.9002E01
867.10	1.9393E01
867.39	1.9101E01
867.69	1.9876E01
867.98	1.9053E01
868.27	1.9710E01
868.57	1.9744E01
868.86	2.0904E01
869.16	2.0584E01
869.45	2.0711E01
869.75	2.0171E01
870.04	2.1043E01
870.33	2.1249E01
870.63	2.1029E01
870.92	2.2048E01
871.22	2.2341E01
871.51	2.1968E01
871.80	2.2246E01
872.10	2.2246E01
>>>>>End Processed Spectral Data<<<<<
