SpectraSuite Data File
++++++++++++++++++++++++++++++++++++
Date: Tue May 12 13:14:42 PDT 2015
User: schluterlab
Dark Spectrum Present: Yes
Reference Spectrum Present: No
Number of Sampled Component Spectra: 1
Spectrometers: USB2E3373
Integration Time (usec): 2300000 (USB2E3373)
Spectra Averaged: 3 (USB2E3373)
Boxcar Smoothing: 0 (USB2E3373)
Correct for Electrical Dark: No (USB2E3373)
Strobe/Lamp Enabled: No (USB2E3373)
Correct for Detector Non-linearity: No (USB2E3373)
Correct for Stray Light: No (USB2E3373)
Number of Pixels in Processed Spectrum: 2048
>>>>>Begin Processed Spectral Data<<<<<
178.53	0.0000E00
178.91	0.0000E00
179.29	0.0000E00
179.67	0.0000E00
180.04	0.0000E00
180.42	0.0000E00
180.80	0.0000E00
181.18	0.0000E00
181.56	0.0000E00
181.94	0.0000E00
182.31	0.0000E00
182.69	0.0000E00
183.07	0.0000E00
183.45	0.0000E00
183.83	0.0000E00
184.20	0.0000E00
184.58	0.0000E00
184.96	0.0000E00
185.34	0.0000E00
185.72	0.0000E00
186.09	0.0000E00
186.47	0.0000E00
186.85	0.0000E00
187.23	0.0000E00
187.61	0.0000E00
187.98	0.0000E00
188.36	0.0000E00
188.74	0.0000E00
189.12	0.0000E00
189.49	0.0000E00
189.87	0.0000E00
190.25	0.0000E00
190.63	0.0000E00
191.00	0.0000E00
191.38	0.0000E00
191.76	0.0000E00
192.14	0.0000E00
192.51	0.0000E00
192.89	0.0000E00
193.27	0.0000E00
193.65	0.0000E00
194.02	0.0000E00
194.40	0.0000E00
194.78	0.0000E00
195.15	0.0000E00
195.53	-0.0000E00
195.91	0.0000E00
196.29	0.0000E00
196.66	0.0000E00
197.04	0.0000E00
197.42	0.0000E00
197.79	0.0000E00
198.17	0.0000E00
198.55	0.0000E00
198.92	0.0000E00
199.30	0.0000E00
199.68	0.0000E00
200.05	0.0000E00
200.43	0.0000E00
200.81	0.0000E00
201.18	0.0000E00
201.56	0.0000E00
201.94	0.0000E00
202.31	-0.0000E00
202.69	0.0000E00
203.07	0.0000E00
203.44	0.0000E00
203.82	0.0000E00
204.19	0.0000E00
204.57	0.0000E00
204.95	0.0000E00
205.32	0.0000E00
205.70	0.0000E00
206.08	0.0000E00
206.45	0.0000E00
206.83	0.0000E00
207.20	0.0000E00
207.58	0.0000E00
207.96	0.0000E00
208.33	0.0000E00
208.71	0.0000E00
209.08	0.0000E00
209.46	0.0000E00
209.84	0.0000E00
210.21	0.0000E00
210.59	0.0000E00
210.96	0.0000E00
211.34	0.0000E00
211.71	0.0000E00
212.09	0.0000E00
212.46	0.0000E00
212.84	0.0000E00
213.22	0.0000E00
213.59	0.0000E00
213.97	0.0000E00
214.34	0.0000E00
214.72	0.0000E00
215.09	0.0000E00
215.47	0.0000E00
215.84	0.0000E00
216.22	0.0000E00
216.59	0.0000E00
216.97	0.0000E00
217.34	0.0000E00
217.72	0.0000E00
218.09	0.0000E00
218.47	0.0000E00
218.84	0.0000E00
219.22	0.0000E00
219.59	0.0000E00
219.97	0.0000E00
220.34	0.0000E00
220.72	0.0000E00
221.09	0.0000E00
221.47	0.0000E00
221.84	0.0000E00
222.22	0.0000E00
222.59	0.0000E00
222.97	0.0000E00
223.34	0.0000E00
223.72	0.0000E00
224.09	0.0000E00
224.46	0.0000E00
224.84	0.0000E00
225.21	0.0000E00
225.59	0.0000E00
225.96	0.0000E00
226.34	0.0000E00
226.71	0.0000E00
227.08	0.0000E00
227.46	0.0000E00
227.83	0.0000E00
228.21	0.0000E00
228.58	0.0000E00
228.95	0.0000E00
229.33	0.0000E00
229.70	0.0000E00
230.08	0.0000E00
230.45	0.0000E00
230.82	0.0000E00
231.20	0.0000E00
231.57	0.0000E00
231.95	0.0000E00
232.32	0.0000E00
232.69	0.0000E00
233.07	0.0000E00
233.44	0.0000E00
233.81	0.0000E00
234.19	0.0000E00
234.56	0.0000E00
234.93	0.0000E00
235.31	0.0000E00
235.68	0.0000E00
236.05	0.0000E00
236.43	0.0000E00
236.80	0.0000E00
237.17	0.0000E00
237.55	0.0000E00
237.92	0.0000E00
238.29	0.0000E00
238.67	0.0000E00
239.04	0.0000E00
239.41	0.0000E00
239.79	0.0000E00
240.16	0.0000E00
240.53	0.0000E00
240.91	0.0000E00
241.28	0.0000E00
241.65	0.0000E00
242.02	0.0000E00
242.40	0.0000E00
242.77	0.0000E00
243.14	0.0000E00
243.51	0.0000E00
243.89	0.0000E00
244.26	0.0000E00
244.63	0.0000E00
245.00	0.0000E00
245.38	0.0000E00
245.75	0.0000E00
246.12	0.0000E00
246.49	0.0000E00
246.87	0.0000E00
247.24	0.0000E00
247.61	0.0000E00
247.98	0.0000E00
248.36	0.0000E00
248.73	0.0000E00
249.10	0.0000E00
249.47	0.0000E00
249.84	0.0000E00
250.22	0.0000E00
250.59	0.0000E00
250.96	0.0000E00
251.33	0.0000E00
251.70	0.0000E00
252.08	0.0000E00
252.45	0.0000E00
252.82	0.0000E00
253.19	0.0000E00
253.56	0.0000E00
253.94	0.0000E00
254.31	0.0000E00
254.68	0.0000E00
255.05	0.0000E00
255.42	0.0000E00
255.79	0.0000E00
256.16	0.0000E00
256.54	0.0000E00
256.91	0.0000E00
257.28	0.0000E00
257.65	0.0000E00
258.02	0.0000E00
258.39	0.0000E00
258.76	0.0000E00
259.14	0.0000E00
259.51	0.0000E00
259.88	0.0000E00
260.25	0.0000E00
260.62	0.0000E00
260.99	0.0000E00
261.36	0.0000E00
261.73	0.0000E00
262.10	0.0000E00
262.47	0.0000E00
262.85	0.0000E00
263.22	0.0000E00
263.59	0.0000E00
263.96	0.0000E00
264.33	0.0000E00
264.70	0.0000E00
265.07	0.0000E00
265.44	0.0000E00
265.81	0.0000E00
266.18	0.0000E00
266.55	0.0000E00
266.92	0.0000E00
267.29	0.0000E00
267.66	0.0000E00
268.03	0.0000E00
268.40	0.0000E00
268.77	0.0000E00
269.14	0.0000E00
269.51	0.0000E00
269.88	0.0000E00
270.25	0.0000E00
270.62	0.0000E00
270.99	0.0000E00
271.36	0.0000E00
271.73	0.0000E00
272.10	0.0000E00
272.47	0.0000E00
272.84	0.0000E00
273.21	0.0000E00
273.58	0.0000E00
273.95	0.0000E00
274.32	0.0000E00
274.69	0.0000E00
275.06	0.0000E00
275.43	0.0000E00
275.80	0.0000E00
276.17	0.0000E00
276.54	0.0000E00
276.91	0.0000E00
277.28	0.0000E00
277.65	0.0000E00
278.02	0.0000E00
278.39	0.0000E00
278.76	0.0000E00
279.13	0.0000E00
279.50	0.0000E00
279.87	0.0000E00
280.23	0.0000E00
280.60	0.0000E00
280.97	0.0000E00
281.34	0.0000E00
281.71	0.0000E00
282.08	0.0000E00
282.45	0.0000E00
282.82	0.0000E00
283.19	0.0000E00
283.56	0.0000E00
283.92	0.0000E00
284.29	0.0000E00
284.66	0.0000E00
285.03	0.0000E00
285.40	0.0000E00
285.77	0.0000E00
286.14	0.0000E00
286.51	0.0000E00
286.87	0.0000E00
287.24	0.0000E00
287.61	0.0000E00
287.98	0.0000E00
288.35	0.0000E00
288.72	0.0000E00
289.08	0.0000E00
289.45	0.0000E00
289.82	0.0000E00
290.19	0.0000E00
290.56	0.0000E00
290.93	0.0000E00
291.29	0.0000E00
291.66	0.0000E00
292.03	0.0000E00
292.40	0.0000E00
292.77	0.0000E00
293.13	0.0000E00
293.50	0.0000E00
293.87	0.0000E00
294.24	0.0000E00
294.60	0.0000E00
294.97	0.0000E00
295.34	0.0000E00
295.71	0.0000E00
296.08	0.0000E00
296.44	0.0000E00
296.81	0.0000E00
297.18	0.0000E00
297.55	0.0000E00
297.91	0.0000E00
298.28	0.0000E00
298.65	0.0000E00
299.02	0.0000E00
299.38	0.0000E00
299.75	0.0000E00
300.12	4.4491E-01
300.48	1.1175E00
300.85	4.6578E-01
301.22	1.2276E00
301.59	3.8029E-01
301.95	4.4733E-01
302.32	6.7069E-01
302.69	6.7602E-01
303.05	4.1370E-01
303.42	5.5728E-01
303.79	6.3700E-01
304.15	3.9571E-01
304.52	4.6973E-01
304.89	4.4468E-01
305.25	8.9001E-01
305.62	5.7446E-01
305.99	6.9804E-01
306.35	4.2268E-01
306.72	5.7571E-01
307.09	4.9954E-01
307.45	5.1490E-01
307.82	3.7623E-01
308.19	4.7602E-01
308.55	5.5678E-01
308.92	6.5152E-01
309.29	5.4438E-01
309.65	6.7307E-01
310.02	5.0308E-01
310.38	5.4213E-01
310.75	7.3630E-01
311.12	7.2332E-01
311.48	1.2578E00
311.85	8.1584E-01
312.22	5.7582E-01
312.58	1.3489E00
312.95	8.3199E-01
313.31	8.1267E-01
313.68	1.0673E00
314.05	1.7940E00
314.41	9.9180E-01
314.78	5.9871E-01
315.14	1.0782E00
315.51	2.1304E00
315.87	9.2912E-01
316.24	1.3744E00
316.61	1.3080E00
316.97	9.1724E-01
317.34	1.4782E00
317.70	1.1623E00
318.07	1.1712E00
318.43	1.3860E00
318.80	1.0351E00
319.16	1.2914E00
319.53	9.0129E-01
319.89	1.8135E00
320.26	1.3716E00
320.62	1.6601E00
320.99	1.4560E00
321.35	8.4408E-01
321.72	1.1347E00
322.08	1.8064E00
322.45	9.8851E-01
322.81	1.1631E00
323.18	3.5122E00
323.54	1.8633E00
323.91	1.4273E00
324.27	2.7643E00
324.64	2.0090E00
325.00	1.4562E00
325.37	2.4415E00
325.73	8.9881E-01
326.10	3.0889E00
326.46	1.4324E00
326.83	1.1698E00
327.19	2.5062E00
327.56	9.6786E-01
327.92	1.4042E00
328.29	1.1183E00
328.65	1.4661E00
329.01	1.7364E00
329.38	1.1263E00
329.74	1.0091E00
330.11	1.4765E00
330.47	9.8390E-01
330.84	1.4209E00
331.20	1.4215E00
331.56	1.3212E00
331.93	1.4708E00
332.29	1.3638E00
332.66	9.5325E-01
333.02	1.1536E00
333.38	1.7256E00
333.75	8.0563E-01
334.11	1.2588E00
334.48	1.2568E00
334.84	1.1754E00
335.20	1.4437E00
335.57	2.6766E00
335.93	1.7809E00
336.29	1.3836E00
336.66	1.3333E00
337.02	9.3200E-01
337.38	1.1634E00
337.75	1.1286E00
338.11	9.5529E-01
338.47	1.3326E00
338.84	1.0996E00
339.20	9.1402E-01
339.56	2.6833E00
339.93	8.3835E-01
340.29	9.9776E-01
340.65	1.0884E00
341.02	1.8234E00
341.38	1.2439E00
341.74	1.3400E00
342.11	1.3052E00
342.47	1.3154E00
342.83	7.2404E-01
343.20	1.6726E00
343.56	1.0124E00
343.92	1.4114E00
344.28	9.3860E-01
344.65	1.4882E00
345.01	8.7726E-01
345.37	1.4170E00
345.73	1.2622E00
346.10	1.0830E00
346.46	1.2864E00
346.82	9.8100E-01
347.19	2.2280E00
347.55	9.1771E-01
347.91	9.2484E-01
348.27	1.0383E00
348.63	9.0332E-01
349.00	8.9272E-01
349.36	1.7988E00
349.72	1.1212E00
350.08	1.6334E00
350.45	9.3433E-01
350.81	8.7067E-01
351.17	1.1464E00
351.53	1.2413E00
351.89	1.0126E00
352.26	1.1631E00
352.62	9.6105E-01
352.98	1.1185E00
353.34	9.8785E-01
353.70	1.3050E00
354.07	9.5706E-01
354.43	9.0884E-01
354.79	1.0669E00
355.15	8.5285E-01
355.51	8.1415E-01
355.87	9.2206E-01
356.24	9.6052E-01
356.60	9.2982E-01
356.96	1.0070E00
357.32	9.0532E-01
357.68	8.5083E-01
358.04	7.6731E-01
358.40	8.4731E-01
358.77	7.8893E-01
359.13	9.3309E-01
359.49	9.9190E-01
359.85	9.6514E-01
360.21	7.2552E-01
360.57	8.8570E-01
360.93	8.8005E-01
361.29	9.3334E-01
361.66	7.7427E-01
362.02	7.1347E-01
362.38	9.3105E-01
362.74	8.1078E-01
363.10	8.5534E-01
363.46	9.9448E-01
363.82	8.5048E-01
364.18	1.0183E00
364.54	9.6490E-01
364.90	9.1934E-01
365.26	9.0344E-01
365.62	1.0330E00
365.98	9.0017E-01
366.35	7.2082E-01
366.71	8.7348E-01
367.07	1.1189E00
367.43	7.0812E-01
367.79	1.0113E00
368.15	9.2766E-01
368.51	1.0996E00
368.87	9.6183E-01
369.23	1.0278E00
369.59	8.0816E-01
369.95	8.7530E-01
370.31	8.3472E-01
370.67	9.8740E-01
371.03	8.3326E-01
371.39	8.1497E-01
371.75	8.2317E-01
372.11	8.4926E-01
372.47	7.8082E-01
372.83	7.8810E-01
373.19	6.5841E-01
373.55	8.6248E-01
373.91	8.8041E-01
374.27	9.4959E-01
374.63	9.2590E-01
374.99	8.4101E-01
375.35	8.0868E-01
375.71	8.2373E-01
376.07	8.3127E-01
376.42	8.2240E-01
376.78	7.4572E-01
377.14	8.4586E-01
377.50	9.2250E-01
377.86	7.8566E-01
378.22	7.4075E-01
378.58	7.4164E-01
378.94	7.1859E-01
379.30	7.5546E-01
379.66	7.4423E-01
380.02	7.2808E-01
380.38	7.0751E-01
380.74	7.4200E-01
381.09	7.7908E-01
381.45	7.1791E-01
381.81	6.9361E-01
382.17	7.3140E-01
382.53	7.6093E-01
382.89	6.8159E-01
383.25	7.1615E-01
383.61	7.0877E-01
383.97	6.8780E-01
384.32	6.8572E-01
384.68	6.5475E-01
385.04	7.2655E-01
385.40	7.4884E-01
385.76	7.4551E-01
386.12	7.0134E-01
386.48	7.1238E-01
386.83	6.6471E-01
387.19	6.6389E-01
387.55	7.4223E-01
387.91	7.1749E-01
388.27	6.7103E-01
388.62	7.5352E-01
388.98	6.8359E-01
389.34	7.5846E-01
389.70	6.8833E-01
390.06	7.0963E-01
390.42	7.1643E-01
390.77	6.9904E-01
391.13	7.1275E-01
391.49	7.0040E-01
391.85	7.3796E-01
392.20	6.5210E-01
392.56	6.6077E-01
392.92	6.7008E-01
393.28	6.7248E-01
393.64	7.0263E-01
393.99	7.1682E-01
394.35	7.0433E-01
394.71	6.9614E-01
395.07	6.8186E-01
395.42	6.8417E-01
395.78	6.9689E-01
396.14	6.2921E-01
396.50	6.3136E-01
396.85	6.9423E-01
397.21	6.6867E-01
397.57	6.8731E-01
397.92	6.4273E-01
398.28	6.2162E-01
398.64	7.3896E-01
399.00	5.9598E-01
399.35	6.2006E-01
399.71	6.6458E-01
400.07	6.4840E-01
400.42	6.3330E-01
400.78	6.4953E-01
401.14	6.5248E-01
401.49	6.0472E-01
401.85	6.0069E-01
402.21	6.1078E-01
402.57	6.0673E-01
402.92	6.4007E-01
403.28	6.0868E-01
403.63	6.0580E-01
403.99	6.1952E-01
404.35	6.0155E-01
404.70	5.9052E-01
405.06	5.9973E-01
405.42	6.1358E-01
405.77	5.7024E-01
406.13	5.6957E-01
406.49	5.6611E-01
406.84	5.7285E-01
407.20	5.5899E-01
407.55	6.0305E-01
407.91	6.1411E-01
408.27	5.7516E-01
408.62	5.7825E-01
408.98	5.8558E-01
409.34	5.9569E-01
409.69	5.6961E-01
410.05	6.0046E-01
410.40	5.7355E-01
410.76	5.3041E-01
411.11	5.3509E-01
411.47	5.8009E-01
411.83	5.4992E-01
412.18	5.6065E-01
412.54	5.4958E-01
412.89	5.4595E-01
413.25	5.6651E-01
413.60	5.9164E-01
413.96	5.5393E-01
414.31	5.5770E-01
414.67	5.8832E-01
415.03	5.7691E-01
415.38	5.9122E-01
415.74	5.8404E-01
416.09	5.8059E-01
416.45	5.8847E-01
416.80	5.7690E-01
417.16	5.7225E-01
417.51	5.6879E-01
417.87	5.4791E-01
418.22	5.4119E-01
418.58	5.5355E-01
418.93	5.2967E-01
419.29	5.6772E-01
419.64	5.5118E-01
420.00	5.2074E-01
420.35	5.1140E-01
420.71	5.3710E-01
421.06	5.3904E-01
421.42	5.5284E-01
421.77	5.4463E-01
422.12	5.4365E-01
422.48	5.1464E-01
422.83	5.5005E-01
423.19	5.1977E-01
423.54	5.1985E-01
423.90	5.2674E-01
424.25	4.9708E-01
424.61	5.4790E-01
424.96	5.1299E-01
425.31	5.1021E-01
425.67	4.8908E-01
426.02	5.1081E-01
426.38	5.1036E-01
426.73	4.8349E-01
427.09	5.0598E-01
427.44	4.8500E-01
427.79	4.9024E-01
428.15	5.0509E-01
428.50	5.0182E-01
428.85	5.1414E-01
429.21	4.7440E-01
429.56	4.6431E-01
429.92	4.7340E-01
430.27	4.8923E-01
430.62	4.8857E-01
430.98	4.9446E-01
431.33	4.8335E-01
431.68	4.6738E-01
432.04	4.6394E-01
432.39	4.7011E-01
432.74	4.8786E-01
433.10	4.5721E-01
433.45	4.8410E-01
433.80	4.8114E-01
434.16	4.9168E-01
434.51	4.6829E-01
434.86	4.8754E-01
435.22	4.6957E-01
435.57	5.0203E-01
435.92	4.9226E-01
436.28	4.8977E-01
436.63	4.5446E-01
436.98	4.8603E-01
437.34	4.8274E-01
437.69	4.5906E-01
438.04	4.4640E-01
438.39	4.7769E-01
438.75	4.8918E-01
439.10	4.4184E-01
439.45	4.7980E-01
439.81	4.7440E-01
440.16	4.4593E-01
440.51	4.6576E-01
440.86	4.6418E-01
441.22	4.5409E-01
441.57	4.5832E-01
441.92	4.4486E-01
442.27	4.6670E-01
442.63	4.5720E-01
442.98	4.8829E-01
443.33	4.7751E-01
443.68	4.4450E-01
444.03	4.1921E-01
444.39	4.2157E-01
444.74	4.5741E-01
445.09	4.6394E-01
445.44	4.6486E-01
445.79	4.1059E-01
446.15	4.4113E-01
446.50	4.5580E-01
446.85	4.2897E-01
447.20	4.1705E-01
447.55	4.5095E-01
447.91	4.3424E-01
448.26	4.4528E-01
448.61	4.4120E-01
448.96	4.3213E-01
449.31	4.3863E-01
449.66	4.4307E-01
450.02	4.3628E-01
450.37	4.3613E-01
450.72	4.3014E-01
451.07	4.6383E-01
451.42	4.6115E-01
451.77	4.3547E-01
452.12	4.3526E-01
452.47	4.5557E-01
452.83	4.1867E-01
453.18	4.4286E-01
453.53	4.3790E-01
453.88	4.1224E-01
454.23	4.0702E-01
454.58	4.0710E-01
454.93	4.3723E-01
455.28	4.3436E-01
455.63	4.2190E-01
455.98	4.1248E-01
456.34	4.3417E-01
456.69	4.2121E-01
457.04	4.2473E-01
457.39	3.9817E-01
457.74	4.0660E-01
458.09	3.9591E-01
458.44	3.9492E-01
458.79	3.8641E-01
459.14	3.9953E-01
459.49	4.1589E-01
459.84	3.9293E-01
460.19	4.1800E-01
460.54	4.1544E-01
460.89	3.8285E-01
461.24	4.1895E-01
461.59	4.0084E-01
461.94	4.0643E-01
462.29	3.7992E-01
462.64	4.0182E-01
462.99	4.0539E-01
463.34	4.2899E-01
463.69	4.0202E-01
464.04	3.7496E-01
464.39	3.8939E-01
464.74	3.9478E-01
465.09	4.0605E-01
465.44	3.8220E-01
465.79	3.9451E-01
466.14	3.9602E-01
466.49	3.8955E-01
466.84	3.8577E-01
467.19	3.9902E-01
467.54	4.0045E-01
467.89	3.8095E-01
468.24	3.6167E-01
468.59	3.7330E-01
468.94	3.6586E-01
469.29	3.6746E-01
469.64	3.7968E-01
469.99	3.6607E-01
470.34	3.5430E-01
470.68	3.7725E-01
471.03	3.6417E-01
471.38	3.6477E-01
471.73	3.4775E-01
472.08	3.4337E-01
472.43	3.3147E-01
472.78	3.4998E-01
473.13	3.4612E-01
473.48	3.4057E-01
473.83	3.3401E-01
474.17	3.3895E-01
474.52	3.3511E-01
474.87	3.2160E-01
475.22	3.2846E-01
475.57	3.1236E-01
475.92	3.0431E-01
476.27	3.1341E-01
476.61	3.0499E-01
476.96	2.9711E-01
477.31	2.8817E-01
477.66	2.9365E-01
478.01	2.9213E-01
478.36	2.9030E-01
478.70	2.8603E-01
479.05	2.9080E-01
479.40	2.7733E-01
479.75	2.7411E-01
480.10	2.7602E-01
480.45	2.6970E-01
480.79	2.6816E-01
481.14	2.7189E-01
481.49	2.6548E-01
481.84	2.6079E-01
482.19	2.5887E-01
482.53	2.5831E-01
482.88	2.5626E-01
483.23	2.5173E-01
483.58	2.4653E-01
483.92	2.5279E-01
484.27	2.4481E-01
484.62	2.4330E-01
484.97	2.3811E-01
485.31	2.3699E-01
485.66	2.4191E-01
486.01	2.4189E-01
486.36	2.3052E-01
486.70	2.3680E-01
487.05	2.3551E-01
487.40	2.3547E-01
487.75	2.2856E-01
488.09	2.2875E-01
488.44	2.3096E-01
488.79	2.2741E-01
489.13	2.2470E-01
489.48	2.2754E-01
489.83	2.2802E-01
490.17	2.2188E-01
490.52	2.2208E-01
490.87	2.2264E-01
491.22	2.2590E-01
491.56	2.2267E-01
491.91	2.2550E-01
492.26	2.2308E-01
492.60	2.2299E-01
492.95	2.2510E-01
493.30	2.2465E-01
493.64	2.2193E-01
493.99	2.2323E-01
494.34	2.2030E-01
494.68	2.1801E-01
495.03	2.2355E-01
495.37	2.2143E-01
495.72	2.2367E-01
496.07	2.1876E-01
496.41	2.2034E-01
496.76	2.1867E-01
497.11	2.2100E-01
497.45	2.1983E-01
497.80	2.2037E-01
498.14	2.2024E-01
498.49	2.2068E-01
498.84	2.2103E-01
499.18	2.2075E-01
499.53	2.2046E-01
499.87	2.1846E-01
500.22	2.2098E-01
500.56	2.2045E-01
500.91	2.2036E-01
501.26	2.1990E-01
501.60	2.1969E-01
501.95	2.1786E-01
502.29	2.2070E-01
502.64	2.1686E-01
502.98	2.2031E-01
503.33	2.1834E-01
503.67	2.1897E-01
504.02	2.1841E-01
504.36	2.1800E-01
504.71	2.1858E-01
505.06	2.1660E-01
505.40	2.1674E-01
505.75	2.1788E-01
506.09	2.1805E-01
506.44	2.1790E-01
506.78	2.1584E-01
507.13	2.1711E-01
507.47	2.1536E-01
507.82	2.1507E-01
508.16	2.1725E-01
508.51	2.1515E-01
508.85	2.1253E-01
509.19	2.1535E-01
509.54	2.1509E-01
509.88	2.1536E-01
510.23	2.1212E-01
510.57	2.1306E-01
510.92	2.1263E-01
511.26	2.1272E-01
511.61	2.1265E-01
511.95	2.1267E-01
512.30	2.1148E-01
512.64	2.1288E-01
512.98	2.0930E-01
513.33	2.1080E-01
513.67	2.1130E-01
514.02	2.1041E-01
514.36	2.0866E-01
514.70	2.1006E-01
515.05	2.0772E-01
515.39	2.0942E-01
515.74	2.0739E-01
516.08	2.0628E-01
516.42	2.0827E-01
516.77	2.0853E-01
517.11	2.0868E-01
517.46	2.0971E-01
517.80	2.0675E-01
518.14	2.0789E-01
518.49	2.0606E-01
518.83	2.0698E-01
519.17	2.0694E-01
519.52	2.0726E-01
519.86	2.0607E-01
520.20	2.0526E-01
520.55	2.0596E-01
520.89	2.0467E-01
521.23	2.0697E-01
521.58	2.0634E-01
521.92	2.0791E-01
522.26	2.0902E-01
522.61	2.0565E-01
522.95	2.0737E-01
523.29	2.0444E-01
523.64	2.0470E-01
523.98	2.0566E-01
524.32	2.0624E-01
524.66	2.0773E-01
525.01	2.0768E-01
525.35	2.0851E-01
525.69	2.0909E-01
526.04	2.0867E-01
526.38	2.0542E-01
526.72	2.0964E-01
527.06	2.0829E-01
527.41	2.1004E-01
527.75	2.1202E-01
528.09	2.1030E-01
528.43	2.1363E-01
528.78	2.1132E-01
529.12	2.1319E-01
529.46	2.1485E-01
529.80	2.1394E-01
530.15	2.1466E-01
530.49	2.1456E-01
530.83	2.1571E-01
531.17	2.1594E-01
531.51	2.1513E-01
531.86	2.1689E-01
532.20	2.1793E-01
532.54	2.1747E-01
532.88	2.1887E-01
533.22	2.2092E-01
533.57	2.2180E-01
533.91	2.2122E-01
534.25	2.2315E-01
534.59	2.2190E-01
534.93	2.2400E-01
535.27	2.2285E-01
535.62	2.2697E-01
535.96	2.2607E-01
536.30	2.2667E-01
536.64	2.2708E-01
536.98	2.2892E-01
537.32	2.2824E-01
537.66	2.2820E-01
538.01	2.3081E-01
538.35	2.3245E-01
538.69	2.2972E-01
539.03	2.3530E-01
539.37	2.3293E-01
539.71	2.3485E-01
540.05	2.3518E-01
540.39	2.3602E-01
540.73	2.3497E-01
541.07	2.3560E-01
541.42	2.3609E-01
541.76	2.3614E-01
542.10	2.3745E-01
542.44	2.3854E-01
542.78	2.3874E-01
543.12	2.3805E-01
543.46	2.4317E-01
543.80	2.4027E-01
544.14	2.4015E-01
544.48	2.3932E-01
544.82	2.4191E-01
545.16	2.4239E-01
545.50	2.4104E-01
545.84	2.4323E-01
546.18	2.4154E-01
546.52	2.4441E-01
546.86	2.4235E-01
547.20	2.4559E-01
547.54	2.4852E-01
547.88	2.4411E-01
548.22	2.4452E-01
548.56	2.4571E-01
548.90	2.4415E-01
549.24	2.4640E-01
549.58	2.4706E-01
549.92	2.4533E-01
550.26	2.4956E-01
550.60	2.4615E-01
550.94	2.4481E-01
551.28	2.4811E-01
551.62	2.4652E-01
551.96	2.4892E-01
552.30	2.4998E-01
552.64	2.4867E-01
552.98	2.4896E-01
553.32	2.4940E-01
553.66	2.4791E-01
554.00	2.4880E-01
554.34	2.4944E-01
554.68	2.5043E-01
555.02	2.5054E-01
555.36	2.5172E-01
555.69	2.5070E-01
556.03	2.5036E-01
556.37	2.5156E-01
556.71	2.4956E-01
557.05	2.4924E-01
557.39	2.4968E-01
557.73	2.5011E-01
558.07	2.5197E-01
558.41	2.5072E-01
558.75	2.5116E-01
559.08	2.5127E-01
559.42	2.4905E-01
559.76	2.5287E-01
560.10	2.5238E-01
560.44	2.5232E-01
560.78	2.4987E-01
561.12	2.5162E-01
561.45	2.5086E-01
561.79	2.5214E-01
562.13	2.5211E-01
562.47	2.5236E-01
562.81	2.5255E-01
563.15	2.5246E-01
563.48	2.5294E-01
563.82	2.5004E-01
564.16	2.5221E-01
564.50	2.5245E-01
564.84	2.5295E-01
565.17	2.5313E-01
565.51	2.5257E-01
565.85	2.5463E-01
566.19	2.5143E-01
566.52	2.5510E-01
566.86	2.5221E-01
567.20	2.5456E-01
567.54	2.5361E-01
567.88	2.5411E-01
568.21	2.5367E-01
568.55	2.5522E-01
568.89	2.5532E-01
569.23	2.5504E-01
569.56	2.5464E-01
569.90	2.5562E-01
570.24	2.5728E-01
570.57	2.5706E-01
570.91	2.5752E-01
571.25	2.5410E-01
571.59	2.5723E-01
571.92	2.5723E-01
572.26	2.5779E-01
572.60	2.6003E-01
572.93	2.5878E-01
573.27	2.6107E-01
573.61	2.6159E-01
573.95	2.5754E-01
574.28	2.6209E-01
574.62	2.6225E-01
574.96	2.6256E-01
575.29	2.6179E-01
575.63	2.6595E-01
575.97	2.6513E-01
576.30	2.7135E-01
576.64	2.6781E-01
576.98	2.6748E-01
577.31	2.6885E-01
577.65	2.7147E-01
577.98	2.6974E-01
578.32	2.7207E-01
578.66	2.7327E-01
578.99	2.7382E-01
579.33	2.7473E-01
579.67	2.7304E-01
580.00	2.7664E-01
580.34	2.7586E-01
580.67	2.7732E-01
581.01	2.7971E-01
581.35	2.8085E-01
581.68	2.8204E-01
582.02	2.8081E-01
582.35	2.8289E-01
582.69	2.8283E-01
583.02	2.8728E-01
583.36	2.8464E-01
583.70	2.8404E-01
584.03	2.8610E-01
584.37	2.8437E-01
584.70	2.9019E-01
585.04	2.9011E-01
585.37	2.8878E-01
585.71	2.9332E-01
586.04	2.9255E-01
586.38	2.9014E-01
586.72	2.9423E-01
587.05	2.9564E-01
587.39	2.9686E-01
587.72	2.9476E-01
588.06	2.9711E-01
588.39	2.9683E-01
588.73	2.9997E-01
589.06	2.9800E-01
589.40	3.0257E-01
589.73	3.0403E-01
590.07	3.0473E-01
590.40	3.0476E-01
590.73	3.0839E-01
591.07	3.0553E-01
591.40	3.1194E-01
591.74	3.0495E-01
592.07	3.0920E-01
592.41	3.1049E-01
592.74	3.1146E-01
593.08	3.0959E-01
593.41	3.1166E-01
593.75	3.0942E-01
594.08	3.1415E-01
594.41	3.1281E-01
594.75	3.1389E-01
595.08	3.1393E-01
595.42	3.0987E-01
595.75	3.1524E-01
596.09	3.1521E-01
596.42	3.1351E-01
596.75	3.1754E-01
597.09	3.1867E-01
597.42	3.1554E-01
597.75	3.1952E-01
598.09	3.2027E-01
598.42	3.1784E-01
598.76	3.1987E-01
599.09	3.2397E-01
599.42	3.2378E-01
599.76	3.2244E-01
600.09	3.2134E-01
600.42	3.2646E-01
600.76	3.1981E-01
601.09	3.2361E-01
601.42	3.2690E-01
601.76	3.2309E-01
602.09	3.2233E-01
602.42	3.2462E-01
602.76	3.2357E-01
603.09	3.2242E-01
603.42	3.2860E-01
603.76	3.2461E-01
604.09	3.2479E-01
604.42	3.2715E-01
604.76	3.2472E-01
605.09	3.2996E-01
605.42	3.2667E-01
605.75	3.2822E-01
606.09	3.2668E-01
606.42	3.2753E-01
606.75	3.2926E-01
607.09	3.2984E-01
607.42	3.2989E-01
607.75	3.3042E-01
608.08	3.2987E-01
608.42	3.3225E-01
608.75	3.2829E-01
609.08	3.3279E-01
609.41	3.3194E-01
609.75	3.3029E-01
610.08	3.3218E-01
610.41	3.3416E-01
610.74	3.3321E-01
611.07	3.3325E-01
611.41	3.3250E-01
611.74	3.3393E-01
612.07	3.3590E-01
612.40	3.3075E-01
612.73	3.3436E-01
613.07	3.3628E-01
613.40	3.3268E-01
613.73	3.3164E-01
614.06	3.3458E-01
614.39	3.3559E-01
614.72	3.3681E-01
615.06	3.3630E-01
615.39	3.4009E-01
615.72	3.3463E-01
616.05	3.3824E-01
616.38	3.3907E-01
616.71	3.3995E-01
617.05	3.3768E-01
617.38	3.3979E-01
617.71	3.3768E-01
618.04	3.3957E-01
618.37	3.3778E-01
618.70	3.3869E-01
619.03	3.3993E-01
619.36	3.3434E-01
619.69	3.4147E-01
620.03	3.3761E-01
620.36	3.3853E-01
620.69	3.3706E-01
621.02	3.3989E-01
621.35	3.3884E-01
621.68	3.3583E-01
622.01	3.3493E-01
622.34	3.3678E-01
622.67	3.3573E-01
623.00	3.3728E-01
623.33	3.3791E-01
623.66	3.3578E-01
623.99	3.3627E-01
624.32	3.3509E-01
624.65	3.3615E-01
624.99	3.3620E-01
625.32	3.3752E-01
625.65	3.3650E-01
625.98	3.3176E-01
626.31	3.3591E-01
626.64	3.3674E-01
626.97	3.3739E-01
627.30	3.3459E-01
627.63	3.3667E-01
627.96	3.3370E-01
628.29	3.3350E-01
628.62	3.3650E-01
628.95	3.3655E-01
629.28	3.3134E-01
629.61	3.4171E-01
629.94	3.3686E-01
630.26	3.3738E-01
630.59	3.3934E-01
630.92	3.3735E-01
631.25	3.3911E-01
631.58	3.4277E-01
631.91	3.3817E-01
632.24	3.4498E-01
632.57	3.4155E-01
632.90	3.4215E-01
633.23	3.4270E-01
633.56	3.4444E-01
633.89	3.4494E-01
634.22	3.4622E-01
634.55	3.4733E-01
634.88	3.5107E-01
635.20	3.5042E-01
635.53	3.5283E-01
635.86	3.5309E-01
636.19	3.5712E-01
636.52	3.5808E-01
636.85	3.5515E-01
637.18	3.6000E-01
637.51	3.5668E-01
637.83	3.6056E-01
638.16	3.5680E-01
638.49	3.6779E-01
638.82	3.6611E-01
639.15	3.6899E-01
639.48	3.7150E-01
639.81	3.7357E-01
640.13	3.6994E-01
640.46	3.7582E-01
640.79	3.7563E-01
641.12	3.7936E-01
641.45	3.7841E-01
641.77	3.7594E-01
642.10	3.8470E-01
642.43	3.8609E-01
642.76	3.8745E-01
643.09	3.8524E-01
643.41	3.8837E-01
643.74	3.8864E-01
644.07	3.8882E-01
644.40	3.9184E-01
644.73	3.9633E-01
645.05	3.9784E-01
645.38	4.0042E-01
645.71	4.0135E-01
646.04	4.0144E-01
646.36	4.0078E-01
646.69	4.0711E-01
647.02	4.0727E-01
647.35	4.0471E-01
647.67	4.1005E-01
648.00	4.0885E-01
648.33	4.1370E-01
648.66	4.1133E-01
648.98	4.1706E-01
649.31	4.1579E-01
649.64	4.1786E-01
649.96	4.2194E-01
650.29	4.2370E-01
650.62	4.2429E-01
650.94	4.2394E-01
651.27	4.2341E-01
651.60	4.2434E-01
651.92	4.3157E-01
652.25	4.3263E-01
652.58	4.3194E-01
652.90	4.3395E-01
653.23	4.3407E-01
653.56	4.3561E-01
653.88	4.3762E-01
654.21	4.3769E-01
654.54	4.3964E-01
654.86	4.4529E-01
655.19	4.4013E-01
655.52	4.4682E-01
655.84	4.4560E-01
656.17	4.4817E-01
656.49	4.5337E-01
656.82	4.4797E-01
657.15	4.5298E-01
657.47	4.5294E-01
657.80	4.5314E-01
658.13	4.5455E-01
658.45	4.5757E-01
658.78	4.5629E-01
659.10	4.6190E-01
659.43	4.6177E-01
659.75	4.6040E-01
660.08	4.5868E-01
660.41	4.6480E-01
660.73	4.6515E-01
661.06	4.6836E-01
661.38	4.6699E-01
661.71	4.6850E-01
662.03	4.6915E-01
662.36	4.7507E-01
662.68	4.7374E-01
663.01	4.6806E-01
663.33	4.7225E-01
663.66	4.7586E-01
663.98	4.7287E-01
664.31	4.7359E-01
664.63	4.8299E-01
664.96	4.7972E-01
665.28	4.8335E-01
665.61	4.8245E-01
665.93	4.8296E-01
666.26	4.8555E-01
666.58	4.8606E-01
666.91	4.8277E-01
667.23	4.8831E-01
667.56	4.8261E-01
667.88	4.8978E-01
668.21	4.8979E-01
668.53	4.8699E-01
668.86	4.9710E-01
669.18	4.9024E-01
669.50	5.0099E-01
669.83	4.9890E-01
670.15	5.0047E-01
670.48	4.9948E-01
670.80	4.9769E-01
671.13	4.9542E-01
671.45	5.0122E-01
671.77	5.0419E-01
672.10	5.0086E-01
672.42	5.0843E-01
672.75	5.0505E-01
673.07	5.0940E-01
673.39	5.0472E-01
673.72	5.0764E-01
674.04	5.1146E-01
674.37	5.1523E-01
674.69	5.1187E-01
675.01	5.1638E-01
675.34	5.1768E-01
675.66	5.1898E-01
675.98	5.1352E-01
676.31	5.2148E-01
676.63	5.2313E-01
676.95	5.2014E-01
677.28	5.2434E-01
677.60	5.2465E-01
677.92	5.2291E-01
678.25	5.2859E-01
678.57	5.2953E-01
678.89	5.2760E-01
679.22	5.3603E-01
679.54	5.3335E-01
679.86	5.3339E-01
680.18	5.3551E-01
680.51	5.3714E-01
680.83	5.4215E-01
681.15	5.3652E-01
681.48	5.4038E-01
681.80	5.4433E-01
682.12	5.4092E-01
682.44	5.4955E-01
682.77	5.4933E-01
683.09	5.5278E-01
683.41	5.5038E-01
683.73	5.5594E-01
684.06	5.5528E-01
684.38	5.5658E-01
684.70	5.5521E-01
685.02	5.6076E-01
685.34	5.6650E-01
685.67	5.6152E-01
685.99	5.6888E-01
686.31	5.6510E-01
686.63	5.7416E-01
686.96	5.7097E-01
687.28	5.7796E-01
687.60	5.6969E-01
687.92	5.7633E-01
688.24	5.8202E-01
688.56	5.8344E-01
688.89	5.8495E-01
689.21	5.8256E-01
689.53	5.8520E-01
689.85	5.9399E-01
690.17	5.9018E-01
690.49	5.9896E-01
690.82	5.9890E-01
691.14	5.9886E-01
691.46	6.0201E-01
691.78	6.0570E-01
692.10	5.9931E-01
692.42	6.0621E-01
692.74	6.1085E-01
693.06	6.1212E-01
693.39	6.2267E-01
693.71	6.2346E-01
694.03	6.2361E-01
694.35	6.2515E-01
694.67	6.2754E-01
694.99	6.3370E-01
695.31	6.3529E-01
695.63	6.3487E-01
695.95	6.4044E-01
696.27	6.3836E-01
696.59	6.4390E-01
696.91	6.5287E-01
697.23	6.5180E-01
697.56	6.4999E-01
697.88	6.5737E-01
698.20	6.5650E-01
698.52	6.6312E-01
698.84	6.6802E-01
699.16	6.7292E-01
699.48	6.6640E-01
699.80	6.7512E-01
700.12	6.8155E-01
700.44	6.8248E-01
700.76	6.8396E-01
701.08	6.8812E-01
701.40	6.9123E-01
701.72	6.9815E-01
702.04	6.9761E-01
702.36	7.0365E-01
702.68	7.0661E-01
703.00	7.1160E-01
703.32	7.1548E-01
703.64	7.1617E-01
703.96	7.0954E-01
704.28	7.2019E-01
704.60	7.2844E-01
704.91	7.3040E-01
705.23	7.3158E-01
705.55	7.4050E-01
705.87	7.3491E-01
706.19	7.3732E-01
706.51	7.4187E-01
706.83	7.4583E-01
707.15	7.6507E-01
707.47	7.4917E-01
707.79	7.6403E-01
708.11	7.6542E-01
708.43	7.6890E-01
708.74	7.7566E-01
709.06	7.8638E-01
709.38	7.8174E-01
709.70	7.7710E-01
710.02	7.8765E-01
710.34	7.8396E-01
710.66	8.0421E-01
710.98	7.9978E-01
711.29	7.9933E-01
711.61	8.1356E-01
711.93	8.1827E-01
712.25	8.1205E-01
712.57	8.2265E-01
712.89	8.2497E-01
713.20	8.2648E-01
713.52	8.3499E-01
713.84	8.4238E-01
714.16	8.3596E-01
714.48	8.3835E-01
714.80	8.5173E-01
715.11	8.4930E-01
715.43	8.6145E-01
715.75	8.6714E-01
716.07	8.7614E-01
716.39	8.5991E-01
716.70	8.7100E-01
717.02	8.6571E-01
717.34	8.9144E-01
717.66	8.8301E-01
717.97	8.9379E-01
718.29	8.9865E-01
718.61	9.1198E-01
718.93	9.1072E-01
719.24	9.1339E-01
719.56	9.3232E-01
719.88	9.2449E-01
720.20	9.3598E-01
720.51	9.4755E-01
720.83	9.4426E-01
721.15	9.6344E-01
721.46	9.5974E-01
721.78	9.6575E-01
722.10	9.7985E-01
722.42	9.8981E-01
722.73	9.9544E-01
723.05	9.8290E-01
723.37	9.9742E-01
723.68	1.0072E00
724.00	1.0069E00
724.32	1.0248E00
724.63	1.0234E00
724.95	1.0168E00
725.27	1.0273E00
725.58	1.0335E00
725.90	1.0338E00
726.22	1.0506E00
726.53	1.0287E00
726.85	1.0427E00
727.16	1.0654E00
727.48	1.0463E00
727.80	1.0577E00
728.11	1.0622E00
728.43	1.0602E00
728.74	1.0552E00
729.06	1.0752E00
729.38	1.0702E00
729.69	1.0759E00
730.01	1.0839E00
730.32	1.0906E00
730.64	1.0904E00
730.96	1.0788E00
731.27	1.1082E00
731.59	1.0838E00
731.90	1.0967E00
732.22	1.1055E00
732.53	1.1031E00
732.85	1.1164E00
733.16	1.1133E00
733.48	1.1196E00
733.80	1.1135E00
734.11	1.1340E00
734.43	1.1338E00
734.74	1.1328E00
735.06	1.1466E00
735.37	1.1553E00
735.69	1.1400E00
736.00	1.1533E00
736.32	1.1556E00
736.63	1.1620E00
736.95	1.1608E00
737.26	1.1835E00
737.58	1.1824E00
737.89	1.1903E00
738.21	1.1788E00
738.52	1.1860E00
738.83	1.1898E00
739.15	1.1879E00
739.46	1.2060E00
739.78	1.2030E00
740.09	1.2166E00
740.41	1.2095E00
740.72	1.2055E00
741.04	1.2068E00
741.35	1.2084E00
741.66	1.2305E00
741.98	1.2229E00
742.29	1.2287E00
742.61	1.2224E00
742.92	1.2271E00
743.23	1.2273E00
743.55	1.2360E00
743.86	1.2257E00
744.18	1.2334E00
744.49	1.2347E00
744.80	1.2325E00
745.12	1.2345E00
745.43	1.2383E00
745.74	1.2377E00
746.06	1.2292E00
746.37	1.2282E00
746.68	1.2370E00
747.00	1.2344E00
747.31	1.2257E00
747.62	1.2174E00
747.94	1.2373E00
748.25	1.2379E00
748.56	1.2383E00
748.88	1.2219E00
749.19	1.2310E00
749.50	1.2348E00
749.82	1.2262E00
750.13	1.2339E00
750.44	1.2345E00
750.75	1.2201E00
751.07	1.2368E00
751.38	1.2450E00
751.69	1.2211E00
752.01	1.2387E00
752.32	1.2371E00
752.63	1.2382E00
752.94	1.2459E00
753.26	1.2522E00
753.57	1.2379E00
753.88	1.2465E00
754.19	1.2481E00
754.51	1.2504E00
754.82	1.2465E00
755.13	1.2609E00
755.44	1.2596E00
755.75	1.2639E00
756.07	1.2633E00
756.38	1.2782E00
756.69	1.2746E00
757.00	1.2819E00
757.31	1.2977E00
757.63	1.3040E00
757.94	1.3077E00
758.25	1.3219E00
758.56	1.2880E00
758.87	1.3337E00
759.18	1.3368E00
759.50	1.3346E00
759.81	1.3293E00
760.12	1.3379E00
760.43	1.3484E00
760.74	1.3447E00
761.05	1.3715E00
761.36	1.3747E00
761.67	1.3855E00
761.99	1.3942E00
762.30	1.3736E00
762.61	1.4079E00
762.92	1.4042E00
763.23	1.4061E00
763.54	1.4214E00
763.85	1.4436E00
764.16	1.4467E00
764.47	1.4645E00
764.78	1.4754E00
765.10	1.4769E00
765.41	1.4770E00
765.72	1.4866E00
766.03	1.5214E00
766.34	1.5314E00
766.65	1.5411E00
766.96	1.5725E00
767.27	1.5606E00
767.58	1.5618E00
767.89	1.5792E00
768.20	1.6028E00
768.51	1.6035E00
768.82	1.6074E00
769.13	1.6386E00
769.44	1.6596E00
769.75	1.6561E00
770.06	1.6618E00
770.37	1.6594E00
770.68	1.7006E00
770.99	1.7113E00
771.30	1.7224E00
771.61	1.7745E00
771.92	1.7345E00
772.23	1.7581E00
772.54	1.7968E00
772.85	1.7787E00
773.16	1.7969E00
773.47	1.8509E00
773.78	1.8359E00
774.09	1.8663E00
774.39	1.8688E00
774.70	1.8740E00
775.01	1.9112E00
775.32	1.9212E00
775.63	1.9442E00
775.94	1.9639E00
776.25	1.9516E00
776.56	1.9710E00
776.87	2.0224E00
777.18	2.0167E00
777.48	2.0367E00
777.79	2.0576E00
778.10	2.0737E00
778.41	2.0900E00
778.72	2.1128E00
779.03	2.1234E00
779.34	2.1688E00
779.65	2.1702E00
779.95	2.2118E00
780.26	2.1924E00
780.57	2.2298E00
780.88	2.2252E00
781.19	2.2651E00
781.50	2.2670E00
781.80	2.2882E00
782.11	2.2940E00
782.42	2.3488E00
782.73	2.3029E00
783.04	2.3926E00
783.34	2.3931E00
783.65	2.4120E00
783.96	2.4182E00
784.27	2.4345E00
784.57	2.4527E00
784.88	2.4822E00
785.19	2.4944E00
785.50	2.5231E00
785.81	2.5536E00
786.11	2.5184E00
786.42	2.5479E00
786.73	2.5738E00
787.04	2.6065E00
787.34	2.6564E00
787.65	2.6650E00
787.96	2.7268E00
788.26	2.7066E00
788.57	2.7628E00
788.88	2.7304E00
789.19	2.8144E00
789.49	2.7855E00
789.80	2.8408E00
790.11	2.8466E00
790.41	2.8746E00
790.72	2.9015E00
791.03	2.9157E00
791.33	2.9453E00
791.64	3.0124E00
791.95	2.9591E00
792.25	3.0533E00
792.56	3.0227E00
792.87	3.0690E00
793.17	3.0880E00
793.48	3.1042E00
793.79	3.1339E00
794.09	3.1947E00
794.40	3.1516E00
794.70	3.1605E00
795.01	3.1703E00
795.32	3.2151E00
795.62	3.2806E00
795.93	3.2850E00
796.23	3.2960E00
796.54	3.3375E00
796.85	3.3239E00
797.15	3.3678E00
797.46	3.3946E00
797.76	3.4813E00
798.07	3.4677E00
798.37	3.4752E00
798.68	3.5286E00
798.99	3.5270E00
799.29	3.5627E00
799.60	3.6237E00
799.90	3.6238E00
800.21	3.6774E00
800.51	3.7063E00
800.82	3.7012E00
801.12	3.7638E00
801.43	3.7581E00
801.73	3.8377E00
802.04	3.8262E00
802.34	3.8220E00
802.65	3.8686E00
802.95	4.0026E00
803.26	3.9693E00
803.56	3.9002E00
803.87	3.9625E00
804.17	3.9900E00
804.48	3.9886E00
804.78	4.0601E00
805.09	4.1263E00
805.39	4.1051E00
805.70	4.1276E00
806.00	4.1885E00
806.30	4.1804E00
806.61	4.2475E00
806.91	4.2717E00
807.22	4.3179E00
807.52	4.3382E00
807.83	4.3567E00
808.13	4.4086E00
808.43	4.3231E00
808.74	4.4433E00
809.04	4.4825E00
809.35	4.4592E00
809.65	4.5638E00
809.95	4.5850E00
810.26	4.6395E00
810.56	4.6601E00
810.86	4.7206E00
811.17	4.7566E00
811.47	4.7499E00
811.77	4.7491E00
812.08	4.7447E00
812.38	4.8938E00
812.69	4.7927E00
812.99	4.9519E00
813.29	4.9768E00
813.59	5.0201E00
813.90	5.0327E00
814.20	5.0373E00
814.50	5.1035E00
814.81	5.0485E00
815.11	5.1696E00
815.41	5.2984E00
815.72	5.2309E00
816.02	5.2680E00
816.32	5.2816E00
816.62	5.2454E00
816.93	5.3421E00
817.23	5.5042E00
817.53	5.4049E00
817.84	5.5132E00
818.14	5.5070E00
818.44	5.4922E00
818.74	5.6546E00
819.04	5.7571E00
819.35	5.6923E00
819.65	5.7350E00
819.95	5.8849E00
820.25	5.8908E00
820.56	5.8795E00
820.86	5.9536E00
821.16	6.0031E00
821.46	5.9989E00
821.76	6.0378E00
822.07	5.9882E00
822.37	6.0975E00
822.67	6.1938E00
822.97	6.2325E00
823.27	6.2198E00
823.57	6.3225E00
823.88	6.2855E00
824.18	6.3952E00
824.48	6.3827E00
824.78	6.4670E00
825.08	6.4393E00
825.38	6.5466E00
825.69	6.5536E00
825.99	6.6450E00
826.29	6.6799E00
826.59	6.6572E00
826.89	6.7760E00
827.19	6.6049E00
827.49	7.0358E00
827.79	6.9364E00
828.09	6.8750E00
828.39	7.0452E00
828.70	7.0157E00
829.00	7.0069E00
829.30	7.1355E00
829.60	7.2449E00
829.90	7.1414E00
830.20	7.0854E00
830.50	7.4054E00
830.80	7.4535E00
831.10	7.3057E00
831.40	7.5659E00
831.70	7.4804E00
832.00	7.5220E00
832.30	7.7425E00
832.60	7.6293E00
832.90	7.7766E00
833.20	7.9208E00
833.50	7.7430E00
833.80	7.8836E00
834.10	7.9632E00
834.40	7.8223E00
834.70	8.0045E00
835.00	8.0513E00
835.30	8.0146E00
835.60	8.1460E00
835.90	8.2101E00
836.20	8.4080E00
836.50	8.3965E00
836.80	8.4026E00
837.10	8.3608E00
837.40	8.5123E00
837.70	8.5629E00
838.00	8.5676E00
838.30	8.5362E00
838.60	8.8750E00
838.90	8.8633E00
839.19	8.7768E00
839.49	9.1151E00
839.79	8.9969E00
840.09	9.0892E00
840.39	8.9435E00
840.69	9.1193E00
840.99	9.6201E00
841.29	9.4755E00
841.59	9.4924E00
841.88	9.5465E00
842.18	9.5997E00
842.48	9.8412E00
842.78	9.7941E00
843.08	9.9084E00
843.38	9.7603E00
843.68	1.0072E01
843.97	1.0103E01
844.27	1.0148E01
844.57	1.0324E01
844.87	1.0390E01
845.17	1.0278E01
845.47	1.0154E01
845.76	1.0443E01
846.06	1.0627E01
846.36	1.0531E01
846.66	1.0753E01
846.96	1.0692E01
847.25	1.0711E01
847.55	1.0805E01
847.85	1.1076E01
848.15	1.0892E01
848.44	1.1238E01
848.74	1.0976E01
849.04	1.1265E01
849.34	1.1337E01
849.63	1.1572E01
849.93	1.1527E01
850.23	1.1989E01
850.53	1.1487E01
850.82	1.1798E01
851.12	1.1781E01
851.42	1.1653E01
851.71	1.1958E01
852.01	1.2217E01
852.31	1.2432E01
852.61	1.2501E01
852.90	1.2508E01
853.20	1.2638E01
853.50	1.2827E01
853.79	1.3154E01
854.09	1.2683E01
854.39	1.2884E01
854.68	1.3584E01
854.98	1.3397E01
855.28	1.3361E01
855.57	1.3510E01
855.87	1.3560E01
856.17	1.3626E01
856.46	1.3607E01
856.76	1.3741E01
857.05	1.3984E01
857.35	1.4091E01
857.65	1.3911E01
857.94	1.4275E01
858.24	1.4238E01
858.53	1.4594E01
858.83	1.4533E01
859.13	1.4787E01
859.42	1.4622E01
859.72	1.5137E01
860.01	1.5672E01
860.31	1.5288E01
860.60	1.5641E01
860.90	1.5622E01
861.20	1.5847E01
861.49	1.5576E01
861.79	1.6287E01
862.08	1.6338E01
862.38	1.6634E01
862.67	1.6565E01
862.97	1.6700E01
863.26	1.6536E01
863.56	1.7439E01
863.85	1.7317E01
864.15	1.7092E01
864.44	1.7713E01
864.74	1.7520E01
865.03	1.7655E01
865.33	1.7798E01
865.62	1.8243E01
865.92	1.8033E01
866.21	1.9232E01
866.51	1.9071E01
866.80	1.8999E01
867.10	1.9400E01
867.39	1.9088E01
867.69	1.9871E01
867.98	1.9040E01
868.27	1.9701E01
868.57	1.9732E01
868.86	2.0883E01
869.16	2.0579E01
869.45	2.0708E01
869.75	2.0168E01
870.04	2.1022E01
870.33	2.1246E01
870.63	2.1035E01
870.92	2.2050E01
871.22	2.2324E01
871.51	2.1950E01
871.80	2.2244E01
872.10	2.2244E01
>>>>>End Processed Spectral Data<<<<<
