SpectraSuite Data File
++++++++++++++++++++++++++++++++++++
Date: Tue May 12 13:14:51 PDT 2015
User: schluterlab
Dark Spectrum Present: Yes
Reference Spectrum Present: No
Number of Sampled Component Spectra: 1
Spectrometers: USB2E3373
Integration Time (usec): 2300000 (USB2E3373)
Spectra Averaged: 3 (USB2E3373)
Boxcar Smoothing: 0 (USB2E3373)
Correct for Electrical Dark: No (USB2E3373)
Strobe/Lamp Enabled: No (USB2E3373)
Correct for Detector Non-linearity: No (USB2E3373)
Correct for Stray Light: No (USB2E3373)
Number of Pixels in Processed Spectrum: 2048
>>>>>Begin Processed Spectral Data<<<<<
178.53	0.0000E00
178.91	0.0000E00
179.29	0.0000E00
179.67	0.0000E00
180.04	0.0000E00
180.42	0.0000E00
180.80	0.0000E00
181.18	0.0000E00
181.56	0.0000E00
181.94	0.0000E00
182.31	0.0000E00
182.69	0.0000E00
183.07	0.0000E00
183.45	0.0000E00
183.83	0.0000E00
184.20	0.0000E00
184.58	0.0000E00
184.96	0.0000E00
185.34	0.0000E00
185.72	0.0000E00
186.09	0.0000E00
186.47	0.0000E00
186.85	0.0000E00
187.23	0.0000E00
187.61	0.0000E00
187.98	0.0000E00
188.36	0.0000E00
188.74	0.0000E00
189.12	0.0000E00
189.49	0.0000E00
189.87	0.0000E00
190.25	0.0000E00
190.63	0.0000E00
191.00	0.0000E00
191.38	0.0000E00
191.76	0.0000E00
192.14	0.0000E00
192.51	0.0000E00
192.89	0.0000E00
193.27	0.0000E00
193.65	0.0000E00
194.02	0.0000E00
194.40	0.0000E00
194.78	0.0000E00
195.15	0.0000E00
195.53	-0.0000E00
195.91	0.0000E00
196.29	0.0000E00
196.66	0.0000E00
197.04	0.0000E00
197.42	0.0000E00
197.79	0.0000E00
198.17	0.0000E00
198.55	0.0000E00
198.92	0.0000E00
199.30	0.0000E00
199.68	0.0000E00
200.05	0.0000E00
200.43	0.0000E00
200.81	0.0000E00
201.18	0.0000E00
201.56	0.0000E00
201.94	0.0000E00
202.31	-0.0000E00
202.69	0.0000E00
203.07	0.0000E00
203.44	0.0000E00
203.82	0.0000E00
204.19	0.0000E00
204.57	0.0000E00
204.95	0.0000E00
205.32	0.0000E00
205.70	0.0000E00
206.08	0.0000E00
206.45	0.0000E00
206.83	0.0000E00
207.20	0.0000E00
207.58	0.0000E00
207.96	0.0000E00
208.33	0.0000E00
208.71	0.0000E00
209.08	0.0000E00
209.46	0.0000E00
209.84	0.0000E00
210.21	0.0000E00
210.59	0.0000E00
210.96	0.0000E00
211.34	0.0000E00
211.71	0.0000E00
212.09	0.0000E00
212.46	0.0000E00
212.84	0.0000E00
213.22	0.0000E00
213.59	0.0000E00
213.97	0.0000E00
214.34	0.0000E00
214.72	0.0000E00
215.09	0.0000E00
215.47	0.0000E00
215.84	0.0000E00
216.22	0.0000E00
216.59	0.0000E00
216.97	0.0000E00
217.34	0.0000E00
217.72	0.0000E00
218.09	0.0000E00
218.47	0.0000E00
218.84	0.0000E00
219.22	0.0000E00
219.59	0.0000E00
219.97	0.0000E00
220.34	0.0000E00
220.72	0.0000E00
221.09	0.0000E00
221.47	0.0000E00
221.84	0.0000E00
222.22	0.0000E00
222.59	0.0000E00
222.97	0.0000E00
223.34	0.0000E00
223.72	0.0000E00
224.09	0.0000E00
224.46	0.0000E00
224.84	0.0000E00
225.21	0.0000E00
225.59	0.0000E00
225.96	0.0000E00
226.34	0.0000E00
226.71	0.0000E00
227.08	0.0000E00
227.46	0.0000E00
227.83	0.0000E00
228.21	0.0000E00
228.58	0.0000E00
228.95	0.0000E00
229.33	0.0000E00
229.70	0.0000E00
230.08	0.0000E00
230.45	0.0000E00
230.82	0.0000E00
231.20	0.0000E00
231.57	0.0000E00
231.95	0.0000E00
232.32	0.0000E00
232.69	0.0000E00
233.07	0.0000E00
233.44	0.0000E00
233.81	0.0000E00
234.19	0.0000E00
234.56	0.0000E00
234.93	0.0000E00
235.31	0.0000E00
235.68	0.0000E00
236.05	0.0000E00
236.43	0.0000E00
236.80	0.0000E00
237.17	0.0000E00
237.55	0.0000E00
237.92	0.0000E00
238.29	0.0000E00
238.67	0.0000E00
239.04	0.0000E00
239.41	0.0000E00
239.79	0.0000E00
240.16	0.0000E00
240.53	0.0000E00
240.91	0.0000E00
241.28	0.0000E00
241.65	0.0000E00
242.02	0.0000E00
242.40	0.0000E00
242.77	0.0000E00
243.14	0.0000E00
243.51	0.0000E00
243.89	0.0000E00
244.26	0.0000E00
244.63	0.0000E00
245.00	0.0000E00
245.38	0.0000E00
245.75	0.0000E00
246.12	0.0000E00
246.49	0.0000E00
246.87	0.0000E00
247.24	0.0000E00
247.61	0.0000E00
247.98	0.0000E00
248.36	0.0000E00
248.73	0.0000E00
249.10	0.0000E00
249.47	0.0000E00
249.84	0.0000E00
250.22	0.0000E00
250.59	0.0000E00
250.96	0.0000E00
251.33	0.0000E00
251.70	0.0000E00
252.08	0.0000E00
252.45	0.0000E00
252.82	0.0000E00
253.19	0.0000E00
253.56	0.0000E00
253.94	0.0000E00
254.31	0.0000E00
254.68	0.0000E00
255.05	0.0000E00
255.42	0.0000E00
255.79	0.0000E00
256.16	0.0000E00
256.54	0.0000E00
256.91	0.0000E00
257.28	0.0000E00
257.65	0.0000E00
258.02	0.0000E00
258.39	0.0000E00
258.76	0.0000E00
259.14	0.0000E00
259.51	0.0000E00
259.88	0.0000E00
260.25	0.0000E00
260.62	0.0000E00
260.99	0.0000E00
261.36	0.0000E00
261.73	0.0000E00
262.10	0.0000E00
262.47	0.0000E00
262.85	0.0000E00
263.22	0.0000E00
263.59	0.0000E00
263.96	0.0000E00
264.33	0.0000E00
264.70	0.0000E00
265.07	0.0000E00
265.44	0.0000E00
265.81	0.0000E00
266.18	0.0000E00
266.55	0.0000E00
266.92	0.0000E00
267.29	0.0000E00
267.66	0.0000E00
268.03	0.0000E00
268.40	0.0000E00
268.77	0.0000E00
269.14	0.0000E00
269.51	0.0000E00
269.88	0.0000E00
270.25	0.0000E00
270.62	0.0000E00
270.99	0.0000E00
271.36	0.0000E00
271.73	0.0000E00
272.10	0.0000E00
272.47	0.0000E00
272.84	0.0000E00
273.21	0.0000E00
273.58	0.0000E00
273.95	0.0000E00
274.32	0.0000E00
274.69	0.0000E00
275.06	0.0000E00
275.43	0.0000E00
275.80	0.0000E00
276.17	0.0000E00
276.54	0.0000E00
276.91	0.0000E00
277.28	0.0000E00
277.65	0.0000E00
278.02	0.0000E00
278.39	0.0000E00
278.76	0.0000E00
279.13	0.0000E00
279.50	0.0000E00
279.87	0.0000E00
280.23	0.0000E00
280.60	0.0000E00
280.97	0.0000E00
281.34	0.0000E00
281.71	0.0000E00
282.08	0.0000E00
282.45	0.0000E00
282.82	0.0000E00
283.19	0.0000E00
283.56	0.0000E00
283.92	0.0000E00
284.29	0.0000E00
284.66	0.0000E00
285.03	0.0000E00
285.40	0.0000E00
285.77	0.0000E00
286.14	0.0000E00
286.51	0.0000E00
286.87	0.0000E00
287.24	0.0000E00
287.61	0.0000E00
287.98	0.0000E00
288.35	0.0000E00
288.72	0.0000E00
289.08	0.0000E00
289.45	0.0000E00
289.82	0.0000E00
290.19	0.0000E00
290.56	0.0000E00
290.93	0.0000E00
291.29	0.0000E00
291.66	0.0000E00
292.03	0.0000E00
292.40	0.0000E00
292.77	0.0000E00
293.13	0.0000E00
293.50	0.0000E00
293.87	0.0000E00
294.24	0.0000E00
294.60	0.0000E00
294.97	0.0000E00
295.34	0.0000E00
295.71	0.0000E00
296.08	0.0000E00
296.44	0.0000E00
296.81	0.0000E00
297.18	0.0000E00
297.55	0.0000E00
297.91	0.0000E00
298.28	0.0000E00
298.65	0.0000E00
299.02	0.0000E00
299.38	0.0000E00
299.75	0.0000E00
300.12	4.3779E-01
300.48	1.0900E00
300.85	4.5561E-01
301.22	1.1855E00
301.59	3.6436E-01
301.95	4.2668E-01
302.32	6.4149E-01
302.69	6.4303E-01
303.05	3.8764E-01
303.42	5.2253E-01
303.79	5.8568E-01
304.15	3.6655E-01
304.52	4.2920E-01
304.89	4.0240E-01
305.25	7.9615E-01
305.62	5.1205E-01
305.99	6.1645E-01
306.35	3.7136E-01
306.72	5.0156E-01
307.09	4.3113E-01
307.45	4.4030E-01
307.82	3.1670E-01
308.19	4.0540E-01
308.55	4.6421E-01
308.92	5.4280E-01
309.29	4.5277E-01
309.65	5.6888E-01
310.02	4.1377E-01
310.38	4.3757E-01
310.75	5.8346E-01
311.12	5.6190E-01
311.48	9.7764E-01
311.85	6.2907E-01
312.22	4.4224E-01
312.58	1.0410E00
312.95	6.4062E-01
313.31	6.1487E-01
313.68	8.0859E-01
314.05	1.3514E00
314.41	7.4986E-01
314.78	4.5322E-01
315.14	8.2773E-01
315.51	1.5955E00
315.87	6.9150E-01
316.24	1.0331E00
316.61	9.7853E-01
316.97	6.8460E-01
317.34	1.1376E00
317.70	9.0885E-01
318.07	9.2110E-01
318.43	1.0939E00
318.80	8.2355E-01
319.16	1.0618E00
319.53	7.5597E-01
319.89	1.5585E00
320.26	1.2072E00
320.62	1.4951E00
320.99	1.3134E00
321.35	7.6185E-01
321.72	1.0295E00
322.08	1.6502E00
322.45	9.5987E-01
322.81	1.0821E00
323.18	3.3531E00
323.54	1.8072E00
323.91	1.3928E00
324.27	2.7848E00
324.64	2.0353E00
325.00	1.4711E00
325.37	2.4554E00
325.73	8.9889E-01
326.10	3.0881E00
326.46	1.4325E00
326.83	1.1699E00
327.19	2.5069E00
327.56	9.6728E-01
327.92	1.4042E00
328.29	1.1184E00
328.65	1.4665E00
329.01	1.7364E00
329.38	1.1258E00
329.74	1.0086E00
330.11	1.4753E00
330.47	9.8390E-01
330.84	1.4201E00
331.20	1.4205E00
331.56	1.3215E00
331.93	1.4711E00
332.29	1.3639E00
332.66	9.5341E-01
333.02	1.1526E00
333.38	1.7256E00
333.75	8.0508E-01
334.11	1.2594E00
334.48	1.2566E00
334.84	1.1759E00
335.20	1.4442E00
335.57	2.6770E00
335.93	1.7811E00
336.29	1.3834E00
336.66	1.3328E00
337.02	9.3136E-01
337.38	1.1644E00
337.75	1.1291E00
338.11	9.5545E-01
338.47	1.3327E00
338.84	1.0996E00
339.20	9.1449E-01
339.56	2.6831E00
339.93	8.3821E-01
340.29	9.9733E-01
340.65	1.0881E00
341.02	1.8245E00
341.38	1.2437E00
341.74	1.3397E00
342.11	1.3047E00
342.47	1.3151E00
342.83	7.2391E-01
343.20	1.6725E00
343.56	1.0128E00
343.92	1.4108E00
344.28	9.3892E-01
344.65	1.4877E00
345.01	8.7673E-01
345.37	1.4175E00
345.73	1.2622E00
346.10	1.0839E00
346.46	1.2868E00
346.82	9.8109E-01
347.19	2.2276E00
347.55	9.1708E-01
347.91	9.2452E-01
348.27	1.0383E00
348.63	9.0308E-01
349.00	8.9287E-01
349.36	1.7984E00
349.72	1.1215E00
350.08	1.6334E00
350.45	9.3466E-01
350.81	8.7112E-01
351.17	1.1467E00
351.53	1.2412E00
351.89	1.0130E00
352.26	1.1621E00
352.62	9.6114E-01
352.98	1.1186E00
353.34	9.8777E-01
353.70	1.3045E00
354.07	9.5764E-01
354.43	9.0791E-01
354.79	1.0672E00
355.15	8.5285E-01
355.51	8.1407E-01
355.87	9.2206E-01
356.24	9.6052E-01
356.60	9.2918E-01
356.96	1.0068E00
357.32	9.0556E-01
357.68	8.5112E-01
358.04	7.6704E-01
358.40	8.4716E-01
358.77	7.8859E-01
359.13	9.3325E-01
359.49	9.9182E-01
359.85	9.6389E-01
360.21	7.2621E-01
360.57	8.8570E-01
360.93	8.7936E-01
361.29	9.3366E-01
361.66	7.7447E-01
362.02	7.1347E-01
362.38	9.3081E-01
362.74	8.1071E-01
363.10	8.5511E-01
363.46	9.9423E-01
363.82	8.5019E-01
364.18	1.0176E00
364.54	9.6515E-01
364.90	9.1902E-01
365.26	9.0313E-01
365.62	1.0328E00
365.98	9.0009E-01
366.35	7.2038E-01
366.71	8.7348E-01
367.07	1.1192E00
367.43	7.0818E-01
367.79	1.0112E00
368.15	9.2734E-01
368.51	1.0991E00
368.87	9.6125E-01
369.23	1.0276E00
369.59	8.0816E-01
369.95	8.7500E-01
370.31	8.3487E-01
370.67	9.8646E-01
371.03	8.3305E-01
371.39	8.1483E-01
371.75	8.2331E-01
372.11	8.4889E-01
372.47	7.8055E-01
372.83	7.8817E-01
373.19	6.5841E-01
373.55	8.6263E-01
373.91	8.8011E-01
374.27	9.4984E-01
374.63	9.2590E-01
374.99	8.4050E-01
375.35	8.0847E-01
375.71	8.2330E-01
376.07	8.3055E-01
376.42	8.2276E-01
376.78	7.4565E-01
377.14	8.4505E-01
377.50	9.2329E-01
377.86	7.8606E-01
378.22	7.4133E-01
378.58	7.4202E-01
378.94	7.1989E-01
379.30	7.5527E-01
379.66	7.4481E-01
380.02	7.2877E-01
380.38	7.0867E-01
380.74	7.4257E-01
381.09	7.7962E-01
381.45	7.1828E-01
381.81	6.9463E-01
382.17	7.3209E-01
382.53	7.6106E-01
382.89	6.8182E-01
383.25	7.1639E-01
383.61	7.0798E-01
383.97	6.8821E-01
384.32	6.8578E-01
384.68	6.5464E-01
385.04	7.2686E-01
385.40	7.4916E-01
385.76	7.4635E-01
386.12	7.0152E-01
386.48	7.1275E-01
386.83	6.6505E-01
387.19	6.6394E-01
387.55	7.4261E-01
387.91	7.1774E-01
388.27	6.7138E-01
388.62	7.5462E-01
388.98	6.8382E-01
389.34	7.5859E-01
389.70	6.8845E-01
390.06	7.1031E-01
390.42	7.1699E-01
390.77	6.9904E-01
391.13	7.1373E-01
391.49	7.0016E-01
391.85	7.3853E-01
392.20	6.5227E-01
392.56	6.6095E-01
392.92	6.7060E-01
393.28	6.7254E-01
393.64	7.0323E-01
393.99	7.1750E-01
394.35	7.0476E-01
394.71	6.9662E-01
395.07	6.8233E-01
395.42	6.8481E-01
395.78	6.9719E-01
396.14	6.2921E-01
396.50	6.3185E-01
396.85	6.9447E-01
397.21	6.6861E-01
397.57	6.8707E-01
397.92	6.4273E-01
398.28	6.2146E-01
398.64	7.3915E-01
399.00	5.9619E-01
399.35	6.2011E-01
399.71	6.6469E-01
400.07	6.4890E-01
400.42	6.3362E-01
400.78	6.4953E-01
401.14	6.5208E-01
401.49	6.0477E-01
401.85	6.0090E-01
402.21	6.1088E-01
402.57	6.0741E-01
402.92	6.4029E-01
403.28	6.0910E-01
403.63	6.0543E-01
403.99	6.2005E-01
404.35	6.0212E-01
404.70	5.9062E-01
405.06	6.0015E-01
405.42	6.1331E-01
405.77	5.7009E-01
406.13	5.6982E-01
406.49	5.6581E-01
406.84	5.7270E-01
407.20	5.5909E-01
407.55	6.0336E-01
407.91	6.1405E-01
408.27	5.7501E-01
408.62	5.7845E-01
408.98	5.8533E-01
409.34	5.9569E-01
409.69	5.6961E-01
410.05	6.0015E-01
410.40	5.7360E-01
410.76	5.3082E-01
411.11	5.3495E-01
411.47	5.7989E-01
411.83	5.5015E-01
412.18	5.6051E-01
412.54	5.4958E-01
412.89	5.4595E-01
413.25	5.6632E-01
413.60	5.9128E-01
413.96	5.5440E-01
414.31	5.5784E-01
414.67	5.8848E-01
415.03	5.7726E-01
415.38	5.9107E-01
415.74	5.8424E-01
416.09	5.8079E-01
416.45	5.8842E-01
416.80	5.7700E-01
417.16	5.7230E-01
417.51	5.6899E-01
417.87	5.4786E-01
418.22	5.4151E-01
418.58	5.5379E-01
418.93	5.2958E-01
419.29	5.6772E-01
419.64	5.5118E-01
420.00	5.2087E-01
420.35	5.1153E-01
420.71	5.3686E-01
421.06	5.3895E-01
421.42	5.5274E-01
421.77	5.4467E-01
422.12	5.4351E-01
422.48	5.1499E-01
422.83	5.5043E-01
423.19	5.1977E-01
423.54	5.2026E-01
423.90	5.2610E-01
424.25	4.9704E-01
424.61	5.4827E-01
424.96	5.1308E-01
425.31	5.1008E-01
425.67	4.8904E-01
426.02	5.1086E-01
426.38	5.1050E-01
426.73	4.8366E-01
427.09	5.0624E-01
427.44	4.8495E-01
427.79	4.9024E-01
428.15	5.0518E-01
428.50	5.0199E-01
428.85	5.1410E-01
429.21	4.7428E-01
429.56	4.6431E-01
429.92	4.7331E-01
430.27	4.8923E-01
430.62	4.8857E-01
430.98	4.9438E-01
431.33	4.8331E-01
431.68	4.6742E-01
432.04	4.6402E-01
432.39	4.7076E-01
432.74	4.8820E-01
433.10	4.5697E-01
433.45	4.8376E-01
433.80	4.8122E-01
434.16	4.9172E-01
434.51	4.6817E-01
434.86	4.8724E-01
435.22	4.6973E-01
435.57	5.0199E-01
435.92	4.9222E-01
436.28	4.8994E-01
436.63	4.5438E-01
436.98	4.8594E-01
437.34	4.8257E-01
437.69	4.5882E-01
438.04	4.4663E-01
438.39	4.7818E-01
438.75	4.8914E-01
439.10	4.4154E-01
439.45	4.7980E-01
439.81	4.7452E-01
440.16	4.4589E-01
440.51	4.6612E-01
440.86	4.6442E-01
441.22	4.5412E-01
441.57	4.5860E-01
441.92	4.4486E-01
442.27	4.6718E-01
442.63	4.5720E-01
442.98	4.8838E-01
443.33	4.7809E-01
443.68	4.4454E-01
444.03	4.1936E-01
444.39	4.2150E-01
444.74	4.5737E-01
445.09	4.6410E-01
445.44	4.6506E-01
445.79	4.1063E-01
446.15	4.4121E-01
446.50	4.5592E-01
446.85	4.2916E-01
447.20	4.1727E-01
447.55	4.5091E-01
447.91	4.3420E-01
448.26	4.4520E-01
448.61	4.4116E-01
448.96	4.3228E-01
449.31	4.3893E-01
449.66	4.4299E-01
450.02	4.3625E-01
450.37	4.3620E-01
450.72	4.3037E-01
451.07	4.6419E-01
451.42	4.6151E-01
451.77	4.3551E-01
452.12	4.3534E-01
452.47	4.5565E-01
452.83	4.1853E-01
453.18	4.4278E-01
453.53	4.3805E-01
453.88	4.1213E-01
454.23	4.0748E-01
454.58	4.0721E-01
454.93	4.3727E-01
455.28	4.3458E-01
455.63	4.2172E-01
455.98	4.1248E-01
456.34	4.3421E-01
456.69	4.2092E-01
457.04	4.2425E-01
457.39	3.9790E-01
457.74	4.0667E-01
458.09	3.9561E-01
458.44	3.9502E-01
458.79	3.8647E-01
459.14	3.9939E-01
459.49	4.1585E-01
459.84	3.9282E-01
460.19	4.1793E-01
460.54	4.1544E-01
460.89	3.8301E-01
461.24	4.1895E-01
461.59	4.0081E-01
461.94	4.0629E-01
462.29	3.7982E-01
462.64	4.0196E-01
462.99	4.0560E-01
463.34	4.2921E-01
463.69	4.0209E-01
464.04	3.7509E-01
464.39	3.8943E-01
464.74	3.9529E-01
465.09	4.0591E-01
465.44	3.8217E-01
465.79	3.9420E-01
466.14	3.9585E-01
466.49	3.8928E-01
466.84	3.8590E-01
467.19	3.9947E-01
467.54	4.0062E-01
467.89	3.8099E-01
468.24	3.6121E-01
468.59	3.7347E-01
468.94	3.6570E-01
469.29	3.6759E-01
469.64	3.7984E-01
469.99	3.6591E-01
470.34	3.5439E-01
470.68	3.7729E-01
471.03	3.6423E-01
471.38	3.6505E-01
471.73	3.4772E-01
472.08	3.4337E-01
472.43	3.3150E-01
472.78	3.4985E-01
473.13	3.4627E-01
473.48	3.4048E-01
473.83	3.3399E-01
474.17	3.3912E-01
474.52	3.3546E-01
474.87	3.2152E-01
475.22	3.2843E-01
475.57	3.1247E-01
475.92	3.0425E-01
476.27	3.1338E-01
476.61	3.0506E-01
476.96	2.9709E-01
477.31	2.8814E-01
477.66	2.9368E-01
478.01	2.9190E-01
478.36	2.9008E-01
478.70	2.8630E-01
479.05	2.9075E-01
479.40	2.7725E-01
479.75	2.7430E-01
480.10	2.7602E-01
480.45	2.6975E-01
480.79	2.6828E-01
481.14	2.7199E-01
481.49	2.6543E-01
481.84	2.6081E-01
482.19	2.5891E-01
482.53	2.5840E-01
482.88	2.5615E-01
483.23	2.5179E-01
483.58	2.4664E-01
483.92	2.5279E-01
484.27	2.4477E-01
484.62	2.4338E-01
484.97	2.3815E-01
485.31	2.3685E-01
485.66	2.4191E-01
486.01	2.4204E-01
486.36	2.3060E-01
486.70	2.3670E-01
487.05	2.3528E-01
487.40	2.3551E-01
487.75	2.2848E-01
488.09	2.2891E-01
488.44	2.3074E-01
488.79	2.2753E-01
489.13	2.2482E-01
489.48	2.2766E-01
489.83	2.2805E-01
490.17	2.2198E-01
490.52	2.2185E-01
490.87	2.2276E-01
491.22	2.2596E-01
491.56	2.2280E-01
491.91	2.2578E-01
492.26	2.2300E-01
492.60	2.2300E-01
492.95	2.2507E-01
493.30	2.2465E-01
493.64	2.2198E-01
493.99	2.2298E-01
494.34	2.2043E-01
494.68	2.1799E-01
495.03	2.2372E-01
495.37	2.2136E-01
495.72	2.2371E-01
496.07	2.1864E-01
496.41	2.2015E-01
496.76	2.1873E-01
497.11	2.2101E-01
497.45	2.1996E-01
497.80	2.2035E-01
498.14	2.2024E-01
498.49	2.2054E-01
498.84	2.2113E-01
499.18	2.2075E-01
499.53	2.2055E-01
499.87	2.1844E-01
500.22	2.2108E-01
500.56	2.2064E-01
500.91	2.2025E-01
501.26	2.2009E-01
501.60	2.1971E-01
501.95	2.1781E-01
502.29	2.2080E-01
502.64	2.1688E-01
502.98	2.2035E-01
503.33	2.1842E-01
503.67	2.1884E-01
504.02	2.1826E-01
504.36	2.1785E-01
504.71	2.1867E-01
505.06	2.1664E-01
505.40	2.1671E-01
505.75	2.1803E-01
506.09	2.1805E-01
506.44	2.1810E-01
506.78	2.1588E-01
507.13	2.1705E-01
507.47	2.1536E-01
507.82	2.1505E-01
508.16	2.1721E-01
508.51	2.1530E-01
508.85	2.1262E-01
509.19	2.1528E-01
509.54	2.1496E-01
509.88	2.1545E-01
510.23	2.1208E-01
510.57	2.1304E-01
510.92	2.1265E-01
511.26	2.1269E-01
511.61	2.1245E-01
511.95	2.1283E-01
512.30	2.1151E-01
512.64	2.1299E-01
512.98	2.0941E-01
513.33	2.1102E-01
513.67	2.1128E-01
514.02	2.1050E-01
514.36	2.0864E-01
514.70	2.1011E-01
515.05	2.0772E-01
515.39	2.0949E-01
515.74	2.0730E-01
516.08	2.0615E-01
516.42	2.0822E-01
516.77	2.0860E-01
517.11	2.0862E-01
517.46	2.0978E-01
517.80	2.0675E-01
518.14	2.0808E-01
518.49	2.0621E-01
518.83	2.0684E-01
519.17	2.0697E-01
519.52	2.0737E-01
519.86	2.0621E-01
520.20	2.0528E-01
520.55	2.0607E-01
520.89	2.0470E-01
521.23	2.0686E-01
521.58	2.0652E-01
521.92	2.0793E-01
522.26	2.0906E-01
522.61	2.0572E-01
522.95	2.0739E-01
523.29	2.0442E-01
523.64	2.0475E-01
523.98	2.0566E-01
524.32	2.0620E-01
524.66	2.0781E-01
525.01	2.0775E-01
525.35	2.0856E-01
525.69	2.0913E-01
526.04	2.0864E-01
526.38	2.0553E-01
526.72	2.0966E-01
527.06	2.0831E-01
527.41	2.1024E-01
527.75	2.1193E-01
528.09	2.1028E-01
528.43	2.1379E-01
528.78	2.1107E-01
529.12	2.1317E-01
529.46	2.1502E-01
529.80	2.1407E-01
530.15	2.1458E-01
530.49	2.1451E-01
530.83	2.1578E-01
531.17	2.1572E-01
531.51	2.1526E-01
531.86	2.1702E-01
532.20	2.1803E-01
532.54	2.1736E-01
532.88	2.1883E-01
533.22	2.2076E-01
533.57	2.2184E-01
533.91	2.2114E-01
534.25	2.2335E-01
534.59	2.2194E-01
534.93	2.2385E-01
535.27	2.2287E-01
535.62	2.2701E-01
535.96	2.2621E-01
536.30	2.2661E-01
536.64	2.2715E-01
536.98	2.2910E-01
537.32	2.2825E-01
537.66	2.2828E-01
538.01	2.3067E-01
538.35	2.3255E-01
538.69	2.2959E-01
539.03	2.3536E-01
539.37	2.3312E-01
539.71	2.3481E-01
540.05	2.3514E-01
540.39	2.3600E-01
540.73	2.3491E-01
541.07	2.3544E-01
541.42	2.3615E-01
541.76	2.3633E-01
542.10	2.3747E-01
542.44	2.3862E-01
542.78	2.3860E-01
543.12	2.3801E-01
543.46	2.4325E-01
543.80	2.4030E-01
544.14	2.4017E-01
544.48	2.3918E-01
544.82	2.4202E-01
545.16	2.4249E-01
545.50	2.4075E-01
545.84	2.4327E-01
546.18	2.4159E-01
546.52	2.4437E-01
546.86	2.4244E-01
547.20	2.4550E-01
547.54	2.4839E-01
547.88	2.4407E-01
548.22	2.4471E-01
548.56	2.4598E-01
548.90	2.4420E-01
549.24	2.4635E-01
549.58	2.4702E-01
549.92	2.4533E-01
550.26	2.4963E-01
550.60	2.4619E-01
550.94	2.4485E-01
551.28	2.4820E-01
551.62	2.4655E-01
551.96	2.4888E-01
552.30	2.5004E-01
552.64	2.4895E-01
552.98	2.4914E-01
553.32	2.4936E-01
553.66	2.4787E-01
554.00	2.4865E-01
554.34	2.4946E-01
554.68	2.5037E-01
555.02	2.5073E-01
555.36	2.5172E-01
555.69	2.5061E-01
556.03	2.5034E-01
556.37	2.5184E-01
556.71	2.4947E-01
557.05	2.4924E-01
557.39	2.4983E-01
557.73	2.5009E-01
558.07	2.5203E-01
558.41	2.5080E-01
558.75	2.5121E-01
559.08	2.5134E-01
559.42	2.4888E-01
559.76	2.5274E-01
560.10	2.5255E-01
560.44	2.5234E-01
560.78	2.4998E-01
561.12	2.5165E-01
561.45	2.5099E-01
561.79	2.5214E-01
562.13	2.5207E-01
562.47	2.5227E-01
562.81	2.5262E-01
563.15	2.5257E-01
563.48	2.5305E-01
563.82	2.4991E-01
564.16	2.5212E-01
564.50	2.5229E-01
564.84	2.5300E-01
565.17	2.5309E-01
565.51	2.5267E-01
565.85	2.5456E-01
566.19	2.5165E-01
566.52	2.5506E-01
566.86	2.5212E-01
567.20	2.5463E-01
567.54	2.5345E-01
567.88	2.5389E-01
568.21	2.5373E-01
568.55	2.5520E-01
568.89	2.5527E-01
569.23	2.5510E-01
569.56	2.5471E-01
569.90	2.5560E-01
570.24	2.5748E-01
570.57	2.5708E-01
570.91	2.5774E-01
571.25	2.5419E-01
571.59	2.5734E-01
571.92	2.5712E-01
572.26	2.5795E-01
572.60	2.5996E-01
572.93	2.5884E-01
573.27	2.6113E-01
573.61	2.6166E-01
573.95	2.5761E-01
574.28	2.6209E-01
574.62	2.6220E-01
574.96	2.6247E-01
575.29	2.6188E-01
575.63	2.6609E-01
575.97	2.6536E-01
576.30	2.7135E-01
576.64	2.6786E-01
576.98	2.6755E-01
577.31	2.6887E-01
577.65	2.7154E-01
577.98	2.6974E-01
578.32	2.7207E-01
578.66	2.7334E-01
578.99	2.7389E-01
579.33	2.7487E-01
579.67	2.7316E-01
580.00	2.7662E-01
580.34	2.7583E-01
580.67	2.7744E-01
581.01	2.7984E-01
581.35	2.8090E-01
581.68	2.8199E-01
582.02	2.8090E-01
582.35	2.8296E-01
582.69	2.8293E-01
583.02	2.8738E-01
583.36	2.8459E-01
583.70	2.8407E-01
584.03	2.8598E-01
584.37	2.8424E-01
584.70	2.9041E-01
585.04	2.9006E-01
585.37	2.8888E-01
585.71	2.9347E-01
586.04	2.9235E-01
586.38	2.9036E-01
586.72	2.9428E-01
587.05	2.9567E-01
587.39	2.9671E-01
587.72	2.9466E-01
588.06	2.9716E-01
588.39	2.9693E-01
588.73	2.9995E-01
589.06	2.9800E-01
589.40	3.0238E-01
589.73	3.0400E-01
590.07	3.0470E-01
590.40	3.0481E-01
590.73	3.0834E-01
591.07	3.0550E-01
591.40	3.1207E-01
591.74	3.0511E-01
592.07	3.0920E-01
592.41	3.1051E-01
592.74	3.1168E-01
593.08	3.0962E-01
593.41	3.1174E-01
593.75	3.0937E-01
594.08	3.1423E-01
594.41	3.1276E-01
594.75	3.1398E-01
595.08	3.1385E-01
595.42	3.1011E-01
595.75	3.1519E-01
596.09	3.1538E-01
596.42	3.1357E-01
596.75	3.1751E-01
597.09	3.1886E-01
597.42	3.1554E-01
597.75	3.1944E-01
598.09	3.2030E-01
598.42	3.1781E-01
598.76	3.1990E-01
599.09	3.2408E-01
599.42	3.2370E-01
599.76	3.2250E-01
600.09	3.2161E-01
600.42	3.2620E-01
600.76	3.1979E-01
601.09	3.2395E-01
601.42	3.2713E-01
601.76	3.2345E-01
602.09	3.2242E-01
602.42	3.2462E-01
602.76	3.2355E-01
603.09	3.2267E-01
603.42	3.2852E-01
603.76	3.2458E-01
604.09	3.2476E-01
604.42	3.2718E-01
604.76	3.2486E-01
605.09	3.3002E-01
605.42	3.2653E-01
605.75	3.2817E-01
606.09	3.2660E-01
606.42	3.2776E-01
606.75	3.2914E-01
607.09	3.2969E-01
607.42	3.2995E-01
607.75	3.3037E-01
608.08	3.2961E-01
608.42	3.3230E-01
608.75	3.2851E-01
609.08	3.3270E-01
609.41	3.3203E-01
609.75	3.3034E-01
610.08	3.3195E-01
610.41	3.3416E-01
610.74	3.3338E-01
611.07	3.3319E-01
611.41	3.3264E-01
611.74	3.3399E-01
612.07	3.3573E-01
612.40	3.3092E-01
612.73	3.3430E-01
613.07	3.3604E-01
613.40	3.3259E-01
613.73	3.3167E-01
614.06	3.3466E-01
614.39	3.3594E-01
614.72	3.3681E-01
615.06	3.3651E-01
615.39	3.4039E-01
615.72	3.3489E-01
616.05	3.3838E-01
616.38	3.3931E-01
616.71	3.4004E-01
617.05	3.3779E-01
617.38	3.3987E-01
617.71	3.3783E-01
618.04	3.3972E-01
618.37	3.3766E-01
618.70	3.3880E-01
619.03	3.3991E-01
619.36	3.3448E-01
619.69	3.4133E-01
620.03	3.3784E-01
620.36	3.3894E-01
620.69	3.3703E-01
621.02	3.4016E-01
621.35	3.3896E-01
621.68	3.3580E-01
622.01	3.3487E-01
622.34	3.3687E-01
622.67	3.3611E-01
623.00	3.3743E-01
623.33	3.3805E-01
623.66	3.3554E-01
623.99	3.3648E-01
624.32	3.3527E-01
624.65	3.3636E-01
624.99	3.3644E-01
625.32	3.3741E-01
625.65	3.3667E-01
625.98	3.3167E-01
626.31	3.3597E-01
626.64	3.3688E-01
626.97	3.3733E-01
627.30	3.3459E-01
627.63	3.3635E-01
627.96	3.3358E-01
628.29	3.3362E-01
628.62	3.3665E-01
628.95	3.3681E-01
629.28	3.3140E-01
629.61	3.4150E-01
629.94	3.3701E-01
630.26	3.3750E-01
630.59	3.3931E-01
630.92	3.3741E-01
631.25	3.3947E-01
631.58	3.4298E-01
631.91	3.3820E-01
632.24	3.4546E-01
632.57	3.4181E-01
632.90	3.4247E-01
633.23	3.4293E-01
633.56	3.4489E-01
633.89	3.4515E-01
634.22	3.4643E-01
634.55	3.4737E-01
634.88	3.5138E-01
635.20	3.5045E-01
635.53	3.5290E-01
635.86	3.5334E-01
636.19	3.5740E-01
636.52	3.5861E-01
636.85	3.5574E-01
637.18	3.6006E-01
637.51	3.5689E-01
637.83	3.6059E-01
638.16	3.5757E-01
638.49	3.6785E-01
638.82	3.6646E-01
639.15	3.6892E-01
639.48	3.7163E-01
639.81	3.7373E-01
640.13	3.7032E-01
640.46	3.7598E-01
640.79	3.7573E-01
641.12	3.7929E-01
641.45	3.7864E-01
641.77	3.7627E-01
642.10	3.8493E-01
642.43	3.8616E-01
642.76	3.8738E-01
643.09	3.8541E-01
643.41	3.8833E-01
643.74	3.8911E-01
644.07	3.8893E-01
644.40	3.9154E-01
644.73	3.9636E-01
645.05	3.9774E-01
645.38	4.0063E-01
645.71	4.0149E-01
646.04	4.0154E-01
646.36	4.0078E-01
646.69	4.0715E-01
647.02	4.0702E-01
647.35	4.0488E-01
647.67	4.1009E-01
648.00	4.0892E-01
648.33	4.1391E-01
648.66	4.1158E-01
648.98	4.1699E-01
649.31	4.1611E-01
649.64	4.1786E-01
649.96	4.2213E-01
650.29	4.2425E-01
650.62	4.2404E-01
650.94	4.2397E-01
651.27	4.2326E-01
651.60	4.2445E-01
651.92	4.3154E-01
652.25	4.3274E-01
652.58	4.3175E-01
652.90	4.3410E-01
653.23	4.3422E-01
653.56	4.3587E-01
653.88	4.3770E-01
654.21	4.3792E-01
654.54	4.3960E-01
654.86	4.4502E-01
655.19	4.4002E-01
655.52	4.4682E-01
655.84	4.4591E-01
656.17	4.4817E-01
656.49	4.5348E-01
656.82	4.4797E-01
657.15	4.5321E-01
657.47	4.5294E-01
657.80	4.5310E-01
658.13	4.5444E-01
658.45	4.5749E-01
658.78	4.5613E-01
659.10	4.6186E-01
659.43	4.6145E-01
659.75	4.6064E-01
660.08	4.5872E-01
660.41	4.6455E-01
660.73	4.6491E-01
661.06	4.6897E-01
661.38	4.6691E-01
661.71	4.6874E-01
662.03	4.6935E-01
662.36	4.7524E-01
662.68	4.7399E-01
663.01	4.6802E-01
663.33	4.7249E-01
663.66	4.7586E-01
663.98	4.7299E-01
664.31	4.7331E-01
664.63	4.8287E-01
664.96	4.7977E-01
665.28	4.8327E-01
665.61	4.8199E-01
665.93	4.8321E-01
666.26	4.8555E-01
666.58	4.8627E-01
666.91	4.8269E-01
667.23	4.8839E-01
667.56	4.8261E-01
667.88	4.9008E-01
668.21	4.8984E-01
668.53	4.8770E-01
668.86	4.9736E-01
669.18	4.8986E-01
669.50	5.0091E-01
669.83	4.9937E-01
670.15	5.0047E-01
670.48	4.9957E-01
670.80	4.9795E-01
671.13	4.9550E-01
671.45	5.0109E-01
671.77	5.0415E-01
672.10	5.0099E-01
672.42	5.0834E-01
672.75	5.0505E-01
673.07	5.0958E-01
673.39	5.0433E-01
673.72	5.0790E-01
674.04	5.1151E-01
674.37	5.1497E-01
674.69	5.1209E-01
675.01	5.1607E-01
675.34	5.1763E-01
675.66	5.1885E-01
675.98	5.1343E-01
676.31	5.2148E-01
676.63	5.2281E-01
676.95	5.2027E-01
677.28	5.2452E-01
677.60	5.2474E-01
677.92	5.2286E-01
678.25	5.2868E-01
678.57	5.2935E-01
678.89	5.2765E-01
679.22	5.3626E-01
679.54	5.3330E-01
679.86	5.3357E-01
680.18	5.3509E-01
680.51	5.3695E-01
680.83	5.4248E-01
681.15	5.3661E-01
681.48	5.4038E-01
681.80	5.4419E-01
682.12	5.4087E-01
682.44	5.4979E-01
682.77	5.4971E-01
683.09	5.5287E-01
683.41	5.5043E-01
683.73	5.5608E-01
684.06	5.5567E-01
684.38	5.5697E-01
684.70	5.5521E-01
685.02	5.6081E-01
685.34	5.6689E-01
685.67	5.6167E-01
685.99	5.6883E-01
686.31	5.6525E-01
686.63	5.7411E-01
686.96	5.7127E-01
687.28	5.7806E-01
687.60	5.7004E-01
687.92	5.7688E-01
688.24	5.8212E-01
688.56	5.8314E-01
688.89	5.8545E-01
689.21	5.8291E-01
689.53	5.8540E-01
689.85	5.9425E-01
690.17	5.9003E-01
690.49	5.9860E-01
690.82	5.9890E-01
691.14	5.9891E-01
691.46	6.0201E-01
691.78	6.0591E-01
692.10	5.9911E-01
692.42	6.0621E-01
692.74	6.1154E-01
693.06	6.1233E-01
693.39	6.2235E-01
693.71	6.2356E-01
694.03	6.2404E-01
694.35	6.2553E-01
694.67	6.2770E-01
694.99	6.3386E-01
695.31	6.3562E-01
695.63	6.3498E-01
695.95	6.4017E-01
696.27	6.3820E-01
696.59	6.4429E-01
696.91	6.5298E-01
697.23	6.5214E-01
697.56	6.5088E-01
697.88	6.5737E-01
698.20	6.5701E-01
698.52	6.6352E-01
698.84	6.6825E-01
699.16	6.7327E-01
699.48	6.6652E-01
699.80	6.7529E-01
700.12	6.8138E-01
700.44	6.8259E-01
700.76	6.8355E-01
701.08	6.8812E-01
701.40	6.9141E-01
701.72	6.9833E-01
702.04	6.9797E-01
702.36	7.0389E-01
702.68	7.0703E-01
703.00	7.1190E-01
703.32	7.1567E-01
703.64	7.1617E-01
703.96	7.0948E-01
704.28	7.2044E-01
704.60	7.2882E-01
704.91	7.3084E-01
705.23	7.3240E-01
705.55	7.3993E-01
705.87	7.3472E-01
706.19	7.3720E-01
706.51	7.4277E-01
706.83	7.4564E-01
707.15	7.6527E-01
707.47	7.4956E-01
707.79	7.6370E-01
708.11	7.6556E-01
708.43	7.6897E-01
708.74	7.7499E-01
709.06	7.8624E-01
709.38	7.8154E-01
709.70	7.7677E-01
710.02	7.8792E-01
710.34	7.8450E-01
710.66	8.0428E-01
710.98	7.9999E-01
711.29	7.9912E-01
711.61	8.1384E-01
711.93	8.1862E-01
712.25	8.1170E-01
712.57	8.2308E-01
712.89	8.2554E-01
713.20	8.2755E-01
713.52	8.3528E-01
713.84	8.4259E-01
714.16	8.3610E-01
714.48	8.3784E-01
714.80	8.5195E-01
715.11	8.4996E-01
715.43	8.6219E-01
715.75	8.6699E-01
716.07	8.7660E-01
716.39	8.6013E-01
716.70	8.7062E-01
717.02	8.6533E-01
717.34	8.9190E-01
717.66	8.8263E-01
717.97	8.9387E-01
718.29	8.9889E-01
718.61	9.1206E-01
718.93	9.1095E-01
719.24	9.1347E-01
719.56	9.3273E-01
719.88	9.2433E-01
720.20	9.3622E-01
720.51	9.4804E-01
720.83	9.4459E-01
721.15	9.6344E-01
721.46	9.6024E-01
721.78	9.6642E-01
722.10	9.8053E-01
722.42	9.8905E-01
722.73	9.9535E-01
723.05	9.8375E-01
723.37	9.9734E-01
723.68	1.0077E00
724.00	1.0070E00
724.32	1.0258E00
724.63	1.0237E00
724.95	1.0174E00
725.27	1.0273E00
725.58	1.0342E00
725.90	1.0342E00
726.22	1.0502E00
726.53	1.0288E00
726.85	1.0437E00
727.16	1.0650E00
727.48	1.0465E00
727.80	1.0575E00
728.11	1.0621E00
728.43	1.0600E00
728.74	1.0555E00
729.06	1.0748E00
729.38	1.0709E00
729.69	1.0765E00
730.01	1.0839E00
730.32	1.0907E00
730.64	1.0905E00
730.96	1.0797E00
731.27	1.1090E00
731.59	1.0836E00
731.90	1.0972E00
732.22	1.1062E00
732.53	1.1037E00
732.85	1.1168E00
733.16	1.1126E00
733.48	1.1207E00
733.80	1.1139E00
734.11	1.1344E00
734.43	1.1330E00
734.74	1.1322E00
735.06	1.1465E00
735.37	1.1555E00
735.69	1.1405E00
736.00	1.1539E00
736.32	1.1564E00
736.63	1.1633E00
736.95	1.1614E00
737.26	1.1828E00
737.58	1.1820E00
737.89	1.1908E00
738.21	1.1788E00
738.52	1.1859E00
738.83	1.1896E00
739.15	1.1896E00
739.46	1.2062E00
739.78	1.2025E00
740.09	1.2175E00
740.41	1.2098E00
740.72	1.2064E00
741.04	1.2071E00
741.35	1.2093E00
741.66	1.2305E00
741.98	1.2227E00
742.29	1.2298E00
742.61	1.2233E00
742.92	1.2275E00
743.23	1.2271E00
743.55	1.2360E00
743.86	1.2252E00
744.18	1.2336E00
744.49	1.2355E00
744.80	1.2341E00
745.12	1.2341E00
745.43	1.2384E00
745.74	1.2375E00
746.06	1.2300E00
746.37	1.2271E00
746.68	1.2370E00
747.00	1.2346E00
747.31	1.2252E00
747.62	1.2180E00
747.94	1.2380E00
748.25	1.2378E00
748.56	1.2389E00
748.88	1.2221E00
749.19	1.2312E00
749.50	1.2347E00
749.82	1.2256E00
750.13	1.2334E00
750.44	1.2349E00
750.75	1.2204E00
751.07	1.2370E00
751.38	1.2450E00
751.69	1.2206E00
752.01	1.2390E00
752.32	1.2372E00
752.63	1.2382E00
752.94	1.2457E00
753.26	1.2522E00
753.57	1.2387E00
753.88	1.2460E00
754.19	1.2478E00
754.51	1.2513E00
754.82	1.2467E00
755.13	1.2618E00
755.44	1.2598E00
755.75	1.2638E00
756.07	1.2642E00
756.38	1.2780E00
756.69	1.2739E00
757.00	1.2812E00
757.31	1.2976E00
757.63	1.3047E00
757.94	1.3073E00
758.25	1.3213E00
758.56	1.2892E00
758.87	1.3339E00
759.18	1.3369E00
759.50	1.3349E00
759.81	1.3290E00
760.12	1.3377E00
760.43	1.3491E00
760.74	1.3454E00
761.05	1.3715E00
761.36	1.3739E00
761.67	1.3851E00
761.99	1.3950E00
762.30	1.3737E00
762.61	1.4070E00
762.92	1.4044E00
763.23	1.4061E00
763.54	1.4220E00
763.85	1.4443E00
764.16	1.4465E00
764.47	1.4653E00
764.78	1.4755E00
765.10	1.4766E00
765.41	1.4773E00
765.72	1.4875E00
766.03	1.5209E00
766.34	1.5315E00
766.65	1.5413E00
766.96	1.5734E00
767.27	1.5602E00
767.58	1.5620E00
767.89	1.5789E00
768.20	1.6029E00
768.51	1.6047E00
768.82	1.6085E00
769.13	1.6389E00
769.44	1.6601E00
769.75	1.6575E00
770.06	1.6629E00
770.37	1.6597E00
770.68	1.7008E00
770.99	1.7127E00
771.30	1.7220E00
771.61	1.7743E00
771.92	1.7363E00
772.23	1.7586E00
772.54	1.7969E00
772.85	1.7792E00
773.16	1.7979E00
773.47	1.8508E00
773.78	1.8364E00
774.09	1.8667E00
774.39	1.8695E00
774.70	1.8742E00
775.01	1.9129E00
775.32	1.9212E00
775.63	1.9442E00
775.94	1.9639E00
776.25	1.9519E00
776.56	1.9705E00
776.87	2.0232E00
777.18	2.0168E00
777.48	2.0376E00
777.79	2.0564E00
778.10	2.0744E00
778.41	2.0901E00
778.72	2.1127E00
779.03	2.1241E00
779.34	2.1685E00
779.65	2.1700E00
779.95	2.2131E00
780.26	2.1924E00
780.57	2.2311E00
780.88	2.2248E00
781.19	2.2662E00
781.50	2.2695E00
781.80	2.2870E00
782.11	2.2944E00
782.42	2.3492E00
782.73	2.3041E00
783.04	2.3941E00
783.34	2.3923E00
783.65	2.4120E00
783.96	2.4201E00
784.27	2.4341E00
784.57	2.4541E00
784.88	2.4822E00
785.19	2.4926E00
785.50	2.5215E00
785.81	2.5543E00
786.11	2.5182E00
786.42	2.5474E00
786.73	2.5751E00
787.04	2.6060E00
787.34	2.6543E00
787.65	2.6676E00
787.96	2.7275E00
788.26	2.7069E00
788.57	2.7637E00
788.88	2.7309E00
789.19	2.8157E00
789.49	2.7874E00
789.80	2.8396E00
790.11	2.8466E00
790.41	2.8753E00
790.72	2.9028E00
791.03	2.9152E00
791.33	2.9458E00
791.64	3.0131E00
791.95	2.9589E00
792.25	3.0530E00
792.56	3.0250E00
792.87	3.0711E00
793.17	3.0901E00
793.48	3.1034E00
793.79	3.1342E00
794.09	3.1947E00
794.40	3.1524E00
794.70	3.1605E00
795.01	3.1744E00
795.32	3.2162E00
795.62	3.2803E00
795.93	3.2850E00
796.23	3.2951E00
796.54	3.3381E00
796.85	3.3236E00
797.15	3.3638E00
797.46	3.3967E00
797.76	3.4841E00
798.07	3.4688E00
798.37	3.4743E00
798.68	3.5323E00
798.99	3.5291E00
799.29	3.5636E00
799.60	3.6246E00
799.90	3.6251E00
800.21	3.6768E00
800.51	3.7069E00
800.82	3.7003E00
801.12	3.7677E00
801.43	3.7601E00
801.73	3.8404E00
802.04	3.8292E00
802.34	3.8240E00
802.65	3.8676E00
802.95	4.0009E00
803.26	3.9714E00
803.56	3.9032E00
803.87	3.9625E00
804.17	3.9914E00
804.48	3.9862E00
804.78	4.0608E00
805.09	4.1312E00
805.39	4.1069E00
805.70	4.1279E00
806.00	4.1874E00
806.30	4.1847E00
806.61	4.2500E00
806.91	4.2695E00
807.22	4.3168E00
807.52	4.3390E00
807.83	4.3593E00
808.13	4.4109E00
808.43	4.3228E00
808.74	4.4456E00
809.04	4.4837E00
809.35	4.4595E00
809.65	4.5658E00
809.95	4.5846E00
810.26	4.6407E00
810.56	4.6589E00
810.86	4.7218E00
811.17	4.7591E00
811.47	4.7511E00
811.77	4.7508E00
812.08	4.7439E00
812.38	4.8913E00
812.69	4.7914E00
812.99	4.9524E00
813.29	4.9773E00
813.59	5.0197E00
813.90	5.0349E00
814.20	5.0373E00
814.50	5.1097E00
814.81	5.0506E00
815.11	5.1696E00
815.41	5.2998E00
815.72	5.2354E00
816.02	5.2676E00
816.32	5.2811E00
816.62	5.2463E00
816.93	5.3407E00
817.23	5.5037E00
817.53	5.4063E00
817.84	5.5180E00
818.14	5.5108E00
818.44	5.4955E00
818.74	5.6551E00
819.04	5.7561E00
819.35	5.6927E00
819.65	5.7345E00
819.95	5.8869E00
820.25	5.8928E00
820.56	5.8811E00
820.86	5.9562E00
821.16	6.0021E00
821.46	6.0025E00
821.76	6.0326E00
822.07	5.9944E00
822.37	6.0938E00
822.67	6.1986E00
822.97	6.2347E00
823.27	6.2246E00
823.57	6.3235E00
823.88	6.2909E00
824.18	6.3979E00
824.48	6.3838E00
824.78	6.4658E00
825.08	6.4382E00
825.38	6.5500E00
825.69	6.5530E00
825.99	6.6484E00
826.29	6.6770E00
826.59	6.6544E00
826.89	6.7754E00
827.19	6.6020E00
827.49	7.0419E00
827.79	6.9370E00
828.09	6.8750E00
828.39	7.0397E00
828.70	7.0163E00
829.00	7.0045E00
829.30	7.1386E00
829.60	7.2461E00
829.90	7.1432E00
830.20	7.0933E00
830.50	7.4124E00
830.80	7.4478E00
831.10	7.3063E00
831.40	7.5620E00
831.70	7.4837E00
832.00	7.5246E00
832.30	7.7425E00
832.60	7.6319E00
832.90	7.7746E00
833.20	7.9201E00
833.50	7.7417E00
833.80	7.8809E00
834.10	7.9639E00
834.40	7.8237E00
834.70	7.9956E00
835.00	8.0499E00
835.30	8.0187E00
835.60	8.1397E00
835.90	8.2129E00
836.20	8.4138E00
836.50	8.4002E00
836.80	8.4084E00
837.10	8.3637E00
837.40	8.5160E00
837.70	8.5733E00
838.00	8.5668E00
838.30	8.5392E00
838.60	8.8757E00
838.90	8.8610E00
839.19	8.7806E00
839.49	9.1111E00
839.79	8.9992E00
840.09	9.0923E00
840.39	8.9458E00
840.69	9.1186E00
840.99	9.6243E00
841.29	9.4788E00
841.59	9.4981E00
841.88	9.5457E00
842.18	9.6013E00
842.48	9.8480E00
842.78	9.7915E00
843.08	9.9059E00
843.38	9.7603E00
843.68	1.0073E01
843.97	1.0103E01
844.27	1.0136E01
844.57	1.0327E01
844.87	1.0385E01
845.17	1.0278E01
845.47	1.0156E01
845.76	1.0449E01
846.06	1.0626E01
846.36	1.0527E01
846.66	1.0755E01
846.96	1.0691E01
847.25	1.0721E01
847.55	1.0803E01
847.85	1.1084E01
848.15	1.0896E01
848.44	1.1243E01
848.74	1.0973E01
849.04	1.1263E01
849.34	1.1337E01
849.63	1.1579E01
849.93	1.1521E01
850.23	1.1993E01
850.53	1.1502E01
850.82	1.1793E01
851.12	1.1778E01
851.42	1.1647E01
851.71	1.1951E01
852.01	1.2223E01
852.31	1.2435E01
852.61	1.2507E01
852.90	1.2509E01
853.20	1.2638E01
853.50	1.2829E01
853.79	1.3160E01
854.09	1.2676E01
854.39	1.2884E01
854.68	1.3588E01
854.98	1.3402E01
855.28	1.3362E01
855.57	1.3517E01
855.87	1.3558E01
856.17	1.3626E01
856.46	1.3602E01
856.76	1.3733E01
857.05	1.3984E01
857.35	1.4088E01
857.65	1.3928E01
857.94	1.4270E01
858.24	1.4238E01
858.53	1.4593E01
858.83	1.4525E01
859.13	1.4787E01
859.42	1.4624E01
859.72	1.5133E01
860.01	1.5672E01
860.31	1.5292E01
860.60	1.5642E01
860.90	1.5629E01
861.20	1.5855E01
861.49	1.5578E01
861.79	1.6294E01
862.08	1.6342E01
862.38	1.6622E01
862.67	1.6573E01
862.97	1.6703E01
863.26	1.6532E01
863.56	1.7449E01
863.85	1.7325E01
864.15	1.7102E01
864.44	1.7702E01
864.74	1.7526E01
865.03	1.7661E01
865.33	1.7804E01
865.62	1.8249E01
865.92	1.8030E01
866.21	1.9228E01
866.51	1.9076E01
866.80	1.9002E01
867.10	1.9402E01
867.39	1.9097E01
867.69	1.9871E01
867.98	1.9051E01
868.27	1.9696E01
868.57	1.9737E01
868.86	2.0897E01
869.16	2.0582E01
869.45	2.0713E01
869.75	2.0178E01
870.04	2.1038E01
870.33	2.1251E01
870.63	2.1033E01
870.92	2.2041E01
871.22	2.2320E01
871.51	2.1956E01
871.80	2.2236E01
872.10	2.2236E01
>>>>>End Processed Spectral Data<<<<<
