SpectraSuite Data File
++++++++++++++++++++++++++++++++++++
Date: Tue May 12 13:06:19 PDT 2015
User: schluterlab
Dark Spectrum Present: Yes
Reference Spectrum Present: No
Number of Sampled Component Spectra: 1
Spectrometers: USB2E3373
Integration Time (usec): 2300000 (USB2E3373)
Spectra Averaged: 3 (USB2E3373)
Boxcar Smoothing: 0 (USB2E3373)
Correct for Electrical Dark: No (USB2E3373)
Strobe/Lamp Enabled: No (USB2E3373)
Correct for Detector Non-linearity: No (USB2E3373)
Correct for Stray Light: No (USB2E3373)
Number of Pixels in Processed Spectrum: 2048
>>>>>Begin Processed Spectral Data<<<<<
178.53	0.0000E00
178.91	0.0000E00
179.29	0.0000E00
179.67	0.0000E00
180.04	0.0000E00
180.42	0.0000E00
180.80	0.0000E00
181.18	0.0000E00
181.56	0.0000E00
181.94	0.0000E00
182.31	0.0000E00
182.69	0.0000E00
183.07	0.0000E00
183.45	0.0000E00
183.83	0.0000E00
184.20	0.0000E00
184.58	0.0000E00
184.96	0.0000E00
185.34	0.0000E00
185.72	0.0000E00
186.09	0.0000E00
186.47	0.0000E00
186.85	0.0000E00
187.23	0.0000E00
187.61	0.0000E00
187.98	0.0000E00
188.36	0.0000E00
188.74	0.0000E00
189.12	0.0000E00
189.49	0.0000E00
189.87	0.0000E00
190.25	0.0000E00
190.63	0.0000E00
191.00	0.0000E00
191.38	0.0000E00
191.76	0.0000E00
192.14	0.0000E00
192.51	0.0000E00
192.89	0.0000E00
193.27	0.0000E00
193.65	0.0000E00
194.02	0.0000E00
194.40	0.0000E00
194.78	0.0000E00
195.15	0.0000E00
195.53	-0.0000E00
195.91	0.0000E00
196.29	0.0000E00
196.66	0.0000E00
197.04	0.0000E00
197.42	0.0000E00
197.79	0.0000E00
198.17	0.0000E00
198.55	0.0000E00
198.92	0.0000E00
199.30	0.0000E00
199.68	0.0000E00
200.05	0.0000E00
200.43	0.0000E00
200.81	0.0000E00
201.18	0.0000E00
201.56	0.0000E00
201.94	0.0000E00
202.31	-0.0000E00
202.69	0.0000E00
203.07	0.0000E00
203.44	0.0000E00
203.82	0.0000E00
204.19	0.0000E00
204.57	0.0000E00
204.95	0.0000E00
205.32	0.0000E00
205.70	0.0000E00
206.08	0.0000E00
206.45	0.0000E00
206.83	0.0000E00
207.20	0.0000E00
207.58	0.0000E00
207.96	0.0000E00
208.33	0.0000E00
208.71	0.0000E00
209.08	0.0000E00
209.46	0.0000E00
209.84	0.0000E00
210.21	0.0000E00
210.59	0.0000E00
210.96	0.0000E00
211.34	0.0000E00
211.71	0.0000E00
212.09	0.0000E00
212.46	0.0000E00
212.84	0.0000E00
213.22	0.0000E00
213.59	0.0000E00
213.97	0.0000E00
214.34	0.0000E00
214.72	0.0000E00
215.09	0.0000E00
215.47	0.0000E00
215.84	0.0000E00
216.22	0.0000E00
216.59	0.0000E00
216.97	0.0000E00
217.34	0.0000E00
217.72	0.0000E00
218.09	0.0000E00
218.47	0.0000E00
218.84	0.0000E00
219.22	0.0000E00
219.59	0.0000E00
219.97	0.0000E00
220.34	0.0000E00
220.72	0.0000E00
221.09	0.0000E00
221.47	0.0000E00
221.84	0.0000E00
222.22	0.0000E00
222.59	0.0000E00
222.97	0.0000E00
223.34	0.0000E00
223.72	0.0000E00
224.09	0.0000E00
224.46	0.0000E00
224.84	0.0000E00
225.21	0.0000E00
225.59	0.0000E00
225.96	0.0000E00
226.34	0.0000E00
226.71	0.0000E00
227.08	0.0000E00
227.46	0.0000E00
227.83	0.0000E00
228.21	0.0000E00
228.58	0.0000E00
228.95	0.0000E00
229.33	0.0000E00
229.70	0.0000E00
230.08	0.0000E00
230.45	0.0000E00
230.82	0.0000E00
231.20	0.0000E00
231.57	0.0000E00
231.95	0.0000E00
232.32	0.0000E00
232.69	0.0000E00
233.07	0.0000E00
233.44	0.0000E00
233.81	0.0000E00
234.19	0.0000E00
234.56	0.0000E00
234.93	0.0000E00
235.31	0.0000E00
235.68	0.0000E00
236.05	0.0000E00
236.43	0.0000E00
236.80	0.0000E00
237.17	0.0000E00
237.55	0.0000E00
237.92	0.0000E00
238.29	0.0000E00
238.67	0.0000E00
239.04	0.0000E00
239.41	0.0000E00
239.79	0.0000E00
240.16	0.0000E00
240.53	0.0000E00
240.91	0.0000E00
241.28	0.0000E00
241.65	0.0000E00
242.02	0.0000E00
242.40	0.0000E00
242.77	0.0000E00
243.14	0.0000E00
243.51	0.0000E00
243.89	0.0000E00
244.26	0.0000E00
244.63	0.0000E00
245.00	0.0000E00
245.38	0.0000E00
245.75	0.0000E00
246.12	0.0000E00
246.49	0.0000E00
246.87	0.0000E00
247.24	0.0000E00
247.61	0.0000E00
247.98	0.0000E00
248.36	0.0000E00
248.73	0.0000E00
249.10	0.0000E00
249.47	0.0000E00
249.84	0.0000E00
250.22	0.0000E00
250.59	0.0000E00
250.96	0.0000E00
251.33	0.0000E00
251.70	0.0000E00
252.08	0.0000E00
252.45	0.0000E00
252.82	0.0000E00
253.19	0.0000E00
253.56	0.0000E00
253.94	0.0000E00
254.31	0.0000E00
254.68	0.0000E00
255.05	0.0000E00
255.42	0.0000E00
255.79	0.0000E00
256.16	0.0000E00
256.54	0.0000E00
256.91	0.0000E00
257.28	0.0000E00
257.65	0.0000E00
258.02	0.0000E00
258.39	0.0000E00
258.76	0.0000E00
259.14	0.0000E00
259.51	0.0000E00
259.88	0.0000E00
260.25	0.0000E00
260.62	0.0000E00
260.99	0.0000E00
261.36	0.0000E00
261.73	0.0000E00
262.10	0.0000E00
262.47	0.0000E00
262.85	0.0000E00
263.22	0.0000E00
263.59	0.0000E00
263.96	0.0000E00
264.33	0.0000E00
264.70	0.0000E00
265.07	0.0000E00
265.44	0.0000E00
265.81	0.0000E00
266.18	0.0000E00
266.55	0.0000E00
266.92	0.0000E00
267.29	0.0000E00
267.66	0.0000E00
268.03	0.0000E00
268.40	0.0000E00
268.77	0.0000E00
269.14	0.0000E00
269.51	0.0000E00
269.88	0.0000E00
270.25	0.0000E00
270.62	0.0000E00
270.99	0.0000E00
271.36	0.0000E00
271.73	0.0000E00
272.10	0.0000E00
272.47	0.0000E00
272.84	0.0000E00
273.21	0.0000E00
273.58	0.0000E00
273.95	0.0000E00
274.32	0.0000E00
274.69	0.0000E00
275.06	0.0000E00
275.43	0.0000E00
275.80	0.0000E00
276.17	0.0000E00
276.54	0.0000E00
276.91	0.0000E00
277.28	0.0000E00
277.65	0.0000E00
278.02	0.0000E00
278.39	0.0000E00
278.76	0.0000E00
279.13	0.0000E00
279.50	0.0000E00
279.87	0.0000E00
280.23	0.0000E00
280.60	0.0000E00
280.97	0.0000E00
281.34	0.0000E00
281.71	0.0000E00
282.08	0.0000E00
282.45	0.0000E00
282.82	0.0000E00
283.19	0.0000E00
283.56	0.0000E00
283.92	0.0000E00
284.29	0.0000E00
284.66	0.0000E00
285.03	0.0000E00
285.40	0.0000E00
285.77	0.0000E00
286.14	0.0000E00
286.51	0.0000E00
286.87	0.0000E00
287.24	0.0000E00
287.61	0.0000E00
287.98	0.0000E00
288.35	0.0000E00
288.72	0.0000E00
289.08	0.0000E00
289.45	0.0000E00
289.82	0.0000E00
290.19	0.0000E00
290.56	0.0000E00
290.93	0.0000E00
291.29	0.0000E00
291.66	0.0000E00
292.03	0.0000E00
292.40	0.0000E00
292.77	0.0000E00
293.13	0.0000E00
293.50	0.0000E00
293.87	0.0000E00
294.24	0.0000E00
294.60	0.0000E00
294.97	0.0000E00
295.34	0.0000E00
295.71	0.0000E00
296.08	0.0000E00
296.44	0.0000E00
296.81	0.0000E00
297.18	0.0000E00
297.55	0.0000E00
297.91	0.0000E00
298.28	0.0000E00
298.65	0.0000E00
299.02	0.0000E00
299.38	0.0000E00
299.75	0.0000E00
300.12	7.5012E-01
300.48	1.8718E00
300.85	7.9658E-01
301.22	2.0961E00
301.59	6.4317E-01
301.95	7.5938E-01
302.32	1.1627E00
302.69	1.1828E00
303.05	7.3378E-01
303.42	9.9753E-01
303.79	1.1456E00
304.15	7.1143E-01
304.52	8.6014E-01
304.89	8.2339E-01
305.25	1.6393E00
305.62	1.0722E00
305.99	1.3062E00
306.35	7.9798E-01
306.72	1.1053E00
307.09	9.2473E-01
307.45	9.7343E-01
307.82	7.2574E-01
308.19	9.2246E-01
308.55	1.0962E00
308.92	1.2623E00
309.29	1.0699E00
309.65	1.1204E00
310.02	9.3334E-01
310.38	9.6337E-01
310.75	1.2098E00
311.12	1.1111E00
311.48	1.8559E00
311.85	1.1623E00
312.22	8.0009E-01
312.58	1.8758E00
312.95	1.1297E00
313.31	1.0515E00
313.68	1.3591E00
314.05	2.2091E00
314.41	1.2035E00
314.78	7.0968E-01
315.14	1.1711E00
315.51	2.4564E00
315.87	1.0608E00
316.24	1.5760E00
316.61	1.4365E00
316.97	9.5084E-01
317.34	1.4602E00
317.70	1.1443E00
318.07	1.1539E00
318.43	1.3670E00
318.80	1.0225E00
319.16	1.2795E00
319.53	8.9657E-01
319.89	1.8085E00
320.26	1.3684E00
320.62	1.6554E00
320.99	1.4516E00
321.35	8.4190E-01
321.72	1.1319E00
322.08	1.8018E00
322.45	9.8536E-01
322.81	1.1598E00
323.18	3.5041E00
323.54	1.8588E00
323.91	1.4224E00
324.27	2.7565E00
324.64	2.0043E00
325.00	1.4515E00
325.37	2.4368E00
325.73	8.9625E-01
326.10	3.0804E00
326.46	1.4294E00
326.83	1.1671E00
327.19	2.5015E00
327.56	9.6544E-01
327.92	1.4001E00
328.29	1.1153E00
328.65	1.4620E00
329.01	1.7324E00
329.38	1.1242E00
329.74	1.0066E00
330.11	1.4714E00
330.47	9.8204E-01
330.84	1.4175E00
331.20	1.4175E00
331.56	1.3179E00
331.93	1.4686E00
332.29	1.3608E00
332.66	9.5086E-01
333.02	1.1505E00
333.38	1.7232E00
333.75	8.0376E-01
334.11	1.2568E00
334.48	1.2541E00
334.84	1.1744E00
335.20	1.4412E00
335.57	2.6715E00
335.93	1.7769E00
336.29	1.3799E00
336.66	1.3298E00
337.02	9.2975E-01
337.38	1.1610E00
337.75	1.1269E00
338.11	9.5323E-01
338.47	1.3302E00
338.84	1.0970E00
339.20	9.1197E-01
339.56	2.6792E00
339.93	8.3727E-01
340.29	9.9518E-01
340.65	1.0865E00
341.02	1.8206E00
341.38	1.2409E00
341.74	1.3367E00
342.11	1.3023E00
342.47	1.3127E00
342.83	7.2273E-01
343.20	1.6693E00
343.56	1.0103E00
343.92	1.4078E00
344.28	9.3658E-01
344.65	1.4850E00
345.01	8.7492E-01
345.37	1.4142E00
345.73	1.2602E00
346.10	1.0814E00
346.46	1.2838E00
346.82	9.7923E-01
347.19	2.2241E00
347.55	9.1534E-01
347.91	9.2325E-01
348.27	1.0366E00
348.63	9.0160E-01
349.00	8.9118E-01
349.36	1.7953E00
349.72	1.1192E00
350.08	1.6304E00
350.45	9.3240E-01
350.81	8.6970E-01
351.17	1.1447E00
351.53	1.2387E00
351.89	1.0109E00
352.26	1.1606E00
352.62	9.5981E-01
352.98	1.1161E00
353.34	9.8615E-01
353.70	1.3028E00
354.07	9.5582E-01
354.43	9.0689E-01
354.79	1.0647E00
355.15	8.5079E-01
355.51	8.1225E-01
355.87	9.1873E-01
356.24	9.5779E-01
356.60	9.2757E-01
356.96	1.0047E00
357.32	9.0353E-01
357.68	8.4936E-01
358.04	7.6565E-01
358.40	8.4519E-01
358.77	7.8764E-01
359.13	9.3132E-01
359.49	9.9011E-01
359.85	9.6281E-01
360.21	7.2445E-01
360.57	8.8273E-01
360.93	8.7732E-01
361.29	9.3037E-01
361.66	7.7234E-01
362.02	7.1144E-01
362.38	9.2784E-01
362.74	8.0827E-01
363.10	8.5231E-01
363.46	9.9140E-01
363.82	8.4770E-01
364.18	1.0145E00
364.54	9.6173E-01
364.90	9.1569E-01
365.26	9.0025E-01
365.62	1.0300E00
365.98	8.9668E-01
366.35	7.1827E-01
366.71	8.7099E-01
367.07	1.1154E00
367.43	7.0556E-01
367.79	1.0078E00
368.15	9.2454E-01
368.51	1.0964E00
368.87	9.5844E-01
369.23	1.0239E00
369.59	8.0524E-01
369.95	8.7206E-01
370.31	8.3149E-01
370.67	9.8357E-01
371.03	8.3068E-01
371.39	8.1203E-01
371.75	8.1941E-01
372.11	8.4618E-01
372.47	7.7799E-01
372.83	7.8559E-01
373.19	6.5574E-01
373.55	8.5921E-01
373.91	8.7708E-01
374.27	9.4624E-01
374.63	9.2279E-01
374.99	8.3811E-01
375.35	8.0520E-01
375.71	8.2068E-01
376.07	8.2805E-01
376.42	8.1893E-01
376.78	7.4321E-01
377.14	8.4200E-01
377.50	9.1963E-01
377.86	7.8254E-01
378.22	7.3839E-01
378.58	7.3889E-01
378.94	7.1661E-01
379.30	7.5266E-01
379.66	7.4154E-01
380.02	7.2588E-01
380.38	7.0488E-01
380.74	7.3950E-01
381.09	7.7586E-01
381.45	7.1538E-01
381.81	6.9194E-01
382.17	7.2944E-01
382.53	7.5778E-01
382.89	6.7895E-01
383.25	7.1368E-01
383.61	7.0584E-01
383.97	6.8495E-01
384.32	6.8348E-01
384.68	6.5227E-01
385.04	7.2423E-01
385.40	7.4549E-01
385.76	7.4326E-01
386.12	6.9850E-01
386.48	7.1017E-01
386.83	6.6253E-01
387.19	6.6120E-01
387.55	7.3903E-01
387.91	7.1477E-01
388.27	6.6832E-01
388.62	7.5099E-01
388.98	6.8076E-01
389.34	7.5552E-01
389.70	6.8537E-01
390.06	7.0749E-01
390.42	7.1408E-01
390.77	6.9687E-01
391.13	7.1060E-01
391.49	6.9805E-01
391.85	7.3599E-01
392.20	6.5008E-01
392.56	6.5849E-01
392.92	6.6835E-01
393.28	6.7034E-01
393.64	7.0075E-01
393.99	7.1447E-01
394.35	7.0202E-01
394.71	6.9422E-01
395.07	6.7986E-01
395.42	6.8245E-01
395.78	6.9509E-01
396.14	6.2688E-01
396.50	6.2967E-01
396.85	6.9267E-01
397.21	6.6682E-01
397.57	6.8506E-01
397.92	6.4068E-01
398.28	6.1943E-01
398.64	7.3667E-01
399.00	5.9403E-01
399.35	6.1813E-01
399.71	6.6252E-01
400.07	6.4616E-01
400.42	6.3204E-01
400.78	6.4746E-01
401.14	6.5023E-01
401.49	6.0326E-01
401.85	5.9903E-01
402.21	6.0872E-01
402.57	6.0490E-01
402.92	6.3781E-01
403.28	6.0705E-01
403.63	6.0392E-01
403.99	6.1786E-01
404.35	5.9989E-01
404.70	5.8874E-01
405.06	5.9787E-01
405.42	6.1194E-01
405.77	5.6867E-01
406.13	5.6829E-01
406.49	5.6435E-01
406.84	5.7063E-01
407.20	5.5716E-01
407.55	6.0123E-01
407.91	6.1257E-01
408.27	5.7358E-01
408.62	5.7676E-01
408.98	5.8366E-01
409.34	5.9379E-01
409.69	5.6789E-01
410.05	5.9860E-01
410.40	5.7192E-01
410.76	5.2890E-01
411.11	5.3361E-01
411.47	5.7829E-01
411.83	5.4821E-01
412.18	5.5886E-01
412.54	5.4839E-01
412.89	5.4449E-01
413.25	5.6490E-01
413.60	5.8929E-01
413.96	5.5225E-01
414.31	5.5577E-01
414.67	5.8675E-01
415.03	5.7512E-01
415.38	5.8918E-01
415.74	5.8217E-01
416.09	5.7868E-01
416.45	5.8664E-01
416.80	5.7545E-01
417.16	5.7043E-01
417.51	5.6762E-01
417.87	5.4630E-01
418.22	5.3997E-01
418.58	5.5193E-01
418.93	5.2793E-01
419.29	5.6611E-01
419.64	5.4970E-01
420.00	5.1934E-01
420.35	5.1021E-01
420.71	5.3524E-01
421.06	5.3742E-01
421.42	5.5098E-01
421.77	5.4294E-01
422.12	5.4168E-01
422.48	5.1330E-01
422.83	5.4867E-01
423.19	5.1843E-01
423.54	5.1855E-01
423.90	5.2483E-01
424.25	4.9554E-01
424.61	5.4681E-01
424.96	5.1162E-01
425.31	5.0854E-01
425.67	4.8748E-01
426.02	5.0936E-01
426.38	5.0891E-01
426.73	4.8224E-01
427.09	5.0450E-01
427.44	4.8345E-01
427.79	4.8901E-01
428.15	5.0361E-01
428.50	5.0039E-01
428.85	5.1281E-01
429.21	4.7330E-01
429.56	4.6291E-01
429.92	4.7197E-01
430.27	4.8772E-01
430.62	4.8693E-01
430.98	4.9318E-01
431.33	4.8223E-01
431.68	4.6617E-01
432.04	4.6266E-01
432.39	4.6918E-01
432.74	4.8639E-01
433.10	4.5579E-01
433.45	4.8247E-01
433.80	4.7989E-01
434.16	4.9015E-01
434.51	4.6704E-01
434.86	4.8598E-01
435.22	4.6836E-01
435.57	5.0077E-01
435.92	4.9056E-01
436.28	4.8855E-01
436.63	4.5317E-01
436.98	4.8439E-01
437.34	4.8133E-01
437.69	4.5751E-01
438.04	4.4540E-01
438.39	4.7637E-01
438.75	4.8787E-01
439.10	4.4051E-01
439.45	4.7852E-01
439.81	4.7321E-01
440.16	4.4485E-01
440.51	4.6471E-01
440.86	4.6298E-01
441.22	4.5295E-01
441.57	4.5738E-01
441.92	4.4379E-01
442.27	4.6537E-01
442.63	4.5582E-01
442.98	4.8686E-01
443.33	4.7640E-01
443.68	4.4308E-01
444.03	4.1809E-01
444.39	4.2030E-01
444.74	4.5599E-01
445.09	4.6270E-01
445.44	4.6342E-01
445.79	4.0907E-01
446.15	4.3976E-01
446.50	4.5478E-01
446.85	4.2757E-01
447.20	4.1608E-01
447.55	4.4994E-01
447.91	4.3289E-01
448.26	4.4374E-01
448.61	4.3979E-01
448.96	4.3105E-01
449.31	4.3731E-01
449.66	4.4165E-01
450.02	4.3493E-01
450.37	4.3511E-01
450.72	4.2903E-01
451.07	4.6267E-01
451.42	4.6008E-01
451.77	4.3434E-01
452.12	4.3421E-01
452.47	4.5423E-01
452.83	4.1734E-01
453.18	4.4156E-01
453.53	4.3665E-01
453.88	4.1127E-01
454.23	4.0586E-01
454.58	4.0587E-01
454.93	4.3584E-01
455.28	4.3323E-01
455.63	4.2052E-01
455.98	4.1117E-01
456.34	4.3290E-01
456.69	4.1983E-01
457.04	4.2338E-01
457.39	3.9683E-01
457.74	4.0534E-01
458.09	3.9472E-01
458.44	3.9363E-01
458.79	3.8531E-01
459.14	3.9842E-01
459.49	4.1467E-01
459.84	3.9187E-01
460.19	4.1692E-01
460.54	4.1415E-01
460.89	3.8176E-01
461.24	4.1754E-01
461.59	3.9977E-01
461.94	4.0517E-01
462.29	3.7891E-01
462.64	4.0061E-01
462.99	4.0451E-01
463.34	4.2788E-01
463.69	4.0095E-01
464.04	3.7383E-01
464.39	3.8855E-01
464.74	3.9410E-01
465.09	4.0483E-01
465.44	3.8102E-01
465.79	3.9332E-01
466.14	3.9493E-01
466.49	3.8827E-01
466.84	3.8470E-01
467.19	3.9795E-01
467.54	3.9920E-01
467.89	3.7993E-01
468.24	3.6011E-01
468.59	3.7202E-01
468.94	3.6466E-01
469.29	3.6670E-01
469.64	3.7850E-01
469.99	3.6496E-01
470.34	3.5320E-01
470.68	3.7608E-01
471.03	3.6307E-01
471.38	3.6388E-01
471.73	3.4691E-01
472.08	3.4230E-01
472.43	3.3064E-01
472.78	3.4904E-01
473.13	3.4502E-01
473.48	3.3954E-01
473.83	3.3289E-01
474.17	3.3810E-01
474.52	3.3444E-01
474.87	3.2055E-01
475.22	3.2744E-01
475.57	3.1123E-01
475.92	3.0347E-01
476.27	3.1244E-01
476.61	3.0406E-01
476.96	2.9632E-01
477.31	2.8725E-01
477.66	2.9276E-01
478.01	2.9115E-01
478.36	2.8940E-01
478.70	2.8536E-01
479.05	2.8980E-01
479.40	2.7651E-01
479.75	2.7326E-01
480.10	2.7535E-01
480.45	2.6877E-01
480.79	2.6758E-01
481.14	2.7128E-01
481.49	2.6465E-01
481.84	2.6005E-01
482.19	2.5817E-01
482.53	2.5755E-01
482.88	2.5544E-01
483.23	2.5092E-01
483.58	2.4598E-01
483.92	2.5209E-01
484.27	2.4412E-01
484.62	2.4240E-01
484.97	2.3751E-01
485.31	2.3634E-01
485.66	2.4143E-01
486.01	2.4129E-01
486.36	2.2990E-01
486.70	2.3607E-01
487.05	2.3471E-01
487.40	2.3488E-01
487.75	2.2785E-01
488.09	2.2838E-01
488.44	2.3011E-01
488.79	2.2675E-01
489.13	2.2400E-01
489.48	2.2682E-01
489.83	2.2725E-01
490.17	2.2131E-01
490.52	2.2128E-01
490.87	2.2218E-01
491.22	2.2508E-01
491.56	2.2195E-01
491.91	2.2490E-01
492.26	2.2237E-01
492.60	2.2233E-01
492.95	2.2450E-01
493.30	2.2397E-01
493.64	2.2125E-01
493.99	2.2244E-01
494.34	2.1973E-01
494.68	2.1739E-01
495.03	2.2305E-01
495.37	2.2078E-01
495.72	2.2301E-01
496.07	2.1809E-01
496.41	2.1958E-01
496.76	2.1812E-01
497.11	2.2029E-01
497.45	2.1918E-01
497.80	2.1976E-01
498.14	2.1960E-01
498.49	2.1995E-01
498.84	2.2050E-01
499.18	2.2006E-01
499.53	2.1992E-01
499.87	2.1793E-01
500.22	2.2046E-01
500.56	2.1996E-01
500.91	2.1979E-01
501.26	2.1943E-01
501.60	2.1908E-01
501.95	2.1724E-01
502.29	2.2005E-01
502.64	2.1617E-01
502.98	2.1974E-01
503.33	2.1778E-01
503.67	2.1825E-01
504.02	2.1760E-01
504.36	2.1721E-01
504.71	2.1796E-01
505.06	2.1594E-01
505.40	2.1614E-01
505.75	2.1743E-01
506.09	2.1756E-01
506.44	2.1735E-01
506.78	2.1530E-01
507.13	2.1662E-01
507.47	2.1479E-01
507.82	2.1468E-01
508.16	2.1670E-01
508.51	2.1459E-01
508.85	2.1209E-01
509.19	2.1474E-01
509.54	2.1452E-01
509.88	2.1474E-01
510.23	2.1153E-01
510.57	2.1251E-01
510.92	2.1184E-01
511.26	2.1206E-01
511.61	2.1186E-01
511.95	2.1202E-01
512.30	2.1086E-01
512.64	2.1242E-01
512.98	2.0860E-01
513.33	2.1027E-01
513.67	2.1066E-01
514.02	2.0992E-01
514.36	2.0821E-01
514.70	2.0942E-01
515.05	2.0704E-01
515.39	2.0882E-01
515.74	2.0686E-01
516.08	2.0571E-01
516.42	2.0750E-01
516.77	2.0785E-01
517.11	2.0808E-01
517.46	2.0920E-01
517.80	2.0616E-01
518.14	2.0733E-01
518.49	2.0569E-01
518.83	2.0643E-01
519.17	2.0631E-01
519.52	2.0673E-01
519.86	2.0544E-01
520.20	2.0460E-01
520.55	2.0532E-01
520.89	2.0417E-01
521.23	2.0625E-01
521.58	2.0583E-01
521.92	2.0731E-01
522.26	2.0837E-01
522.61	2.0506E-01
522.95	2.0660E-01
523.29	2.0390E-01
523.64	2.0417E-01
523.98	2.0505E-01
524.32	2.0565E-01
524.66	2.0730E-01
525.01	2.0718E-01
525.35	2.0777E-01
525.69	2.0855E-01
526.04	2.0811E-01
526.38	2.0496E-01
526.72	2.0901E-01
527.06	2.0773E-01
527.41	2.0957E-01
527.75	2.1145E-01
528.09	2.0977E-01
528.43	2.1315E-01
528.78	2.1047E-01
529.12	2.1257E-01
529.46	2.1418E-01
529.80	2.1334E-01
530.15	2.1401E-01
530.49	2.1392E-01
530.83	2.1513E-01
531.17	2.1531E-01
531.51	2.1474E-01
531.86	2.1625E-01
532.20	2.1739E-01
532.54	2.1690E-01
532.88	2.1823E-01
533.22	2.2027E-01
533.57	2.2119E-01
533.91	2.2055E-01
534.25	2.2256E-01
534.59	2.2134E-01
534.93	2.2323E-01
535.27	2.2220E-01
535.62	2.2623E-01
535.96	2.2554E-01
536.30	2.2608E-01
536.64	2.2649E-01
536.98	2.2837E-01
537.32	2.2751E-01
537.66	2.2769E-01
538.01	2.2999E-01
538.35	2.3176E-01
538.69	2.2889E-01
539.03	2.3476E-01
539.37	2.3231E-01
539.71	2.3421E-01
540.05	2.3461E-01
540.39	2.3543E-01
540.73	2.3434E-01
541.07	2.3479E-01
541.42	2.3539E-01
541.76	2.3557E-01
542.10	2.3671E-01
542.44	2.3772E-01
542.78	2.3806E-01
543.12	2.3733E-01
543.46	2.4256E-01
543.80	2.3961E-01
544.14	2.3952E-01
544.48	2.3852E-01
544.82	2.4127E-01
545.16	2.4186E-01
545.50	2.4027E-01
545.84	2.4258E-01
546.18	2.4090E-01
546.52	2.4363E-01
546.86	2.4150E-01
547.20	2.4487E-01
547.54	2.4787E-01
547.88	2.4331E-01
548.22	2.4395E-01
548.56	2.4518E-01
548.90	2.4352E-01
549.24	2.4571E-01
549.58	2.4623E-01
549.92	2.4465E-01
550.26	2.4877E-01
550.60	2.4525E-01
550.94	2.4394E-01
551.28	2.4755E-01
551.62	2.4593E-01
551.96	2.4825E-01
552.30	2.4935E-01
552.64	2.4819E-01
552.98	2.4843E-01
553.32	2.4867E-01
553.66	2.4729E-01
554.00	2.4798E-01
554.34	2.4877E-01
554.68	2.4961E-01
555.02	2.4991E-01
555.36	2.5100E-01
555.69	2.4998E-01
556.03	2.4969E-01
556.37	2.5093E-01
556.71	2.4874E-01
557.05	2.4849E-01
557.39	2.4892E-01
557.73	2.4918E-01
558.07	2.5125E-01
558.41	2.4996E-01
558.75	2.5043E-01
559.08	2.5060E-01
559.42	2.4830E-01
559.76	2.5200E-01
560.10	2.5168E-01
560.44	2.5164E-01
560.78	2.4926E-01
561.12	2.5080E-01
561.45	2.5016E-01
561.79	2.5135E-01
562.13	2.5113E-01
562.47	2.5147E-01
562.81	2.5185E-01
563.15	2.5179E-01
563.48	2.5237E-01
563.82	2.4919E-01
564.16	2.5147E-01
564.50	2.5173E-01
564.84	2.5227E-01
565.17	2.5234E-01
565.51	2.5189E-01
565.85	2.5397E-01
566.19	2.5075E-01
566.52	2.5420E-01
566.86	2.5153E-01
567.20	2.5390E-01
567.54	2.5288E-01
567.88	2.5325E-01
568.21	2.5303E-01
568.55	2.5445E-01
568.89	2.5452E-01
569.23	2.5435E-01
569.56	2.5392E-01
569.90	2.5472E-01
570.24	2.5668E-01
570.57	2.5643E-01
570.91	2.5689E-01
571.25	2.5350E-01
571.59	2.5661E-01
571.92	2.5617E-01
572.26	2.5706E-01
572.60	2.5935E-01
572.93	2.5802E-01
573.27	2.6028E-01
573.61	2.6074E-01
573.95	2.5687E-01
574.28	2.6125E-01
574.62	2.6161E-01
574.96	2.6170E-01
575.29	2.6109E-01
575.63	2.6536E-01
575.97	2.6451E-01
576.30	2.7041E-01
576.64	2.6717E-01
576.98	2.6681E-01
577.31	2.6806E-01
577.65	2.7072E-01
577.98	2.6895E-01
578.32	2.7120E-01
578.66	2.7256E-01
578.99	2.7321E-01
579.33	2.7406E-01
579.67	2.7217E-01
580.00	2.7571E-01
580.34	2.7490E-01
580.67	2.7650E-01
581.01	2.7906E-01
581.35	2.8000E-01
581.68	2.8123E-01
582.02	2.7998E-01
582.35	2.8220E-01
582.69	2.8204E-01
583.02	2.8641E-01
583.36	2.8375E-01
583.70	2.8328E-01
584.03	2.8526E-01
584.37	2.8343E-01
584.70	2.8931E-01
585.04	2.8929E-01
585.37	2.8790E-01
585.71	2.9266E-01
586.04	2.9157E-01
586.38	2.8939E-01
586.72	2.9323E-01
587.05	2.9462E-01
587.39	2.9568E-01
587.72	2.9392E-01
588.06	2.9614E-01
588.39	2.9624E-01
588.73	2.9904E-01
589.06	2.9715E-01
589.40	3.0160E-01
589.73	3.0303E-01
590.07	3.0378E-01
590.40	3.0391E-01
590.73	3.0762E-01
591.07	3.0458E-01
591.40	3.1124E-01
591.74	3.0418E-01
592.07	3.0832E-01
592.41	3.0984E-01
592.74	3.1055E-01
593.08	3.0873E-01
593.41	3.1080E-01
593.75	3.0838E-01
594.08	3.1341E-01
594.41	3.1173E-01
594.75	3.1313E-01
595.08	3.1296E-01
595.42	3.0893E-01
595.75	3.1434E-01
596.09	3.1426E-01
596.42	3.1273E-01
596.75	3.1666E-01
597.09	3.1784E-01
597.42	3.1477E-01
597.75	3.1850E-01
598.09	3.1939E-01
598.42	3.1693E-01
598.76	3.1896E-01
599.09	3.2310E-01
599.42	3.2286E-01
599.76	3.2147E-01
600.09	3.2048E-01
600.42	3.2527E-01
600.76	3.1890E-01
601.09	3.2283E-01
601.42	3.2603E-01
601.76	3.2242E-01
602.09	3.2161E-01
602.42	3.2350E-01
602.76	3.2259E-01
603.09	3.2159E-01
603.42	3.2752E-01
603.76	3.2365E-01
604.09	3.2378E-01
604.42	3.2627E-01
604.76	3.2388E-01
605.09	3.2917E-01
605.42	3.2554E-01
605.75	3.2712E-01
606.09	3.2561E-01
606.42	3.2677E-01
606.75	3.2835E-01
607.09	3.2878E-01
607.42	3.2869E-01
607.75	3.2937E-01
608.08	3.2878E-01
608.42	3.3127E-01
608.75	3.2769E-01
609.08	3.3181E-01
609.41	3.3108E-01
609.75	3.2926E-01
610.08	3.3118E-01
610.41	3.3297E-01
610.74	3.3237E-01
611.07	3.3250E-01
611.41	3.3161E-01
611.74	3.3307E-01
612.07	3.3477E-01
612.40	3.2995E-01
612.73	3.3326E-01
613.07	3.3552E-01
613.40	3.3156E-01
613.73	3.3075E-01
614.06	3.3382E-01
614.39	3.3478E-01
614.72	3.3591E-01
615.06	3.3549E-01
615.39	3.3939E-01
615.72	3.3382E-01
616.05	3.3727E-01
616.38	3.3834E-01
616.71	3.3904E-01
617.05	3.3709E-01
617.38	3.3899E-01
617.71	3.3701E-01
618.04	3.3866E-01
618.37	3.3699E-01
618.70	3.3757E-01
619.03	3.3882E-01
619.36	3.3347E-01
619.69	3.4047E-01
620.03	3.3682E-01
620.36	3.3759E-01
620.69	3.3601E-01
621.02	3.3898E-01
621.35	3.3787E-01
621.68	3.3476E-01
622.01	3.3395E-01
622.34	3.3585E-01
622.67	3.3495E-01
623.00	3.3667E-01
623.33	3.3680E-01
623.66	3.3450E-01
623.99	3.3537E-01
624.32	3.3446E-01
624.65	3.3514E-01
624.99	3.3545E-01
625.32	3.3645E-01
625.65	3.3574E-01
625.98	3.3052E-01
626.31	3.3504E-01
626.64	3.3583E-01
626.97	3.3628E-01
627.30	3.3389E-01
627.63	3.3551E-01
627.96	3.3263E-01
628.29	3.3267E-01
628.62	3.3575E-01
628.95	3.3568E-01
629.28	3.3031E-01
629.61	3.4091E-01
629.94	3.3590E-01
630.26	3.3642E-01
630.59	3.3840E-01
630.92	3.3645E-01
631.25	3.3818E-01
631.58	3.4182E-01
631.91	3.3703E-01
632.24	3.4420E-01
632.57	3.4078E-01
632.90	3.4114E-01
633.23	3.4169E-01
633.56	3.4361E-01
633.89	3.4401E-01
634.22	3.4514E-01
634.55	3.4625E-01
634.88	3.5034E-01
635.20	3.4918E-01
635.53	3.5183E-01
635.86	3.5209E-01
636.19	3.5592E-01
636.52	3.5722E-01
636.85	3.5411E-01
637.18	3.5845E-01
637.51	3.5566E-01
637.83	3.5931E-01
638.16	3.5606E-01
638.49	3.6655E-01
638.82	3.6510E-01
639.15	3.6758E-01
639.48	3.7034E-01
639.81	3.7247E-01
640.13	3.6872E-01
640.46	3.7449E-01
640.79	3.7430E-01
641.12	3.7772E-01
641.45	3.7723E-01
641.77	3.7510E-01
642.10	3.8360E-01
642.43	3.8479E-01
642.76	3.8618E-01
643.09	3.8391E-01
643.41	3.8723E-01
643.74	3.8759E-01
644.07	3.8738E-01
644.40	3.9073E-01
644.73	3.9489E-01
645.05	3.9643E-01
645.38	3.9918E-01
645.71	4.0020E-01
646.04	4.0026E-01
646.36	3.9950E-01
646.69	4.0588E-01
647.02	4.0572E-01
647.35	4.0348E-01
647.67	4.0874E-01
648.00	4.0740E-01
648.33	4.1219E-01
648.66	4.1009E-01
648.98	4.1569E-01
649.31	4.1449E-01
649.64	4.1624E-01
649.96	4.2052E-01
650.29	4.2264E-01
650.62	4.2283E-01
650.94	4.2225E-01
651.27	4.2180E-01
651.60	4.2317E-01
651.92	4.3034E-01
652.25	4.3114E-01
652.58	4.3022E-01
652.90	4.3238E-01
653.23	4.3276E-01
653.56	4.3414E-01
653.88	4.3596E-01
654.21	4.3607E-01
654.54	4.3816E-01
654.86	4.4371E-01
655.19	4.3869E-01
655.52	4.4547E-01
655.84	4.4418E-01
656.17	4.4670E-01
656.49	4.5184E-01
656.82	4.4669E-01
657.15	4.5169E-01
657.47	4.5134E-01
657.80	4.5169E-01
658.13	4.5338E-01
658.45	4.5607E-01
658.78	4.5455E-01
659.10	4.6039E-01
659.43	4.6006E-01
659.75	4.5885E-01
660.08	4.5690E-01
660.41	4.6299E-01
660.73	4.6354E-01
661.06	4.6707E-01
661.38	4.6542E-01
661.71	4.6688E-01
662.03	4.6749E-01
662.36	4.7356E-01
662.68	4.7210E-01
663.01	4.6625E-01
663.33	4.7102E-01
663.66	4.7402E-01
663.98	4.7135E-01
664.31	4.7171E-01
664.63	4.8145E-01
664.96	4.7803E-01
665.28	4.8139E-01
665.61	4.8032E-01
665.93	4.8112E-01
666.26	4.8366E-01
666.58	4.8421E-01
666.91	4.8114E-01
667.23	4.8675E-01
667.56	4.8066E-01
667.88	4.8847E-01
668.21	4.8823E-01
668.53	4.8589E-01
668.86	4.9572E-01
669.18	4.8838E-01
669.50	4.9905E-01
669.83	4.9739E-01
670.15	4.9922E-01
670.48	4.9797E-01
670.80	4.9627E-01
671.13	4.9383E-01
671.45	4.9966E-01
671.77	5.0262E-01
672.10	4.9904E-01
672.42	5.0668E-01
672.75	5.0365E-01
673.07	5.0777E-01
673.39	5.0285E-01
673.72	5.0619E-01
674.04	5.0970E-01
674.37	5.1341E-01
674.69	5.1041E-01
675.01	5.1420E-01
675.34	5.1571E-01
675.66	5.1710E-01
675.98	5.1148E-01
676.31	5.1977E-01
676.63	5.2128E-01
676.95	5.1816E-01
677.28	5.2289E-01
677.60	5.2280E-01
677.92	5.2124E-01
678.25	5.2695E-01
678.57	5.2729E-01
678.89	5.2596E-01
679.22	5.3390E-01
679.54	5.3146E-01
679.86	5.3155E-01
680.18	5.3385E-01
680.51	5.3537E-01
680.83	5.4028E-01
681.15	5.3471E-01
681.48	5.3860E-01
681.80	5.4255E-01
682.12	5.3910E-01
682.44	5.4756E-01
682.77	5.4776E-01
683.09	5.5087E-01
683.41	5.4848E-01
683.73	5.5426E-01
684.06	5.5298E-01
684.38	5.5485E-01
684.70	5.5363E-01
685.02	5.5902E-01
685.34	5.6450E-01
685.67	5.5982E-01
685.99	5.6677E-01
686.31	5.6281E-01
686.63	5.7257E-01
686.96	5.6890E-01
687.28	5.7596E-01
687.60	5.6817E-01
687.92	5.7484E-01
688.24	5.8021E-01
688.56	5.8137E-01
688.89	5.8328E-01
689.21	5.8065E-01
689.53	5.8323E-01
689.85	5.9199E-01
690.17	5.8764E-01
690.49	5.9673E-01
690.82	5.9631E-01
691.14	5.9679E-01
691.46	5.9998E-01
691.78	6.0392E-01
692.10	5.9745E-01
692.42	6.0375E-01
692.74	6.0943E-01
693.06	6.1017E-01
693.39	6.2084E-01
693.71	6.2114E-01
694.03	6.2129E-01
694.35	6.2337E-01
694.67	6.2527E-01
694.99	6.3140E-01
695.31	6.3353E-01
695.63	6.3240E-01
695.95	6.3823E-01
696.27	6.3616E-01
696.59	6.4179E-01
696.91	6.5044E-01
697.23	6.4927E-01
697.56	6.4836E-01
697.88	6.5522E-01
698.20	6.5457E-01
698.52	6.6095E-01
698.84	6.6589E-01
699.16	6.7054E-01
699.48	6.6427E-01
699.80	6.7325E-01
700.12	6.7943E-01
700.44	6.8012E-01
700.76	6.8148E-01
701.08	6.8592E-01
701.40	6.8885E-01
701.72	6.9555E-01
702.04	6.9496E-01
702.36	7.0122E-01
702.68	7.0410E-01
703.00	7.0963E-01
703.32	7.1326E-01
703.64	7.1357E-01
703.96	7.0648E-01
704.28	7.1739E-01
704.60	7.2605E-01
704.91	7.2845E-01
705.23	7.2918E-01
705.55	7.3757E-01
705.87	7.3231E-01
706.19	7.3459E-01
706.51	7.3937E-01
706.83	7.4345E-01
707.15	7.6262E-01
707.47	7.4645E-01
707.79	7.6126E-01
708.11	7.6318E-01
708.43	7.6632E-01
708.74	7.7278E-01
709.06	7.8353E-01
709.38	7.7857E-01
709.70	7.7442E-01
710.02	7.8426E-01
710.34	7.8152E-01
710.66	8.0178E-01
710.98	7.9716E-01
711.29	7.9691E-01
711.61	8.1089E-01
711.93	8.1530E-01
712.25	8.0883E-01
712.57	8.1939E-01
712.89	8.2283E-01
713.20	8.2377E-01
713.52	8.3268E-01
713.84	8.3903E-01
714.16	8.3285E-01
714.48	8.3481E-01
714.80	8.4872E-01
715.11	8.4681E-01
715.43	8.5862E-01
715.75	8.6423E-01
716.07	8.7312E-01
716.39	8.5731E-01
716.70	8.6799E-01
717.02	8.6302E-01
717.34	8.8859E-01
717.66	8.8011E-01
717.97	8.9086E-01
718.29	8.9524E-01
718.61	9.0868E-01
718.93	9.0687E-01
719.24	9.0953E-01
719.56	9.2959E-01
719.88	9.2090E-01
720.20	9.3282E-01
720.51	9.4476E-01
720.83	9.4076E-01
721.15	9.6094E-01
721.46	9.5643E-01
721.78	9.6250E-01
722.10	9.7639E-01
722.42	9.8597E-01
722.73	9.9166E-01
723.05	9.8019E-01
723.37	9.9415E-01
723.68	1.0040E00
724.00	1.0043E00
724.32	1.0218E00
724.63	1.0199E00
724.95	1.0140E00
725.27	1.0239E00
725.58	1.0303E00
725.90	1.0304E00
726.22	1.0471E00
726.53	1.0251E00
726.85	1.0398E00
727.16	1.0616E00
727.48	1.0432E00
727.80	1.0546E00
728.11	1.0595E00
728.43	1.0569E00
728.74	1.0517E00
729.06	1.0710E00
729.38	1.0673E00
729.69	1.0722E00
730.01	1.0801E00
730.32	1.0872E00
730.64	1.0861E00
730.96	1.0760E00
731.27	1.1052E00
731.59	1.0799E00
731.90	1.0932E00
732.22	1.1024E00
732.53	1.0993E00
732.85	1.1128E00
733.16	1.1092E00
733.48	1.1162E00
733.80	1.1104E00
734.11	1.1304E00
734.43	1.1287E00
734.74	1.1279E00
735.06	1.1428E00
735.37	1.1515E00
735.69	1.1356E00
736.00	1.1493E00
736.32	1.1513E00
736.63	1.1595E00
736.95	1.1572E00
737.26	1.1789E00
737.58	1.1779E00
737.89	1.1862E00
738.21	1.1749E00
738.52	1.1823E00
738.83	1.1855E00
739.15	1.1853E00
739.46	1.2017E00
739.78	1.1987E00
740.09	1.2125E00
740.41	1.2049E00
740.72	1.2023E00
741.04	1.2029E00
741.35	1.2054E00
741.66	1.2259E00
741.98	1.2185E00
742.29	1.2255E00
742.61	1.2185E00
742.92	1.2236E00
743.23	1.2229E00
743.55	1.2327E00
743.86	1.2210E00
744.18	1.2288E00
744.49	1.2307E00
744.80	1.2284E00
745.12	1.2302E00
745.43	1.2340E00
745.74	1.2335E00
746.06	1.2246E00
746.37	1.2231E00
746.68	1.2325E00
747.00	1.2298E00
747.31	1.2207E00
747.62	1.2131E00
747.94	1.2333E00
748.25	1.2335E00
748.56	1.2348E00
748.88	1.2168E00
749.19	1.2266E00
749.50	1.2302E00
749.82	1.2214E00
750.13	1.2296E00
750.44	1.2303E00
750.75	1.2157E00
751.07	1.2326E00
751.38	1.2401E00
751.69	1.2169E00
752.01	1.2345E00
752.32	1.2325E00
752.63	1.2346E00
752.94	1.2408E00
753.26	1.2472E00
753.57	1.2344E00
753.88	1.2424E00
754.19	1.2434E00
754.51	1.2462E00
754.82	1.2423E00
755.13	1.2568E00
755.44	1.2552E00
755.75	1.2592E00
756.07	1.2588E00
756.38	1.2740E00
756.69	1.2702E00
757.00	1.2773E00
757.31	1.2929E00
757.63	1.3005E00
757.94	1.3024E00
758.25	1.3167E00
758.56	1.2846E00
758.87	1.3292E00
759.18	1.3327E00
759.50	1.3303E00
759.81	1.3242E00
760.12	1.3327E00
760.43	1.3441E00
760.74	1.3391E00
761.05	1.3664E00
761.36	1.3700E00
761.67	1.3800E00
761.99	1.3904E00
762.30	1.3699E00
762.61	1.4027E00
762.92	1.3993E00
763.23	1.4017E00
763.54	1.4154E00
763.85	1.4394E00
764.16	1.4410E00
764.47	1.4593E00
764.78	1.4697E00
765.10	1.4717E00
765.41	1.4726E00
765.72	1.4813E00
766.03	1.5153E00
766.34	1.5262E00
766.65	1.5351E00
766.96	1.5669E00
767.27	1.5557E00
767.58	1.5563E00
767.89	1.5731E00
768.20	1.5982E00
768.51	1.5985E00
768.82	1.6013E00
769.13	1.6318E00
769.44	1.6545E00
769.75	1.6519E00
770.06	1.6558E00
770.37	1.6541E00
770.68	1.6937E00
770.99	1.7074E00
771.30	1.7162E00
771.61	1.7684E00
771.92	1.7302E00
772.23	1.7522E00
772.54	1.7901E00
772.85	1.7738E00
773.16	1.7909E00
773.47	1.8458E00
773.78	1.8291E00
774.09	1.8606E00
774.39	1.8635E00
774.70	1.8687E00
775.01	1.9073E00
775.32	1.9162E00
775.63	1.9394E00
775.94	1.9592E00
776.25	1.9475E00
776.56	1.9648E00
776.87	2.0168E00
777.18	2.0107E00
777.48	2.0309E00
777.79	2.0509E00
778.10	2.0678E00
778.41	2.0851E00
778.72	2.1061E00
779.03	2.1168E00
779.34	2.1617E00
779.65	2.1649E00
779.95	2.2057E00
780.26	2.1860E00
780.57	2.2236E00
780.88	2.2194E00
781.19	2.2588E00
781.50	2.2596E00
781.80	2.2823E00
782.11	2.2857E00
782.42	2.3421E00
782.73	2.2958E00
783.04	2.3858E00
783.34	2.3851E00
783.65	2.4050E00
783.96	2.4117E00
784.27	2.4257E00
784.57	2.4467E00
784.88	2.4743E00
785.19	2.4849E00
785.50	2.5137E00
785.81	2.5454E00
786.11	2.5099E00
786.42	2.5391E00
786.73	2.5646E00
787.04	2.5970E00
787.34	2.6481E00
787.65	2.6579E00
787.96	2.7192E00
788.26	2.6982E00
788.57	2.7549E00
788.88	2.7226E00
789.19	2.8069E00
789.49	2.7770E00
789.80	2.8303E00
790.11	2.8373E00
790.41	2.8639E00
790.72	2.8933E00
791.03	2.9094E00
791.33	2.9384E00
791.64	3.0043E00
791.95	2.9500E00
792.25	3.0446E00
792.56	3.0143E00
792.87	3.0610E00
793.17	3.0808E00
793.48	3.0951E00
793.79	3.1253E00
794.09	3.1837E00
794.40	3.1424E00
794.70	3.1510E00
795.01	3.1640E00
795.32	3.2059E00
795.62	3.2713E00
795.93	3.2725E00
796.23	3.2843E00
796.54	3.3268E00
796.85	3.3152E00
797.15	3.3559E00
797.46	3.3870E00
797.76	3.4705E00
798.07	3.4551E00
798.37	3.4644E00
798.68	3.5195E00
798.99	3.5173E00
799.29	3.5540E00
799.60	3.6115E00
799.90	3.6157E00
800.21	3.6669E00
800.51	3.6932E00
800.82	3.6862E00
801.12	3.7563E00
801.43	3.7491E00
801.73	3.8265E00
802.04	3.8153E00
802.34	3.8098E00
802.65	3.8580E00
802.95	3.9885E00
803.26	3.9591E00
803.56	3.8867E00
803.87	3.9525E00
804.17	3.9793E00
804.48	3.9766E00
804.78	4.0482E00
805.09	4.1173E00
805.39	4.0917E00
805.70	4.1130E00
806.00	4.1755E00
806.30	4.1710E00
806.61	4.2346E00
806.91	4.2577E00
807.22	4.3037E00
807.52	4.3251E00
807.83	4.3424E00
808.13	4.3972E00
808.43	4.3123E00
808.74	4.4314E00
809.04	4.4721E00
809.35	4.4434E00
809.65	4.5516E00
809.95	4.5712E00
810.26	4.6259E00
810.56	4.6444E00
810.86	4.7084E00
811.17	4.7427E00
811.47	4.7368E00
811.77	4.7352E00
812.08	4.7304E00
812.38	4.8765E00
812.69	4.7799E00
812.99	4.9357E00
813.29	4.9601E00
813.59	5.0036E00
813.90	5.0206E00
814.20	5.0238E00
814.50	5.0903E00
814.81	5.0345E00
815.11	5.1567E00
815.41	5.2815E00
815.72	5.2192E00
816.02	5.2508E00
816.32	5.2674E00
816.62	5.2282E00
816.93	5.3269E00
817.23	5.4866E00
817.53	5.3896E00
817.84	5.4956E00
818.14	5.4942E00
818.44	5.4756E00
818.74	5.6336E00
819.04	5.7402E00
819.35	5.6765E00
819.65	5.7187E00
819.95	5.8707E00
820.25	5.8745E00
820.56	5.8643E00
820.86	5.9336E00
821.16	5.9850E00
821.46	5.9808E00
821.76	6.0185E00
822.07	5.9742E00
822.37	6.0733E00
822.67	6.1756E00
822.97	6.2148E00
823.27	6.2010E00
823.57	6.3017E00
823.88	6.2735E00
824.18	6.3792E00
824.48	6.3601E00
824.78	6.4452E00
825.08	6.4194E00
825.38	6.5257E00
825.69	6.5304E00
825.99	6.6301E00
826.29	6.6603E00
826.59	6.6332E00
826.89	6.7532E00
827.19	6.5866E00
827.49	7.0158E00
827.79	6.9173E00
828.09	6.8608E00
828.39	7.0166E00
828.70	6.9951E00
829.00	6.9900E00
829.30	7.1128E00
829.60	7.2199E00
829.90	7.1223E00
830.20	7.0701E00
830.50	7.3836E00
830.80	7.4253E00
831.10	7.2812E00
831.40	7.5431E00
831.70	7.4585E00
832.00	7.4980E00
832.30	7.7185E00
832.60	7.6096E00
832.90	7.7484E00
833.20	7.8969E00
833.50	7.7250E00
833.80	7.8619E00
834.10	7.9399E00
834.40	7.7994E00
834.70	7.9811E00
835.00	8.0235E00
835.30	7.9897E00
835.60	8.1221E00
835.90	8.1839E00
836.20	8.3841E00
836.50	8.3784E00
836.80	8.3867E00
837.10	8.3349E00
837.40	8.4925E00
837.70	8.5452E00
838.00	8.5440E00
838.30	8.5083E00
838.60	8.8512E00
838.90	8.8358E00
839.19	8.7519E00
839.49	9.0883E00
839.79	8.9752E00
840.09	9.0657E00
840.39	8.9181E00
840.69	9.0871E00
840.99	9.5961E00
841.29	9.4502E00
841.59	9.4687E00
841.88	9.5152E00
842.18	9.5781E00
842.48	9.8209E00
842.78	9.7603E00
843.08	9.8751E00
843.38	9.7350E00
843.68	1.0043E01
843.97	1.0072E01
844.27	1.0114E01
844.57	1.0297E01
844.87	1.0352E01
845.17	1.0247E01
845.47	1.0125E01
845.76	1.0416E01
846.06	1.0596E01
846.36	1.0492E01
846.66	1.0723E01
846.96	1.0656E01
847.25	1.0684E01
847.55	1.0773E01
847.85	1.1047E01
848.15	1.0860E01
848.44	1.1202E01
848.74	1.0943E01
849.04	1.1230E01
849.34	1.1302E01
849.63	1.1536E01
849.93	1.1494E01
850.23	1.1958E01
850.53	1.1462E01
850.82	1.1761E01
851.12	1.1750E01
851.42	1.1619E01
851.71	1.1918E01
852.01	1.2184E01
852.31	1.2398E01
852.61	1.2460E01
852.90	1.2467E01
853.20	1.2600E01
853.50	1.2795E01
853.79	1.3112E01
854.09	1.2646E01
854.39	1.2851E01
854.68	1.3541E01
854.98	1.3357E01
855.28	1.3326E01
855.57	1.3465E01
855.87	1.3520E01
856.17	1.3589E01
856.46	1.3570E01
856.76	1.3698E01
857.05	1.3940E01
857.35	1.4047E01
857.65	1.3881E01
857.94	1.4226E01
858.24	1.4195E01
858.53	1.4545E01
858.83	1.4499E01
859.13	1.4742E01
859.42	1.4576E01
859.72	1.5078E01
860.01	1.5623E01
860.31	1.5251E01
860.60	1.5606E01
860.90	1.5578E01
861.20	1.5799E01
861.49	1.5541E01
861.79	1.6242E01
862.08	1.6285E01
862.38	1.6570E01
862.67	1.6523E01
862.97	1.6644E01
863.26	1.6493E01
863.56	1.7406E01
863.85	1.7274E01
864.15	1.7052E01
864.44	1.7653E01
864.74	1.7488E01
865.03	1.7612E01
865.33	1.7764E01
865.62	1.8184E01
865.92	1.7984E01
866.21	1.9182E01
866.51	1.9014E01
866.80	1.8928E01
867.10	1.9338E01
867.39	1.9033E01
867.69	1.9799E01
867.98	1.8979E01
868.27	1.9640E01
868.57	1.9670E01
868.86	2.0823E01
869.16	2.0531E01
869.45	2.0638E01
869.75	2.0090E01
870.04	2.0956E01
870.33	2.1191E01
870.63	2.0959E01
870.92	2.1980E01
871.22	2.2264E01
871.51	2.1886E01
871.80	2.2167E01
872.10	2.2167E01
>>>>>End Processed Spectral Data<<<<<
