SpectraSuite Data File
++++++++++++++++++++++++++++++++++++
Date: Tue May 12 13:01:58 PDT 2015
User: schluterlab
Dark Spectrum Present: Yes
Reference Spectrum Present: No
Number of Sampled Component Spectra: 1
Spectrometers: USB2E3373
Integration Time (usec): 2300000 (USB2E3373)
Spectra Averaged: 3 (USB2E3373)
Boxcar Smoothing: 0 (USB2E3373)
Correct for Electrical Dark: No (USB2E3373)
Strobe/Lamp Enabled: No (USB2E3373)
Correct for Detector Non-linearity: No (USB2E3373)
Correct for Stray Light: No (USB2E3373)
Number of Pixels in Processed Spectrum: 2048
>>>>>Begin Processed Spectral Data<<<<<
178.53	0.0000E00
178.91	0.0000E00
179.29	0.0000E00
179.67	0.0000E00
180.04	0.0000E00
180.42	0.0000E00
180.80	0.0000E00
181.18	0.0000E00
181.56	0.0000E00
181.94	0.0000E00
182.31	0.0000E00
182.69	0.0000E00
183.07	0.0000E00
183.45	0.0000E00
183.83	0.0000E00
184.20	0.0000E00
184.58	0.0000E00
184.96	0.0000E00
185.34	0.0000E00
185.72	0.0000E00
186.09	0.0000E00
186.47	0.0000E00
186.85	0.0000E00
187.23	0.0000E00
187.61	0.0000E00
187.98	0.0000E00
188.36	0.0000E00
188.74	0.0000E00
189.12	0.0000E00
189.49	0.0000E00
189.87	0.0000E00
190.25	0.0000E00
190.63	0.0000E00
191.00	0.0000E00
191.38	0.0000E00
191.76	0.0000E00
192.14	0.0000E00
192.51	0.0000E00
192.89	0.0000E00
193.27	0.0000E00
193.65	0.0000E00
194.02	0.0000E00
194.40	0.0000E00
194.78	0.0000E00
195.15	0.0000E00
195.53	-0.0000E00
195.91	0.0000E00
196.29	0.0000E00
196.66	0.0000E00
197.04	0.0000E00
197.42	0.0000E00
197.79	0.0000E00
198.17	0.0000E00
198.55	0.0000E00
198.92	0.0000E00
199.30	0.0000E00
199.68	0.0000E00
200.05	0.0000E00
200.43	0.0000E00
200.81	0.0000E00
201.18	0.0000E00
201.56	0.0000E00
201.94	0.0000E00
202.31	-0.0000E00
202.69	0.0000E00
203.07	0.0000E00
203.44	0.0000E00
203.82	0.0000E00
204.19	0.0000E00
204.57	0.0000E00
204.95	0.0000E00
205.32	0.0000E00
205.70	0.0000E00
206.08	0.0000E00
206.45	0.0000E00
206.83	0.0000E00
207.20	0.0000E00
207.58	0.0000E00
207.96	0.0000E00
208.33	0.0000E00
208.71	0.0000E00
209.08	0.0000E00
209.46	0.0000E00
209.84	0.0000E00
210.21	0.0000E00
210.59	0.0000E00
210.96	0.0000E00
211.34	0.0000E00
211.71	0.0000E00
212.09	0.0000E00
212.46	0.0000E00
212.84	0.0000E00
213.22	0.0000E00
213.59	0.0000E00
213.97	0.0000E00
214.34	0.0000E00
214.72	0.0000E00
215.09	0.0000E00
215.47	0.0000E00
215.84	0.0000E00
216.22	0.0000E00
216.59	0.0000E00
216.97	0.0000E00
217.34	0.0000E00
217.72	0.0000E00
218.09	0.0000E00
218.47	0.0000E00
218.84	0.0000E00
219.22	0.0000E00
219.59	0.0000E00
219.97	0.0000E00
220.34	0.0000E00
220.72	0.0000E00
221.09	0.0000E00
221.47	0.0000E00
221.84	0.0000E00
222.22	0.0000E00
222.59	0.0000E00
222.97	0.0000E00
223.34	0.0000E00
223.72	0.0000E00
224.09	0.0000E00
224.46	0.0000E00
224.84	0.0000E00
225.21	0.0000E00
225.59	0.0000E00
225.96	0.0000E00
226.34	0.0000E00
226.71	0.0000E00
227.08	0.0000E00
227.46	0.0000E00
227.83	0.0000E00
228.21	0.0000E00
228.58	0.0000E00
228.95	0.0000E00
229.33	0.0000E00
229.70	0.0000E00
230.08	0.0000E00
230.45	0.0000E00
230.82	0.0000E00
231.20	0.0000E00
231.57	0.0000E00
231.95	0.0000E00
232.32	0.0000E00
232.69	0.0000E00
233.07	0.0000E00
233.44	0.0000E00
233.81	0.0000E00
234.19	0.0000E00
234.56	0.0000E00
234.93	0.0000E00
235.31	0.0000E00
235.68	0.0000E00
236.05	0.0000E00
236.43	0.0000E00
236.80	0.0000E00
237.17	0.0000E00
237.55	0.0000E00
237.92	0.0000E00
238.29	0.0000E00
238.67	0.0000E00
239.04	0.0000E00
239.41	0.0000E00
239.79	0.0000E00
240.16	0.0000E00
240.53	0.0000E00
240.91	0.0000E00
241.28	0.0000E00
241.65	0.0000E00
242.02	0.0000E00
242.40	0.0000E00
242.77	0.0000E00
243.14	0.0000E00
243.51	0.0000E00
243.89	0.0000E00
244.26	0.0000E00
244.63	0.0000E00
245.00	0.0000E00
245.38	0.0000E00
245.75	0.0000E00
246.12	0.0000E00
246.49	0.0000E00
246.87	0.0000E00
247.24	0.0000E00
247.61	0.0000E00
247.98	0.0000E00
248.36	0.0000E00
248.73	0.0000E00
249.10	0.0000E00
249.47	0.0000E00
249.84	0.0000E00
250.22	0.0000E00
250.59	0.0000E00
250.96	0.0000E00
251.33	0.0000E00
251.70	0.0000E00
252.08	0.0000E00
252.45	0.0000E00
252.82	0.0000E00
253.19	0.0000E00
253.56	0.0000E00
253.94	0.0000E00
254.31	0.0000E00
254.68	0.0000E00
255.05	0.0000E00
255.42	0.0000E00
255.79	0.0000E00
256.16	0.0000E00
256.54	0.0000E00
256.91	0.0000E00
257.28	0.0000E00
257.65	0.0000E00
258.02	0.0000E00
258.39	0.0000E00
258.76	0.0000E00
259.14	0.0000E00
259.51	0.0000E00
259.88	0.0000E00
260.25	0.0000E00
260.62	0.0000E00
260.99	0.0000E00
261.36	0.0000E00
261.73	0.0000E00
262.10	0.0000E00
262.47	0.0000E00
262.85	0.0000E00
263.22	0.0000E00
263.59	0.0000E00
263.96	0.0000E00
264.33	0.0000E00
264.70	0.0000E00
265.07	0.0000E00
265.44	0.0000E00
265.81	0.0000E00
266.18	0.0000E00
266.55	0.0000E00
266.92	0.0000E00
267.29	0.0000E00
267.66	0.0000E00
268.03	0.0000E00
268.40	0.0000E00
268.77	0.0000E00
269.14	0.0000E00
269.51	0.0000E00
269.88	0.0000E00
270.25	0.0000E00
270.62	0.0000E00
270.99	0.0000E00
271.36	0.0000E00
271.73	0.0000E00
272.10	0.0000E00
272.47	0.0000E00
272.84	0.0000E00
273.21	0.0000E00
273.58	0.0000E00
273.95	0.0000E00
274.32	0.0000E00
274.69	0.0000E00
275.06	0.0000E00
275.43	0.0000E00
275.80	0.0000E00
276.17	0.0000E00
276.54	0.0000E00
276.91	0.0000E00
277.28	0.0000E00
277.65	0.0000E00
278.02	0.0000E00
278.39	0.0000E00
278.76	0.0000E00
279.13	0.0000E00
279.50	0.0000E00
279.87	0.0000E00
280.23	0.0000E00
280.60	0.0000E00
280.97	0.0000E00
281.34	0.0000E00
281.71	0.0000E00
282.08	0.0000E00
282.45	0.0000E00
282.82	0.0000E00
283.19	0.0000E00
283.56	0.0000E00
283.92	0.0000E00
284.29	0.0000E00
284.66	0.0000E00
285.03	0.0000E00
285.40	0.0000E00
285.77	0.0000E00
286.14	0.0000E00
286.51	0.0000E00
286.87	0.0000E00
287.24	0.0000E00
287.61	0.0000E00
287.98	0.0000E00
288.35	0.0000E00
288.72	0.0000E00
289.08	0.0000E00
289.45	0.0000E00
289.82	0.0000E00
290.19	0.0000E00
290.56	0.0000E00
290.93	0.0000E00
291.29	0.0000E00
291.66	0.0000E00
292.03	0.0000E00
292.40	0.0000E00
292.77	0.0000E00
293.13	0.0000E00
293.50	0.0000E00
293.87	0.0000E00
294.24	0.0000E00
294.60	0.0000E00
294.97	0.0000E00
295.34	0.0000E00
295.71	0.0000E00
296.08	0.0000E00
296.44	0.0000E00
296.81	0.0000E00
297.18	0.0000E00
297.55	0.0000E00
297.91	0.0000E00
298.28	0.0000E00
298.65	0.0000E00
299.02	0.0000E00
299.38	0.0000E00
299.75	0.0000E00
300.12	7.0343E-01
300.48	1.7392E00
300.85	7.2978E-01
301.22	1.9576E00
301.59	5.9498E-01
301.95	7.0053E-01
302.32	1.0770E00
302.69	1.1007E00
303.05	6.7518E-01
303.42	9.1618E-01
303.79	1.0508E00
304.15	6.5573E-01
304.52	7.9534E-01
304.89	7.5503E-01
305.25	1.5036E00
305.62	9.9517E-01
305.99	1.1980E00
306.35	7.2865E-01
306.72	1.0025E00
307.09	8.4455E-01
307.45	8.8628E-01
307.82	6.5965E-01
308.19	8.4032E-01
308.55	9.9739E-01
308.92	1.1642E00
309.29	9.8363E-01
309.65	1.1072E00
310.02	9.0482E-01
310.38	9.5554E-01
310.75	1.2222E00
311.12	1.1240E00
311.48	1.8674E00
311.85	1.1652E00
312.22	8.0148E-01
312.58	1.8795E00
312.95	1.1322E00
313.31	1.0533E00
313.68	1.3621E00
314.05	2.2123E00
314.41	1.2052E00
314.78	7.1054E-01
315.14	1.1729E00
315.51	2.4622E00
315.87	1.0626E00
316.24	1.5785E00
316.61	1.4394E00
316.97	9.5231E-01
317.34	1.4629E00
317.70	1.1473E00
318.07	1.1561E00
318.43	1.3701E00
318.80	1.0249E00
319.16	1.2815E00
319.53	8.9773E-01
319.89	1.8100E00
320.26	1.3708E00
320.62	1.6586E00
320.99	1.4533E00
321.35	8.4343E-01
321.72	1.1336E00
322.08	1.8061E00
322.45	9.8655E-01
322.81	1.1611E00
323.18	3.5119E00
323.54	1.8628E00
323.91	1.4251E00
324.27	2.7600E00
324.64	2.0085E00
325.00	1.4543E00
325.37	2.4400E00
325.73	8.9796E-01
326.10	3.0849E00
326.46	1.4314E00
326.83	1.1690E00
327.19	2.5045E00
327.56	9.6703E-01
327.92	1.4029E00
328.29	1.1175E00
328.65	1.4654E00
329.01	1.7355E00
329.38	1.1254E00
329.74	1.0086E00
330.11	1.4746E00
330.47	9.8348E-01
330.84	1.4205E00
331.20	1.4198E00
331.56	1.3199E00
331.93	1.4710E00
332.29	1.3623E00
332.66	9.5242E-01
333.02	1.1527E00
333.38	1.7255E00
333.75	8.0556E-01
334.11	1.2591E00
334.48	1.2559E00
334.84	1.1754E00
335.20	1.4426E00
335.57	2.6761E00
335.93	1.7792E00
336.29	1.3824E00
336.66	1.3330E00
337.02	9.3120E-01
337.38	1.1631E00
337.75	1.1283E00
338.11	9.5496E-01
338.47	1.3322E00
338.84	1.0992E00
339.20	9.1379E-01
339.56	2.6840E00
339.93	8.3835E-01
340.29	9.9655E-01
340.65	1.0883E00
341.02	1.8234E00
341.38	1.2431E00
341.74	1.3380E00
342.11	1.3044E00
342.47	1.3151E00
342.83	7.2366E-01
343.20	1.6720E00
343.56	1.0118E00
343.92	1.4109E00
344.28	9.3844E-01
344.65	1.4886E00
345.01	8.7635E-01
345.37	1.4168E00
345.73	1.2622E00
346.10	1.0831E00
346.46	1.2862E00
346.82	9.8109E-01
347.19	2.2276E00
347.55	9.1700E-01
347.91	9.2460E-01
348.27	1.0383E00
348.63	9.0347E-01
349.00	8.9272E-01
349.36	1.7977E00
349.72	1.1213E00
350.08	1.6331E00
350.45	9.3425E-01
350.81	8.7022E-01
351.17	1.1459E00
351.53	1.2405E00
351.89	1.0126E00
352.26	1.1620E00
352.62	9.6138E-01
352.98	1.1182E00
353.34	9.8743E-01
353.70	1.3047E00
354.07	9.5698E-01
354.43	9.0830E-01
354.79	1.0671E00
355.15	8.5292E-01
355.51	8.1457E-01
355.87	9.2175E-01
356.24	9.6094E-01
356.60	9.2910E-01
356.96	1.0064E00
357.32	9.0548E-01
357.68	8.5090E-01
358.04	7.6678E-01
358.40	8.4716E-01
358.77	7.8866E-01
359.13	9.3276E-01
359.49	9.9199E-01
359.85	9.6464E-01
360.21	7.2577E-01
360.57	8.8547E-01
360.93	8.7944E-01
361.29	9.3230E-01
361.66	7.7421E-01
362.02	7.1371E-01
362.38	9.3041E-01
362.74	8.1015E-01
363.10	8.5453E-01
363.46	9.9363E-01
363.82	8.4953E-01
364.18	1.0169E00
364.54	9.6381E-01
364.90	9.1791E-01
365.26	9.0211E-01
365.62	1.0311E00
365.98	8.9931E-01
366.35	7.1964E-01
366.71	8.7197E-01
367.07	1.1175E00
367.43	7.0678E-01
367.79	1.0099E00
368.15	9.2606E-01
368.51	1.0968E00
368.87	9.5993E-01
369.23	1.0265E00
369.59	8.0635E-01
369.95	8.7304E-01
370.31	8.3336E-01
370.67	9.8561E-01
371.03	8.3125E-01
371.39	8.1364E-01
371.75	8.2125E-01
372.11	8.4735E-01
372.47	7.7913E-01
372.83	7.8728E-01
373.19	6.5738E-01
373.55	8.6174E-01
373.91	8.7882E-01
374.27	9.4878E-01
374.63	9.2399E-01
374.99	8.3913E-01
375.35	8.0736E-01
375.71	8.2259E-01
376.07	8.2948E-01
376.42	8.2063E-01
376.78	7.4392E-01
377.14	8.4338E-01
377.50	9.2067E-01
377.86	7.8417E-01
378.22	7.3973E-01
378.58	7.4075E-01
378.94	7.1797E-01
379.30	7.5403E-01
379.66	7.4320E-01
380.02	7.2758E-01
380.38	7.0696E-01
380.74	7.4091E-01
381.09	7.7754E-01
381.45	7.1686E-01
381.81	6.9325E-01
382.17	7.3058E-01
382.53	7.5962E-01
382.89	6.8047E-01
383.25	7.1479E-01
383.61	7.0725E-01
383.97	6.8679E-01
384.32	6.8413E-01
384.68	6.5351E-01
385.04	7.2517E-01
385.40	7.4716E-01
385.76	7.4455E-01
386.12	7.0025E-01
386.48	7.1152E-01
386.83	6.6356E-01
387.19	6.6246E-01
387.55	7.4050E-01
387.91	7.1595E-01
388.27	6.7022E-01
388.62	7.5287E-01
388.98	6.8247E-01
389.34	7.5676E-01
389.70	6.8661E-01
390.06	7.0890E-01
390.42	7.1551E-01
390.77	6.9759E-01
391.13	7.1213E-01
391.49	6.9925E-01
391.85	7.3739E-01
392.20	6.5120E-01
392.56	6.5992E-01
392.92	6.6927E-01
393.28	6.7185E-01
393.64	7.0196E-01
393.99	7.1571E-01
394.35	7.0318E-01
394.71	6.9488E-01
395.07	6.8092E-01
395.42	6.8381E-01
395.78	6.9635E-01
396.14	6.2829E-01
396.50	6.3108E-01
396.85	6.9381E-01
397.21	6.6792E-01
397.57	6.8654E-01
397.92	6.4168E-01
398.28	6.2093E-01
398.64	7.3826E-01
399.00	5.9511E-01
399.35	6.1926E-01
399.71	6.6361E-01
400.07	6.4800E-01
400.42	6.3319E-01
400.78	6.4864E-01
401.14	6.5163E-01
401.49	6.0409E-01
401.85	6.0007E-01
402.21	6.0999E-01
402.57	6.0663E-01
402.92	6.3941E-01
403.28	6.0800E-01
403.63	6.0486E-01
403.99	6.1898E-01
404.35	6.0092E-01
404.70	5.8986E-01
405.06	5.9906E-01
405.42	6.1257E-01
405.77	5.6965E-01
406.13	5.6903E-01
406.49	5.6513E-01
406.84	5.7226E-01
407.20	5.5837E-01
407.55	6.0263E-01
407.91	6.1321E-01
408.27	5.7457E-01
408.62	5.7775E-01
408.98	5.8472E-01
409.34	5.9512E-01
409.69	5.6892E-01
410.05	6.0005E-01
410.40	5.7276E-01
410.76	5.2958E-01
411.11	5.3509E-01
411.47	5.7954E-01
411.83	5.4897E-01
412.18	5.5993E-01
412.54	5.4891E-01
412.89	5.4529E-01
413.25	5.6588E-01
413.60	5.9052E-01
413.96	5.5373E-01
414.31	5.5712E-01
414.67	5.8802E-01
415.03	5.7642E-01
415.38	5.9071E-01
415.74	5.8343E-01
416.09	5.7984E-01
416.45	5.8816E-01
416.80	5.7630E-01
417.16	5.7132E-01
417.51	5.6850E-01
417.87	5.4753E-01
418.22	5.4091E-01
418.58	5.5307E-01
418.93	5.2912E-01
419.29	5.6709E-01
419.64	5.5023E-01
420.00	5.2029E-01
420.35	5.1100E-01
420.71	5.3612E-01
421.06	5.3811E-01
421.42	5.5250E-01
421.77	5.4383E-01
422.12	5.4271E-01
422.48	5.1433E-01
422.83	5.4933E-01
423.19	5.1937E-01
423.54	5.1976E-01
423.90	5.2601E-01
424.25	4.9653E-01
424.61	5.4790E-01
424.96	5.1251E-01
425.31	5.0938E-01
425.67	4.8807E-01
426.02	5.1020E-01
426.38	5.0962E-01
426.73	4.8304E-01
427.09	5.0576E-01
427.44	4.8454E-01
427.79	4.8982E-01
428.15	5.0470E-01
428.50	5.0104E-01
428.85	5.1334E-01
429.21	4.7391E-01
429.56	4.6383E-01
429.92	4.7291E-01
430.27	4.8869E-01
430.62	4.8786E-01
430.98	4.9382E-01
431.33	4.8260E-01
431.68	4.6681E-01
432.04	4.6318E-01
432.39	4.6987E-01
432.74	4.8714E-01
433.10	4.5661E-01
433.45	4.8335E-01
433.80	4.8081E-01
434.16	4.9134E-01
434.51	4.6745E-01
434.86	4.8682E-01
435.22	4.6941E-01
435.57	5.0168E-01
435.92	4.9179E-01
436.28	4.8956E-01
436.63	4.5380E-01
436.98	4.8506E-01
437.34	4.8203E-01
437.69	4.5838E-01
438.04	4.4617E-01
438.39	4.7736E-01
438.75	4.8897E-01
439.10	4.4112E-01
439.45	4.7922E-01
439.81	4.7374E-01
440.16	4.4547E-01
440.51	4.6519E-01
440.86	4.6398E-01
441.22	4.5354E-01
441.57	4.5805E-01
441.92	4.4456E-01
442.27	4.6642E-01
442.63	4.5685E-01
442.98	4.8766E-01
443.33	4.7706E-01
443.68	4.4404E-01
444.03	4.1903E-01
444.39	4.2114E-01
444.74	4.5710E-01
445.09	4.6382E-01
445.44	4.6438E-01
445.79	4.0978E-01
446.15	4.4083E-01
446.50	4.5564E-01
446.85	4.2845E-01
447.20	4.1698E-01
447.55	4.5080E-01
447.91	4.3364E-01
448.26	4.4455E-01
448.61	4.4078E-01
448.96	4.3191E-01
449.31	4.3821E-01
449.66	4.4238E-01
450.02	4.3565E-01
450.37	4.3582E-01
450.72	4.2977E-01
451.07	4.6371E-01
451.42	4.6056E-01
451.77	4.3491E-01
452.12	4.3470E-01
452.47	4.5498E-01
452.83	4.1813E-01
453.18	4.4236E-01
453.53	4.3744E-01
453.88	4.1202E-01
454.23	4.0684E-01
454.58	4.0686E-01
454.93	4.3674E-01
455.28	4.3402E-01
455.63	4.2168E-01
455.98	4.1205E-01
456.34	4.3376E-01
456.69	4.2052E-01
457.04	4.2393E-01
457.39	3.9769E-01
457.74	4.0622E-01
458.09	3.9540E-01
458.44	3.9461E-01
458.79	3.8607E-01
459.14	3.9921E-01
459.49	4.1557E-01
459.84	3.9272E-01
460.19	4.1764E-01
460.54	4.1480E-01
460.89	3.8255E-01
461.24	4.1863E-01
461.59	4.0056E-01
461.94	4.0580E-01
462.29	3.7972E-01
462.64	4.0154E-01
462.99	4.0532E-01
463.34	4.2876E-01
463.69	4.0157E-01
464.04	3.7474E-01
464.39	3.8916E-01
464.74	3.9444E-01
465.09	4.0549E-01
465.44	3.8207E-01
465.79	3.9390E-01
466.14	3.9537E-01
466.49	3.8891E-01
466.84	3.8537E-01
467.19	3.9864E-01
467.54	4.0020E-01
467.89	3.8049E-01
468.24	3.6114E-01
468.59	3.7301E-01
468.94	3.6558E-01
469.29	3.6740E-01
469.64	3.7938E-01
469.99	3.6578E-01
470.34	3.5409E-01
470.68	3.7689E-01
471.03	3.6369E-01
471.38	3.6467E-01
471.73	3.4736E-01
472.08	3.4310E-01
472.43	3.3124E-01
472.78	3.4943E-01
473.13	3.4582E-01
473.48	3.4004E-01
473.83	3.3370E-01
474.17	3.3880E-01
474.52	3.3476E-01
474.87	3.2121E-01
475.22	3.2809E-01
475.57	3.1198E-01
475.92	3.0410E-01
476.27	3.1322E-01
476.61	3.0462E-01
476.96	2.9673E-01
477.31	2.8799E-01
477.66	2.9350E-01
478.01	2.9168E-01
478.36	2.8995E-01
478.70	2.8588E-01
479.05	2.9047E-01
479.40	2.7697E-01
479.75	2.7378E-01
480.10	2.7580E-01
480.45	2.6933E-01
480.79	2.6800E-01
481.14	2.7166E-01
481.49	2.6502E-01
481.84	2.6041E-01
482.19	2.5869E-01
482.53	2.5809E-01
482.88	2.5593E-01
483.23	2.5155E-01
483.58	2.4642E-01
483.92	2.5257E-01
484.27	2.4447E-01
484.62	2.4309E-01
484.97	2.3784E-01
485.31	2.3679E-01
485.66	2.4177E-01
486.01	2.4183E-01
486.36	2.3028E-01
486.70	2.3650E-01
487.05	2.3506E-01
487.40	2.3528E-01
487.75	2.2823E-01
488.09	2.2858E-01
488.44	2.3060E-01
488.79	2.2720E-01
489.13	2.2441E-01
489.48	2.2729E-01
489.83	2.2762E-01
490.17	2.2160E-01
490.52	2.2170E-01
490.87	2.2258E-01
491.22	2.2565E-01
491.56	2.2236E-01
491.91	2.2542E-01
492.26	2.2275E-01
492.60	2.2283E-01
492.95	2.2477E-01
493.30	2.2450E-01
493.64	2.2179E-01
493.99	2.2284E-01
494.34	2.2002E-01
494.68	2.1784E-01
495.03	2.2338E-01
495.37	2.2134E-01
495.72	2.2356E-01
496.07	2.1857E-01
496.41	2.1998E-01
496.76	2.1846E-01
497.11	2.2069E-01
497.45	2.1964E-01
497.80	2.2010E-01
498.14	2.1990E-01
498.49	2.2047E-01
498.84	2.2092E-01
499.18	2.2048E-01
499.53	2.2038E-01
499.87	2.1823E-01
500.22	2.2088E-01
500.56	2.2044E-01
500.91	2.2019E-01
501.26	2.1967E-01
501.60	2.1941E-01
501.95	2.1773E-01
502.29	2.2049E-01
502.64	2.1658E-01
502.98	2.2014E-01
503.33	2.1823E-01
503.67	2.1855E-01
504.02	2.1792E-01
504.36	2.1766E-01
504.71	2.1856E-01
505.06	2.1626E-01
505.40	2.1661E-01
505.75	2.1786E-01
506.09	2.1797E-01
506.44	2.1776E-01
506.78	2.1564E-01
507.13	2.1686E-01
507.47	2.1520E-01
507.82	2.1500E-01
508.16	2.1702E-01
508.51	2.1491E-01
508.85	2.1237E-01
509.19	2.1504E-01
509.54	2.1483E-01
509.88	2.1502E-01
510.23	2.1191E-01
510.57	2.1278E-01
510.92	2.1228E-01
511.26	2.1245E-01
511.61	2.1228E-01
511.95	2.1261E-01
512.30	2.1124E-01
512.64	2.1295E-01
512.98	2.0914E-01
513.33	2.1065E-01
513.67	2.1093E-01
514.02	2.1030E-01
514.36	2.0851E-01
514.70	2.0982E-01
515.05	2.0752E-01
515.39	2.0915E-01
515.74	2.0730E-01
516.08	2.0613E-01
516.42	2.0791E-01
516.77	2.0839E-01
517.11	2.0860E-01
517.46	2.0962E-01
517.80	2.0654E-01
518.14	2.0774E-01
518.49	2.0596E-01
518.83	2.0661E-01
519.17	2.0679E-01
519.52	2.0714E-01
519.86	2.0585E-01
520.20	2.0505E-01
520.55	2.0570E-01
520.89	2.0465E-01
521.23	2.0668E-01
521.58	2.0627E-01
521.92	2.0776E-01
522.26	2.0875E-01
522.61	2.0551E-01
522.95	2.0712E-01
523.29	2.0414E-01
523.64	2.0449E-01
523.98	2.0543E-01
524.32	2.0602E-01
524.66	2.0772E-01
525.01	2.0766E-01
525.35	2.0835E-01
525.69	2.0900E-01
526.04	2.0837E-01
526.38	2.0533E-01
526.72	2.0951E-01
527.06	2.0809E-01
527.41	2.1006E-01
527.75	2.1178E-01
528.09	2.1028E-01
528.43	2.1341E-01
528.78	2.1105E-01
529.12	2.1301E-01
529.46	2.1469E-01
529.80	2.1379E-01
530.15	2.1449E-01
530.49	2.1449E-01
530.83	2.1556E-01
531.17	2.1579E-01
531.51	2.1497E-01
531.86	2.1685E-01
532.20	2.1774E-01
532.54	2.1736E-01
532.88	2.1860E-01
533.22	2.2071E-01
533.57	2.2166E-01
533.91	2.2107E-01
534.25	2.2306E-01
534.59	2.2171E-01
534.93	2.2354E-01
535.27	2.2262E-01
535.62	2.2674E-01
535.96	2.2599E-01
536.30	2.2642E-01
536.64	2.2686E-01
536.98	2.2869E-01
537.32	2.2818E-01
537.66	2.2803E-01
538.01	2.3053E-01
538.35	2.3247E-01
538.69	2.2943E-01
539.03	2.3534E-01
539.37	2.3279E-01
539.71	2.3461E-01
540.05	2.3493E-01
540.39	2.3590E-01
540.73	2.3464E-01
541.07	2.3525E-01
541.42	2.3584E-01
541.76	2.3602E-01
542.10	2.3712E-01
542.44	2.3829E-01
542.78	2.3850E-01
543.12	2.3779E-01
543.46	2.4300E-01
543.80	2.3998E-01
544.14	2.4015E-01
544.48	2.3889E-01
544.82	2.4179E-01
545.16	2.4220E-01
545.50	2.4071E-01
545.84	2.4298E-01
546.18	2.4127E-01
546.52	2.4410E-01
546.86	2.4210E-01
547.20	2.4542E-01
547.54	2.4824E-01
547.88	2.4388E-01
548.22	2.4443E-01
548.56	2.4556E-01
548.90	2.4394E-01
549.24	2.4618E-01
549.58	2.4685E-01
549.92	2.4518E-01
550.26	2.4930E-01
550.60	2.4576E-01
550.94	2.4458E-01
551.28	2.4796E-01
551.62	2.4610E-01
551.96	2.4864E-01
552.30	2.5002E-01
552.64	2.4864E-01
552.98	2.4877E-01
553.32	2.4938E-01
553.66	2.4787E-01
554.00	2.4839E-01
554.34	2.4914E-01
554.68	2.5015E-01
555.02	2.5050E-01
555.36	2.5146E-01
555.69	2.5029E-01
556.03	2.5025E-01
556.37	2.5134E-01
556.71	2.4919E-01
557.05	2.4894E-01
557.39	2.4946E-01
557.73	2.4966E-01
558.07	2.5166E-01
558.41	2.5050E-01
558.75	2.5099E-01
559.08	2.5108E-01
559.42	2.4883E-01
559.76	2.5243E-01
560.10	2.5203E-01
560.44	2.5223E-01
560.78	2.4974E-01
561.12	2.5139E-01
561.45	2.5064E-01
561.79	2.5170E-01
562.13	2.5181E-01
562.47	2.5219E-01
562.81	2.5240E-01
563.15	2.5231E-01
563.48	2.5283E-01
563.82	2.4960E-01
564.16	2.5197E-01
564.50	2.5221E-01
564.84	2.5260E-01
565.17	2.5289E-01
565.51	2.5224E-01
565.85	2.5443E-01
566.19	2.5134E-01
566.52	2.5488E-01
566.86	2.5184E-01
567.20	2.5443E-01
567.54	2.5336E-01
567.88	2.5371E-01
568.21	2.5356E-01
568.55	2.5498E-01
568.89	2.5512E-01
569.23	2.5497E-01
569.56	2.5435E-01
569.90	2.5525E-01
570.24	2.5716E-01
570.57	2.5697E-01
570.91	2.5736E-01
571.25	2.5397E-01
571.59	2.5698E-01
571.92	2.5681E-01
572.26	2.5759E-01
572.60	2.5985E-01
572.93	2.5858E-01
573.27	2.6082E-01
573.61	2.6137E-01
573.95	2.5738E-01
574.28	2.6175E-01
574.62	2.6209E-01
574.96	2.6226E-01
575.29	2.6150E-01
575.63	2.6586E-01
575.97	2.6497E-01
576.30	2.7111E-01
576.64	2.6758E-01
576.98	2.6714E-01
577.31	2.6862E-01
577.65	2.7126E-01
577.98	2.6939E-01
578.32	2.7170E-01
578.66	2.7303E-01
578.99	2.7349E-01
579.33	2.7461E-01
579.67	2.7274E-01
580.00	2.7624E-01
580.34	2.7555E-01
580.67	2.7710E-01
581.01	2.7933E-01
581.35	2.8058E-01
581.68	2.8167E-01
582.02	2.8044E-01
582.35	2.8259E-01
582.69	2.8261E-01
583.02	2.8705E-01
583.36	2.8449E-01
583.70	2.8375E-01
584.03	2.8576E-01
584.37	2.8422E-01
584.70	2.8981E-01
585.04	2.8991E-01
585.37	2.8843E-01
585.71	2.9302E-01
586.04	2.9195E-01
586.38	2.9001E-01
586.72	2.9397E-01
587.05	2.9539E-01
587.39	2.9650E-01
587.72	2.9433E-01
588.06	2.9699E-01
588.39	2.9649E-01
588.73	2.9964E-01
589.06	2.9761E-01
589.40	3.0207E-01
589.73	3.0366E-01
590.07	3.0428E-01
590.40	3.0436E-01
590.73	3.0823E-01
591.07	3.0497E-01
591.40	3.1169E-01
591.74	3.0466E-01
592.07	3.0886E-01
592.41	3.1035E-01
592.74	3.1127E-01
593.08	3.0951E-01
593.41	3.1144E-01
593.75	3.0913E-01
594.08	3.1385E-01
594.41	3.1257E-01
594.75	3.1384E-01
595.08	3.1320E-01
595.42	3.0979E-01
595.75	3.1481E-01
596.09	3.1491E-01
596.42	3.1324E-01
596.75	3.1707E-01
597.09	3.1847E-01
597.42	3.1543E-01
597.75	3.1919E-01
598.09	3.2005E-01
598.42	3.1759E-01
598.76	3.1954E-01
599.09	3.2380E-01
599.42	3.2353E-01
599.76	3.2217E-01
600.09	3.2111E-01
600.42	3.2598E-01
600.76	3.1956E-01
601.09	3.2339E-01
601.42	3.2687E-01
601.76	3.2278E-01
602.09	3.2236E-01
602.42	3.2426E-01
602.76	3.2318E-01
603.09	3.2237E-01
603.42	3.2826E-01
603.76	3.2449E-01
604.09	3.2451E-01
604.42	3.2675E-01
604.76	3.2447E-01
605.09	3.2948E-01
605.42	3.2630E-01
605.75	3.2780E-01
606.09	3.2620E-01
606.42	3.2731E-01
606.75	3.2903E-01
607.09	3.2929E-01
607.42	3.2958E-01
607.75	3.2988E-01
608.08	3.2958E-01
608.42	3.3199E-01
608.75	3.2826E-01
609.08	3.3236E-01
609.41	3.3174E-01
609.75	3.2989E-01
610.08	3.3167E-01
610.41	3.3373E-01
610.74	3.3307E-01
611.07	3.3285E-01
611.41	3.3215E-01
611.74	3.3365E-01
612.07	3.3558E-01
612.40	3.3047E-01
612.73	3.3384E-01
613.07	3.3593E-01
613.40	3.3242E-01
613.73	3.3146E-01
614.06	3.3432E-01
614.39	3.3553E-01
614.72	3.3641E-01
615.06	3.3598E-01
615.39	3.3989E-01
615.72	3.3428E-01
616.05	3.3789E-01
616.38	3.3901E-01
616.71	3.3963E-01
617.05	3.3770E-01
617.38	3.3961E-01
617.71	3.3730E-01
618.04	3.3928E-01
618.37	3.3719E-01
618.70	3.3848E-01
619.03	3.3961E-01
619.36	3.3416E-01
619.69	3.4088E-01
620.03	3.3735E-01
620.36	3.3841E-01
620.69	3.3691E-01
621.02	3.3957E-01
621.35	3.3843E-01
621.68	3.3560E-01
622.01	3.3452E-01
622.34	3.3640E-01
622.67	3.3565E-01
623.00	3.3708E-01
623.33	3.3744E-01
623.66	3.3522E-01
623.99	3.3584E-01
624.32	3.3486E-01
624.65	3.3583E-01
624.99	3.3600E-01
625.32	3.3703E-01
625.65	3.3635E-01
625.98	3.3138E-01
626.31	3.3585E-01
626.64	3.3639E-01
626.97	3.3695E-01
627.30	3.3444E-01
627.63	3.3632E-01
627.96	3.3361E-01
628.29	3.3324E-01
628.62	3.3639E-01
628.95	3.3623E-01
629.28	3.3089E-01
629.61	3.4147E-01
629.94	3.3666E-01
630.26	3.3691E-01
630.59	3.3887E-01
630.92	3.3703E-01
631.25	3.3876E-01
631.58	3.4241E-01
631.91	3.3776E-01
632.24	3.4480E-01
632.57	3.4152E-01
632.90	3.4191E-01
633.23	3.4240E-01
633.56	3.4417E-01
633.89	3.4470E-01
634.22	3.4577E-01
634.55	3.4706E-01
634.88	3.5077E-01
635.20	3.4982E-01
635.53	3.5259E-01
635.86	3.5257E-01
636.19	3.5675E-01
636.52	3.5790E-01
636.85	3.5491E-01
637.18	3.5916E-01
637.51	3.5640E-01
637.83	3.6000E-01
638.16	3.5674E-01
638.49	3.6734E-01
638.82	3.6567E-01
639.15	3.6835E-01
639.48	3.7124E-01
639.81	3.7315E-01
640.13	3.6965E-01
640.46	3.7534E-01
640.79	3.7498E-01
641.12	3.7870E-01
641.45	3.7782E-01
641.77	3.7558E-01
642.10	3.8433E-01
642.43	3.8536E-01
642.76	3.8698E-01
643.09	3.8461E-01
643.41	3.8770E-01
643.74	3.8833E-01
644.07	3.8825E-01
644.40	3.9113E-01
644.73	3.9533E-01
645.05	3.9705E-01
645.38	3.9994E-01
645.71	4.0093E-01
646.04	4.0071E-01
646.36	4.0033E-01
646.69	4.0666E-01
647.02	4.0674E-01
647.35	4.0404E-01
647.67	4.0952E-01
648.00	4.0835E-01
648.33	4.1330E-01
648.66	4.1080E-01
648.98	4.1659E-01
649.31	4.1517E-01
649.64	4.1717E-01
649.96	4.2118E-01
650.29	4.2330E-01
650.62	4.2341E-01
650.94	4.2324E-01
651.27	4.2286E-01
651.60	4.2401E-01
651.92	4.3128E-01
652.25	4.3188E-01
652.58	4.3112E-01
652.90	4.3339E-01
653.23	4.3351E-01
653.56	4.3512E-01
653.88	4.3691E-01
654.21	4.3690E-01
654.54	4.3926E-01
654.86	4.4425E-01
655.19	4.3934E-01
655.52	4.4605E-01
655.84	4.4506E-01
656.17	4.4748E-01
656.49	4.5258E-01
656.82	4.4716E-01
657.15	4.5224E-01
657.47	4.5201E-01
657.80	4.5259E-01
658.13	4.5400E-01
658.45	4.5721E-01
658.78	4.5554E-01
659.10	4.6119E-01
659.43	4.6082E-01
659.75	4.5964E-01
660.08	4.5793E-01
660.41	4.6387E-01
660.73	4.6438E-01
661.06	4.6771E-01
661.38	4.6619E-01
661.71	4.6769E-01
662.03	4.6842E-01
662.36	4.7409E-01
662.68	4.7296E-01
663.01	4.6734E-01
663.33	4.7147E-01
663.66	4.7529E-01
663.98	4.7221E-01
664.31	4.7274E-01
664.63	4.8170E-01
664.96	4.7890E-01
665.28	4.8243E-01
665.61	4.8157E-01
665.93	4.8225E-01
666.26	4.8458E-01
666.58	4.8535E-01
666.91	4.8214E-01
667.23	4.8750E-01
667.56	4.8157E-01
667.88	4.8953E-01
668.21	4.8895E-01
668.53	4.8699E-01
668.86	4.9662E-01
669.18	4.8914E-01
669.50	5.0021E-01
669.83	4.9877E-01
670.15	4.9978E-01
670.48	4.9879E-01
670.80	4.9705E-01
671.13	4.9452E-01
671.45	5.0074E-01
671.77	5.0310E-01
672.10	4.9995E-01
672.42	5.0729E-01
672.75	5.0444E-01
673.07	5.0848E-01
673.39	5.0368E-01
673.72	5.0689E-01
674.04	5.1076E-01
674.37	5.1470E-01
674.69	5.1090E-01
675.01	5.1509E-01
675.34	5.1652E-01
675.66	5.1782E-01
675.98	5.1263E-01
676.31	5.2108E-01
676.63	5.2232E-01
676.95	5.1955E-01
677.28	5.2366E-01
677.60	5.2361E-01
677.92	5.2205E-01
678.25	5.2786E-01
678.57	5.2866E-01
678.89	5.2651E-01
679.22	5.3496E-01
679.54	5.3233E-01
679.86	5.3233E-01
680.18	5.3486E-01
680.51	5.3625E-01
680.83	5.4145E-01
681.15	5.3582E-01
681.48	5.3954E-01
681.80	5.4320E-01
682.12	5.3999E-01
682.44	5.4889E-01
682.77	5.4881E-01
683.09	5.5249E-01
683.41	5.4948E-01
683.73	5.5531E-01
684.06	5.5413E-01
684.38	5.5586E-01
684.70	5.5464E-01
685.02	5.5989E-01
685.34	5.6587E-01
685.67	5.6104E-01
685.99	5.6824E-01
686.31	5.6398E-01
686.63	5.7307E-01
686.96	5.6989E-01
687.28	5.7706E-01
687.60	5.6891E-01
687.92	5.7584E-01
688.24	5.8137E-01
688.56	5.8228E-01
688.89	5.8434E-01
689.21	5.8185E-01
689.53	5.8404E-01
689.85	5.9327E-01
690.17	5.8901E-01
690.49	5.9803E-01
690.82	5.9771E-01
691.14	5.9783E-01
691.46	6.0123E-01
691.78	6.0507E-01
692.10	5.9838E-01
692.42	6.0500E-01
692.74	6.1017E-01
693.06	6.1085E-01
693.39	6.2170E-01
693.71	6.2260E-01
694.03	6.2253E-01
694.35	6.2418E-01
694.67	6.2635E-01
694.99	6.3250E-01
695.31	6.3474E-01
695.63	6.3377E-01
695.95	6.3912E-01
696.27	6.3721E-01
696.59	6.4251E-01
696.91	6.5180E-01
697.23	6.5085E-01
697.56	6.4948E-01
697.88	6.5612E-01
698.20	6.5593E-01
698.52	6.6232E-01
698.84	6.6698E-01
699.16	6.7193E-01
699.48	6.6537E-01
699.80	6.7383E-01
700.12	6.8020E-01
700.44	6.8136E-01
700.76	6.8201E-01
701.08	6.8729E-01
701.40	6.8968E-01
701.72	6.9730E-01
702.04	6.9616E-01
702.36	7.0237E-01
702.68	7.0557E-01
703.00	7.1067E-01
703.32	7.1431E-01
703.64	7.1481E-01
703.96	7.0832E-01
704.28	7.1882E-01
704.60	7.2699E-01
704.91	7.2946E-01
705.23	7.3064E-01
705.55	7.3840E-01
705.87	7.3346E-01
706.19	7.3637E-01
706.51	7.4116E-01
706.83	7.4441E-01
707.15	7.6428E-01
707.47	7.4807E-01
707.79	7.6172E-01
708.11	7.6456E-01
708.43	7.6778E-01
708.74	7.7432E-01
709.06	7.8502E-01
709.38	7.8053E-01
709.70	7.7570E-01
710.02	7.8623E-01
710.34	7.8288E-01
710.66	8.0317E-01
710.98	7.9875E-01
711.29	7.9795E-01
711.61	8.1208E-01
711.93	8.1643E-01
712.25	8.1030E-01
712.57	8.2137E-01
712.89	8.2440E-01
713.20	8.2548E-01
713.52	8.3384E-01
713.84	8.4085E-01
714.16	8.3444E-01
714.48	8.3669E-01
714.80	8.5078E-01
715.11	8.4776E-01
715.43	8.6056E-01
715.75	8.6572E-01
716.07	8.7486E-01
716.39	8.5820E-01
716.70	8.6957E-01
717.02	8.6421E-01
717.34	8.9075E-01
717.66	8.8125E-01
717.97	8.9287E-01
718.29	8.9733E-01
718.61	9.0962E-01
718.93	9.0883E-01
719.24	9.1158E-01
719.56	9.3063E-01
719.88	9.2194E-01
720.20	9.3484E-01
720.51	9.4640E-01
720.83	9.4239E-01
721.15	9.6202E-01
721.46	9.5875E-01
721.78	9.6433E-01
722.10	9.7859E-01
722.42	9.8760E-01
722.73	9.9321E-01
723.05	9.8163E-01
723.37	9.9579E-01
723.68	1.0062E00
724.00	1.0057E00
724.32	1.0235E00
724.63	1.0216E00
724.95	1.0162E00
725.27	1.0255E00
725.58	1.0325E00
725.90	1.0322E00
726.22	1.0487E00
726.53	1.0269E00
726.85	1.0419E00
727.16	1.0630E00
727.48	1.0452E00
727.80	1.0561E00
728.11	1.0607E00
728.43	1.0589E00
728.74	1.0533E00
729.06	1.0732E00
729.38	1.0691E00
729.69	1.0741E00
730.01	1.0829E00
730.32	1.0892E00
730.64	1.0886E00
730.96	1.0774E00
731.27	1.1076E00
731.59	1.0819E00
731.90	1.0957E00
732.22	1.1043E00
732.53	1.1011E00
732.85	1.1145E00
733.16	1.1112E00
733.48	1.1183E00
733.80	1.1117E00
734.11	1.1320E00
734.43	1.1318E00
734.74	1.1314E00
735.06	1.1450E00
735.37	1.1528E00
735.69	1.1383E00
736.00	1.1522E00
736.32	1.1537E00
736.63	1.1609E00
736.95	1.1595E00
737.26	1.1817E00
737.58	1.1799E00
737.89	1.1890E00
738.21	1.1761E00
738.52	1.1840E00
738.83	1.1872E00
739.15	1.1864E00
739.46	1.2048E00
739.78	1.2002E00
740.09	1.2147E00
740.41	1.2081E00
740.72	1.2039E00
741.04	1.2043E00
741.35	1.2067E00
741.66	1.2283E00
741.98	1.2210E00
742.29	1.2279E00
742.61	1.2209E00
742.92	1.2244E00
743.23	1.2247E00
743.55	1.2338E00
743.86	1.2243E00
744.18	1.2312E00
744.49	1.2327E00
744.80	1.2307E00
745.12	1.2325E00
745.43	1.2363E00
745.74	1.2357E00
746.06	1.2266E00
746.37	1.2248E00
746.68	1.2348E00
747.00	1.2323E00
747.31	1.2229E00
747.62	1.2154E00
747.94	1.2356E00
748.25	1.2357E00
748.56	1.2375E00
748.88	1.2201E00
749.19	1.2290E00
749.50	1.2322E00
749.82	1.2244E00
750.13	1.2321E00
750.44	1.2323E00
750.75	1.2176E00
751.07	1.2350E00
751.38	1.2433E00
751.69	1.2189E00
752.01	1.2366E00
752.32	1.2347E00
752.63	1.2364E00
752.94	1.2433E00
753.26	1.2496E00
753.57	1.2360E00
753.88	1.2440E00
754.19	1.2456E00
754.51	1.2496E00
754.82	1.2442E00
755.13	1.2590E00
755.44	1.2575E00
755.75	1.2617E00
756.07	1.2613E00
756.38	1.2757E00
756.69	1.2718E00
757.00	1.2800E00
757.31	1.2956E00
757.63	1.3029E00
757.94	1.3052E00
758.25	1.3191E00
758.56	1.2868E00
758.87	1.3317E00
759.18	1.3347E00
759.50	1.3322E00
759.81	1.3270E00
760.12	1.3352E00
760.43	1.3464E00
760.74	1.3414E00
761.05	1.3697E00
761.36	1.3727E00
761.67	1.3835E00
761.99	1.3930E00
762.30	1.3731E00
762.61	1.4042E00
762.92	1.4021E00
763.23	1.4032E00
763.54	1.4192E00
763.85	1.4418E00
764.16	1.4436E00
764.47	1.4624E00
764.78	1.4735E00
765.10	1.4738E00
765.41	1.4752E00
765.72	1.4853E00
766.03	1.5191E00
766.34	1.5287E00
766.65	1.5384E00
766.96	1.5692E00
767.27	1.5582E00
767.58	1.5598E00
767.89	1.5762E00
768.20	1.6011E00
768.51	1.6017E00
768.82	1.6058E00
769.13	1.6361E00
769.44	1.6573E00
769.75	1.6557E00
770.06	1.6593E00
770.37	1.6577E00
770.68	1.6980E00
770.99	1.7115E00
771.30	1.7190E00
771.61	1.7730E00
771.92	1.7339E00
772.23	1.7543E00
772.54	1.7940E00
772.85	1.7765E00
773.16	1.7951E00
773.47	1.8492E00
773.78	1.8337E00
774.09	1.8635E00
774.39	1.8682E00
774.70	1.8724E00
775.01	1.9107E00
775.32	1.9186E00
775.63	1.9417E00
775.94	1.9609E00
776.25	1.9492E00
776.56	1.9675E00
776.87	2.0208E00
777.18	2.0147E00
777.48	2.0339E00
777.79	2.0528E00
778.10	2.0703E00
778.41	2.0876E00
778.72	2.1105E00
779.03	2.1206E00
779.34	2.1653E00
779.65	2.1675E00
779.95	2.2084E00
780.26	2.1902E00
780.57	2.2282E00
780.88	2.2231E00
781.19	2.2631E00
781.50	2.2662E00
781.80	2.2858E00
782.11	2.2894E00
782.42	2.3453E00
782.73	2.3001E00
783.04	2.3904E00
783.34	2.3894E00
783.65	2.4089E00
783.96	2.4173E00
784.27	2.4299E00
784.57	2.4501E00
784.88	2.4803E00
785.19	2.4901E00
785.50	2.5178E00
785.81	2.5514E00
786.11	2.5162E00
786.42	2.5461E00
786.73	2.5715E00
787.04	2.6029E00
787.34	2.6518E00
787.65	2.6639E00
787.96	2.7244E00
788.26	2.7048E00
788.57	2.7606E00
788.88	2.7274E00
789.19	2.8108E00
789.49	2.7828E00
789.80	2.8376E00
790.11	2.8424E00
790.41	2.8714E00
790.72	2.8998E00
791.03	2.9124E00
791.33	2.9417E00
791.64	3.0100E00
791.95	2.9520E00
792.25	3.0501E00
792.56	3.0206E00
792.87	3.0674E00
793.17	3.0856E00
793.48	3.1018E00
793.79	3.1320E00
794.09	3.1908E00
794.40	3.1473E00
794.70	3.1573E00
795.01	3.1701E00
795.32	3.2120E00
795.62	3.2758E00
795.93	3.2827E00
796.23	3.2909E00
796.54	3.3352E00
796.85	3.3204E00
797.15	3.3626E00
797.46	3.3900E00
797.76	3.4795E00
798.07	3.4641E00
798.37	3.4716E00
798.68	3.5259E00
798.99	3.5231E00
799.29	3.5587E00
799.60	3.6190E00
799.90	3.6220E00
800.21	3.6755E00
800.51	3.6999E00
800.82	3.6952E00
801.12	3.7634E00
801.43	3.7513E00
801.73	3.8338E00
802.04	3.8233E00
802.34	3.8200E00
802.65	3.8653E00
802.95	3.9954E00
803.26	3.9663E00
803.56	3.8978E00
803.87	3.9590E00
804.17	3.9873E00
804.48	3.9862E00
804.78	4.0556E00
805.09	4.1266E00
805.39	4.1002E00
805.70	4.1240E00
806.00	4.1856E00
806.30	4.1772E00
806.61	4.2412E00
806.91	4.2673E00
807.22	4.3104E00
807.52	4.3315E00
807.83	4.3518E00
808.13	4.4075E00
808.43	4.3157E00
808.74	4.4391E00
809.04	4.4760E00
809.35	4.4549E00
809.65	4.5618E00
809.95	4.5830E00
810.26	4.6351E00
810.56	4.6524E00
810.86	4.7161E00
811.17	4.7538E00
811.47	4.7421E00
811.77	4.7446E00
812.08	4.7394E00
812.38	4.8870E00
812.69	4.7894E00
812.99	4.9464E00
813.29	4.9721E00
813.59	5.0110E00
813.90	5.0293E00
814.20	5.0325E00
814.50	5.1022E00
814.81	5.0411E00
815.11	5.1634E00
815.41	5.2938E00
815.72	5.2291E00
816.02	5.2612E00
816.32	5.2766E00
816.62	5.2386E00
816.93	5.3370E00
817.23	5.4989E00
817.53	5.3998E00
817.84	5.5061E00
818.14	5.5028E00
818.44	5.4874E00
818.74	5.6463E00
819.04	5.7536E00
819.35	5.6844E00
819.65	5.7276E00
819.95	5.8823E00
820.25	5.8817E00
820.56	5.8750E00
820.86	5.9480E00
821.16	5.9969E00
821.46	5.9958E00
821.76	6.0269E00
822.07	5.9872E00
822.37	6.0875E00
822.67	6.1890E00
822.97	6.2288E00
823.27	6.2166E00
823.57	6.3137E00
823.88	6.2844E00
824.18	6.3913E00
824.48	6.3744E00
824.78	6.4608E00
825.08	6.4343E00
825.38	6.5393E00
825.69	6.5406E00
825.99	6.6353E00
826.29	6.6735E00
826.59	6.6452E00
826.89	6.7638E00
827.19	6.5969E00
827.49	7.0328E00
827.79	6.9304E00
828.09	6.8703E00
828.39	7.0336E00
828.70	7.0126E00
829.00	7.0021E00
829.30	7.1294E00
829.60	7.2399E00
829.90	7.1340E00
830.20	7.0854E00
830.50	7.4003E00
830.80	7.4445E00
831.10	7.2931E00
831.40	7.5529E00
831.70	7.4708E00
832.00	7.5149E00
832.30	7.7332E00
832.60	7.6253E00
832.90	7.7652E00
833.20	7.9119E00
833.50	7.7397E00
833.80	7.8734E00
834.10	7.9529E00
834.40	7.8176E00
834.70	7.9914E00
835.00	8.0443E00
835.30	8.0070E00
835.60	8.1369E00
835.90	8.2002E00
836.20	8.4015E00
836.50	8.3929E00
836.80	8.3983E00
837.10	8.3486E00
837.40	8.5079E00
837.70	8.5637E00
838.00	8.5595E00
838.30	8.5267E00
838.60	8.8650E00
838.90	8.8503E00
839.19	8.7625E00
839.49	9.1025E00
839.79	8.9868E00
840.09	9.0845E00
840.39	8.9389E00
840.69	9.1083E00
840.99	9.6177E00
841.29	9.4681E00
841.59	9.4842E00
841.88	9.5333E00
842.18	9.5980E00
842.48	9.8344E00
842.78	9.7738E00
843.08	9.8973E00
843.38	9.7518E00
843.68	1.0059E01
843.97	1.0096E01
844.27	1.0132E01
844.57	1.0316E01
844.87	1.0372E01
845.17	1.0266E01
845.47	1.0136E01
845.76	1.0437E01
846.06	1.0619E01
846.36	1.0517E01
846.66	1.0741E01
846.96	1.0673E01
847.25	1.0706E01
847.55	1.0782E01
847.85	1.1063E01
848.15	1.0877E01
848.44	1.1227E01
848.74	1.0965E01
849.04	1.1257E01
849.34	1.1321E01
849.63	1.1566E01
849.93	1.1511E01
850.23	1.1981E01
850.53	1.1480E01
850.82	1.1782E01
851.12	1.1765E01
851.42	1.1635E01
851.71	1.1949E01
852.01	1.2203E01
852.31	1.2420E01
852.61	1.2491E01
852.90	1.2499E01
853.20	1.2619E01
853.50	1.2808E01
853.79	1.3150E01
854.09	1.2666E01
854.39	1.2869E01
854.68	1.3570E01
854.98	1.3383E01
855.28	1.3356E01
855.57	1.3495E01
855.87	1.3537E01
856.17	1.3609E01
856.46	1.3595E01
856.76	1.3719E01
857.05	1.3966E01
857.35	1.4072E01
857.65	1.3901E01
857.94	1.4264E01
858.24	1.4217E01
858.53	1.4569E01
858.83	1.4515E01
859.13	1.4770E01
859.42	1.4605E01
859.72	1.5121E01
860.01	1.5660E01
860.31	1.5279E01
860.60	1.5635E01
860.90	1.5605E01
861.20	1.5829E01
861.49	1.5560E01
861.79	1.6276E01
862.08	1.6314E01
862.38	1.6617E01
862.67	1.6548E01
862.97	1.6680E01
863.26	1.6520E01
863.56	1.7430E01
863.85	1.7304E01
864.15	1.7092E01
864.44	1.7689E01
864.74	1.7505E01
865.03	1.7636E01
865.33	1.7798E01
865.62	1.8225E01
865.92	1.8016E01
866.21	1.9217E01
866.51	1.9060E01
866.80	1.8990E01
867.10	1.9380E01
867.39	1.9071E01
867.69	1.9842E01
867.98	1.9025E01
868.27	1.9672E01
868.57	1.9715E01
868.86	2.0870E01
869.16	2.0563E01
869.45	2.0685E01
869.75	2.0151E01
870.04	2.1013E01
870.33	2.1237E01
870.63	2.1006E01
870.92	2.2010E01
871.22	2.2320E01
871.51	2.1928E01
871.80	2.2226E01
872.10	2.2226E01
>>>>>End Processed Spectral Data<<<<<
