SpectraSuite Data File
++++++++++++++++++++++++++++++++++++
Date: Fri May 15 10:59:39 PDT 2015
User: schluterlab
Dark Spectrum Present: Yes
Reference Spectrum Present: No
Number of Sampled Component Spectra: 1
Spectrometers: USB2E3373
Integration Time (usec): 2300000 (USB2E3373)
Spectra Averaged: 3 (USB2E3373)
Boxcar Smoothing: 0 (USB2E3373)
Correct for Electrical Dark: No (USB2E3373)
Strobe/Lamp Enabled: No (USB2E3373)
Correct for Detector Non-linearity: No (USB2E3373)
Correct for Stray Light: No (USB2E3373)
Number of Pixels in Processed Spectrum: 2048
>>>>>Begin Processed Spectral Data<<<<<
178.53	-0.0000E00
178.91	-0.0000E00
179.29	-0.0000E00
179.67	-0.0000E00
180.04	-0.0000E00
180.42	0.0000E00
180.80	0.0000E00
181.18	0.0000E00
181.56	0.0000E00
181.94	0.0000E00
182.31	0.0000E00
182.69	0.0000E00
183.07	0.0000E00
183.45	0.0000E00
183.83	0.0000E00
184.20	0.0000E00
184.58	0.0000E00
184.96	0.0000E00
185.34	0.0000E00
185.72	0.0000E00
186.09	0.0000E00
186.47	0.0000E00
186.85	0.0000E00
187.23	0.0000E00
187.61	-0.0000E00
187.98	0.0000E00
188.36	0.0000E00
188.74	0.0000E00
189.12	0.0000E00
189.49	0.0000E00
189.87	0.0000E00
190.25	0.0000E00
190.63	0.0000E00
191.00	0.0000E00
191.38	0.0000E00
191.76	0.0000E00
192.14	0.0000E00
192.51	0.0000E00
192.89	0.0000E00
193.27	0.0000E00
193.65	0.0000E00
194.02	0.0000E00
194.40	0.0000E00
194.78	0.0000E00
195.15	0.0000E00
195.53	0.0000E00
195.91	0.0000E00
196.29	0.0000E00
196.66	0.0000E00
197.04	0.0000E00
197.42	0.0000E00
197.79	0.0000E00
198.17	0.0000E00
198.55	0.0000E00
198.92	0.0000E00
199.30	0.0000E00
199.68	0.0000E00
200.05	0.0000E00
200.43	0.0000E00
200.81	0.0000E00
201.18	0.0000E00
201.56	0.0000E00
201.94	0.0000E00
202.31	0.0000E00
202.69	0.0000E00
203.07	0.0000E00
203.44	0.0000E00
203.82	0.0000E00
204.19	0.0000E00
204.57	0.0000E00
204.95	0.0000E00
205.32	0.0000E00
205.70	0.0000E00
206.08	0.0000E00
206.45	0.0000E00
206.83	0.0000E00
207.20	0.0000E00
207.58	0.0000E00
207.96	0.0000E00
208.33	0.0000E00
208.71	0.0000E00
209.08	0.0000E00
209.46	0.0000E00
209.84	0.0000E00
210.21	0.0000E00
210.59	0.0000E00
210.96	0.0000E00
211.34	0.0000E00
211.71	0.0000E00
212.09	0.0000E00
212.46	0.0000E00
212.84	0.0000E00
213.22	0.0000E00
213.59	0.0000E00
213.97	0.0000E00
214.34	0.0000E00
214.72	0.0000E00
215.09	0.0000E00
215.47	0.0000E00
215.84	0.0000E00
216.22	0.0000E00
216.59	0.0000E00
216.97	0.0000E00
217.34	0.0000E00
217.72	0.0000E00
218.09	0.0000E00
218.47	0.0000E00
218.84	0.0000E00
219.22	0.0000E00
219.59	0.0000E00
219.97	0.0000E00
220.34	0.0000E00
220.72	0.0000E00
221.09	0.0000E00
221.47	0.0000E00
221.84	0.0000E00
222.22	0.0000E00
222.59	0.0000E00
222.97	0.0000E00
223.34	0.0000E00
223.72	0.0000E00
224.09	0.0000E00
224.46	0.0000E00
224.84	0.0000E00
225.21	0.0000E00
225.59	0.0000E00
225.96	0.0000E00
226.34	0.0000E00
226.71	0.0000E00
227.08	0.0000E00
227.46	0.0000E00
227.83	0.0000E00
228.21	0.0000E00
228.58	0.0000E00
228.95	0.0000E00
229.33	0.0000E00
229.70	0.0000E00
230.08	0.0000E00
230.45	0.0000E00
230.82	0.0000E00
231.20	0.0000E00
231.57	0.0000E00
231.95	0.0000E00
232.32	0.0000E00
232.69	0.0000E00
233.07	0.0000E00
233.44	-0.0000E00
233.81	0.0000E00
234.19	0.0000E00
234.56	0.0000E00
234.93	0.0000E00
235.31	0.0000E00
235.68	0.0000E00
236.05	0.0000E00
236.43	0.0000E00
236.80	-0.0000E00
237.17	0.0000E00
237.55	0.0000E00
237.92	0.0000E00
238.29	0.0000E00
238.67	0.0000E00
239.04	0.0000E00
239.41	0.0000E00
239.79	0.0000E00
240.16	0.0000E00
240.53	0.0000E00
240.91	0.0000E00
241.28	0.0000E00
241.65	0.0000E00
242.02	0.0000E00
242.40	0.0000E00
242.77	0.0000E00
243.14	0.0000E00
243.51	0.0000E00
243.89	0.0000E00
244.26	0.0000E00
244.63	0.0000E00
245.00	0.0000E00
245.38	0.0000E00
245.75	0.0000E00
246.12	0.0000E00
246.49	0.0000E00
246.87	0.0000E00
247.24	0.0000E00
247.61	0.0000E00
247.98	0.0000E00
248.36	0.0000E00
248.73	0.0000E00
249.10	0.0000E00
249.47	0.0000E00
249.84	0.0000E00
250.22	0.0000E00
250.59	0.0000E00
250.96	0.0000E00
251.33	0.0000E00
251.70	0.0000E00
252.08	0.0000E00
252.45	0.0000E00
252.82	0.0000E00
253.19	0.0000E00
253.56	0.0000E00
253.94	0.0000E00
254.31	0.0000E00
254.68	0.0000E00
255.05	0.0000E00
255.42	0.0000E00
255.79	0.0000E00
256.16	0.0000E00
256.54	0.0000E00
256.91	0.0000E00
257.28	0.0000E00
257.65	0.0000E00
258.02	0.0000E00
258.39	0.0000E00
258.76	0.0000E00
259.14	0.0000E00
259.51	0.0000E00
259.88	0.0000E00
260.25	0.0000E00
260.62	0.0000E00
260.99	0.0000E00
261.36	0.0000E00
261.73	0.0000E00
262.10	0.0000E00
262.47	0.0000E00
262.85	0.0000E00
263.22	0.0000E00
263.59	0.0000E00
263.96	0.0000E00
264.33	0.0000E00
264.70	0.0000E00
265.07	0.0000E00
265.44	0.0000E00
265.81	0.0000E00
266.18	0.0000E00
266.55	0.0000E00
266.92	0.0000E00
267.29	0.0000E00
267.66	0.0000E00
268.03	0.0000E00
268.40	0.0000E00
268.77	0.0000E00
269.14	0.0000E00
269.51	0.0000E00
269.88	0.0000E00
270.25	0.0000E00
270.62	0.0000E00
270.99	0.0000E00
271.36	0.0000E00
271.73	0.0000E00
272.10	0.0000E00
272.47	0.0000E00
272.84	0.0000E00
273.21	0.0000E00
273.58	0.0000E00
273.95	0.0000E00
274.32	0.0000E00
274.69	0.0000E00
275.06	0.0000E00
275.43	0.0000E00
275.80	0.0000E00
276.17	0.0000E00
276.54	0.0000E00
276.91	0.0000E00
277.28	0.0000E00
277.65	-0.0000E00
278.02	0.0000E00
278.39	0.0000E00
278.76	0.0000E00
279.13	0.0000E00
279.50	0.0000E00
279.87	0.0000E00
280.23	0.0000E00
280.60	0.0000E00
280.97	0.0000E00
281.34	0.0000E00
281.71	0.0000E00
282.08	0.0000E00
282.45	0.0000E00
282.82	0.0000E00
283.19	0.0000E00
283.56	0.0000E00
283.92	0.0000E00
284.29	0.0000E00
284.66	0.0000E00
285.03	0.0000E00
285.40	0.0000E00
285.77	0.0000E00
286.14	0.0000E00
286.51	0.0000E00
286.87	0.0000E00
287.24	0.0000E00
287.61	0.0000E00
287.98	0.0000E00
288.35	0.0000E00
288.72	0.0000E00
289.08	0.0000E00
289.45	0.0000E00
289.82	0.0000E00
290.19	0.0000E00
290.56	0.0000E00
290.93	0.0000E00
291.29	0.0000E00
291.66	0.0000E00
292.03	0.0000E00
292.40	0.0000E00
292.77	0.0000E00
293.13	0.0000E00
293.50	0.0000E00
293.87	0.0000E00
294.24	0.0000E00
294.60	0.0000E00
294.97	0.0000E00
295.34	0.0000E00
295.71	0.0000E00
296.08	0.0000E00
296.44	0.0000E00
296.81	0.0000E00
297.18	0.0000E00
297.55	0.0000E00
297.91	0.0000E00
298.28	0.0000E00
298.65	0.0000E00
299.02	0.0000E00
299.38	0.0000E00
299.75	0.0000E00
300.12	7.1303E-01
300.48	1.5798E00
300.85	1.6710E00
301.22	8.1290E-01
301.59	1.3121E00
301.95	2.2827E00
302.32	8.0968E-01
302.69	6.7341E-01
303.05	9.0340E-01
303.42	1.5256E00
303.79	8.1043E-01
304.15	7.4943E-01
304.52	6.6759E-01
304.89	8.0498E-01
305.25	1.2661E00
305.62	9.1462E-01
305.99	7.7599E-01
306.35	1.5947E00
306.72	7.6399E-01
307.09	1.3713E00
307.45	1.7327E00
307.82	9.2746E-01
308.19	5.9956E00
308.55	9.3933E-01
308.92	8.9107E-01
309.29	1.0884E00
309.65	1.6583E00
310.02	1.1022E00
310.38	1.0874E00
310.75	7.7853E-01
311.12	1.2248E00
311.48	1.2351E00
311.85	7.8811E-01
312.22	1.0157E00
312.58	1.2616E00
312.95	1.2132E00
313.31	1.1725E00
313.68	9.6123E-01
314.05	1.7399E00
314.41	8.5285E-01
314.78	2.2418E00
315.14	1.2777E00
315.51	1.3002E00
315.87	1.3211E00
316.24	1.6393E00
316.61	9.7103E-01
316.97	2.1855E00
317.34	1.2896E00
317.70	1.4717E00
318.07	1.4243E00
318.43	8.6987E-01
318.80	1.0486E00
319.16	2.0603E00
319.53	8.2253E-01
319.89	1.3136E00
320.26	8.6998E-01
320.62	1.9144E00
320.99	1.6549E00
321.35	1.6705E00
321.72	9.4692E-01
322.08	1.0577E00
322.45	1.2847E00
322.81	2.3005E00
323.18	1.1018E00
323.54	9.2135E-01
323.91	1.4091E00
324.27	1.1285E00
324.64	3.7194E00
325.00	4.2131E00
325.37	1.9868E00
325.73	2.4034E00
326.10	1.9705E00
326.46	1.4700E00
326.83	1.4350E00
327.19	1.7551E00
327.56	1.2289E00
327.92	2.5461E00
328.29	1.2369E00
328.65	9.9457E-01
329.01	1.2403E00
329.38	1.2828E00
329.74	1.5800E00
330.11	1.5230E00
330.47	3.1644E00
330.84	1.6452E00
331.20	8.7409E-01
331.56	4.1052E00
331.93	1.9497E00
332.29	1.7772E00
332.66	2.0380E00
333.02	1.7694E00
333.38	1.0970E00
333.75	2.3791E00
334.11	1.0634E00
334.48	1.6816E00
334.84	9.5759E-01
335.20	1.4334E00
335.57	1.6682E00
335.93	1.3777E00
336.29	1.4236E00
336.66	1.4190E00
337.02	1.2053E00
337.38	1.4665E00
337.75	1.1286E00
338.11	1.3646E00
338.47	1.0445E00
338.84	1.4233E00
339.20	1.5380E00
339.56	1.6736E00
339.93	1.5504E00
340.29	1.2269E00
340.65	1.0447E00
341.02	1.5763E00
341.38	1.0578E00
341.74	1.3391E00
342.11	4.6486E00
342.47	1.5053E00
342.83	1.3695E00
343.20	1.7141E00
343.56	1.4395E00
343.92	1.4060E00
344.28	1.0472E00
344.65	1.1687E00
345.01	9.7584E-01
345.37	1.1603E00
345.73	1.4282E00
346.10	1.3179E00
346.46	8.6229E-01
346.82	1.5154E00
347.19	1.6943E00
347.55	1.5430E00
347.91	2.0102E00
348.27	1.0805E00
348.63	1.5810E00
349.00	1.4967E00
349.36	1.3086E00
349.72	1.6713E00
350.08	1.2606E00
350.45	1.1281E00
350.81	1.3425E00
351.17	2.2308E00
351.53	1.8384E00
351.89	1.4371E00
352.26	9.2806E-01
352.62	1.0020E00
352.98	1.0910E00
353.34	1.2810E00
353.70	1.4253E00
354.07	1.1509E00
354.43	1.0634E00
354.79	1.4402E00
355.15	1.2171E00
355.51	1.5350E00
355.87	9.3063E-01
356.24	9.3330E-01
356.60	1.0075E00
356.96	1.0934E00
357.32	1.0564E00
357.68	1.2265E00
358.04	9.9280E-01
358.40	1.4333E00
358.77	1.1729E00
359.13	8.4475E-01
359.49	1.2144E00
359.85	1.0262E00
360.21	1.2879E00
360.57	9.5798E-01
360.93	1.2550E00
361.29	1.2151E00
361.66	9.1190E-01
362.02	9.1948E-01
362.38	1.0778E00
362.74	9.1300E-01
363.10	8.5914E-01
363.46	9.4690E-01
363.82	9.7387E-01
364.18	1.0657E00
364.54	9.6758E-01
364.90	8.7511E-01
365.26	1.4649E00
365.62	8.6262E-01
365.98	1.1299E00
366.35	1.1085E00
366.71	9.2944E-01
367.07	1.0994E00
367.43	1.0040E00
367.79	9.4910E-01
368.15	1.1045E00
368.51	1.1691E00
368.87	1.1638E00
369.23	9.6829E-01
369.59	1.0323E00
369.95	1.0862E00
370.31	9.4042E-01
370.67	8.8714E-01
371.03	9.8466E-01
371.39	1.0592E00
371.75	1.2099E00
372.11	1.0929E00
372.47	8.7435E-01
372.83	1.3026E00
373.19	1.1706E00
373.55	8.5391E-01
373.91	9.8919E-01
374.27	9.9843E-01
374.63	9.9595E-01
374.99	1.0054E00
375.35	8.8527E-01
375.71	8.8440E-01
376.07	8.8369E-01
376.42	1.0302E00
376.78	1.0396E00
377.14	8.1350E-01
377.50	9.9277E-01
377.86	9.2402E-01
378.22	7.9529E-01
378.58	8.5838E-01
378.94	8.4444E-01
379.30	9.7597E-01
379.66	8.8152E-01
380.02	8.2461E-01
380.38	9.4867E-01
380.74	7.8933E-01
381.09	8.6235E-01
381.45	7.5841E-01
381.81	8.4487E-01
382.17	9.1754E-01
382.53	8.0912E-01
382.89	9.2817E-01
383.25	6.9596E-01
383.61	8.0280E-01
383.97	7.7675E-01
384.32	8.8230E-01
384.68	8.3829E-01
385.04	8.7153E-01
385.40	8.1321E-01
385.76	8.6902E-01
386.12	8.2775E-01
386.48	7.8679E-01
386.83	7.7555E-01
387.19	8.0276E-01
387.55	8.6131E-01
387.91	7.7174E-01
388.27	8.2045E-01
388.62	8.1215E-01
388.98	8.2495E-01
389.34	7.9174E-01
389.70	8.3493E-01
390.06	8.1661E-01
390.42	8.0874E-01
390.77	7.9216E-01
391.13	7.6798E-01
391.49	8.2580E-01
391.85	7.5155E-01
392.20	8.0190E-01
392.56	7.9530E-01
392.92	7.7663E-01
393.28	7.6544E-01
393.64	8.4448E-01
393.99	7.4335E-01
394.35	7.9882E-01
394.71	8.6696E-01
395.07	8.2568E-01
395.42	7.5779E-01
395.78	7.9182E-01
396.14	7.3365E-01
396.50	7.3719E-01
396.85	7.3986E-01
397.21	7.3200E-01
397.57	8.1364E-01
397.92	7.8113E-01
398.28	7.4738E-01
398.64	8.4356E-01
399.00	7.0797E-01
399.35	6.7017E-01
399.71	7.1788E-01
400.07	7.1998E-01
400.42	7.3015E-01
400.78	7.2686E-01
401.14	7.1210E-01
401.49	7.3686E-01
401.85	6.7445E-01
402.21	6.6503E-01
402.57	6.8327E-01
402.92	6.9642E-01
403.28	6.6741E-01
403.63	6.8944E-01
403.99	7.4862E-01
404.35	6.8060E-01
404.70	6.5968E-01
405.06	6.4808E-01
405.42	6.8823E-01
405.77	6.7296E-01
406.13	6.2446E-01
406.49	6.6357E-01
406.84	6.3724E-01
407.20	6.3294E-01
407.55	6.9575E-01
407.91	7.0400E-01
408.27	6.4931E-01
408.62	6.2911E-01
408.98	6.8225E-01
409.34	6.7722E-01
409.69	6.7504E-01
410.05	6.5916E-01
410.40	6.3816E-01
410.76	6.2704E-01
411.11	6.1807E-01
411.47	6.8934E-01
411.83	6.2858E-01
412.18	6.3965E-01
412.54	6.4732E-01
412.89	6.6365E-01
413.25	6.3104E-01
413.60	6.1824E-01
413.96	6.5976E-01
414.31	6.3908E-01
414.67	6.4430E-01
415.03	6.6827E-01
415.38	6.6978E-01
415.74	6.6092E-01
416.09	6.7191E-01
416.45	6.6701E-01
416.80	6.4489E-01
417.16	6.4549E-01
417.51	6.4388E-01
417.87	6.3656E-01
418.22	6.0227E-01
418.58	6.1666E-01
418.93	6.2575E-01
419.29	6.5062E-01
419.64	6.3280E-01
420.00	6.1366E-01
420.35	6.0477E-01
420.71	6.0353E-01
421.06	6.0885E-01
421.42	6.1907E-01
421.77	6.2276E-01
422.12	6.0394E-01
422.48	5.6810E-01
422.83	6.3489E-01
423.19	5.8739E-01
423.54	6.0579E-01
423.90	6.0931E-01
424.25	5.9867E-01
424.61	6.2018E-01
424.96	5.8274E-01
425.31	5.5836E-01
425.67	5.6865E-01
426.02	5.7441E-01
426.38	5.8387E-01
426.73	5.5990E-01
427.09	5.8195E-01
427.44	5.7723E-01
427.79	5.4181E-01
428.15	5.9563E-01
428.50	5.6123E-01
428.85	5.9055E-01
429.21	5.4421E-01
429.56	5.1590E-01
429.92	5.3695E-01
430.27	5.3849E-01
430.62	5.4967E-01
430.98	5.6994E-01
431.33	5.5647E-01
431.68	5.4881E-01
432.04	5.4886E-01
432.39	5.2964E-01
432.74	5.5726E-01
433.10	5.2085E-01
433.45	5.6354E-01
433.80	5.4054E-01
434.16	5.5300E-01
434.51	5.3773E-01
434.86	5.4435E-01
435.22	5.2556E-01
435.57	5.7512E-01
435.92	5.5601E-01
436.28	5.4799E-01
436.63	5.2474E-01
436.98	5.3300E-01
437.34	5.5717E-01
437.69	5.3776E-01
438.04	5.1536E-01
438.39	5.4071E-01
438.75	5.2147E-01
439.10	5.1497E-01
439.45	5.4205E-01
439.81	5.2902E-01
440.16	5.0959E-01
440.51	5.1683E-01
440.86	5.0940E-01
441.22	5.1626E-01
441.57	5.2286E-01
441.92	4.9715E-01
442.27	5.2993E-01
442.63	5.1983E-01
442.98	5.3484E-01
443.33	5.3582E-01
443.68	5.1835E-01
444.03	4.8268E-01
444.39	4.8748E-01
444.74	5.1360E-01
445.09	5.1655E-01
445.44	5.3892E-01
445.79	4.7628E-01
446.15	5.0525E-01
446.50	5.0756E-01
446.85	4.7701E-01
447.20	4.8320E-01
447.55	5.0754E-01
447.91	5.0625E-01
448.26	4.9577E-01
448.61	4.9628E-01
448.96	4.9143E-01
449.31	4.8889E-01
449.66	5.0982E-01
450.02	4.9337E-01
450.37	4.9462E-01
450.72	4.8152E-01
451.07	5.1728E-01
451.42	5.0994E-01
451.77	4.9521E-01
452.12	4.8193E-01
452.47	5.2402E-01
452.83	4.6929E-01
453.18	5.0594E-01
453.53	4.8444E-01
453.88	4.6718E-01
454.23	4.7545E-01
454.58	4.8392E-01
454.93	4.8659E-01
455.28	4.8761E-01
455.63	4.8355E-01
455.98	4.6147E-01
456.34	4.8431E-01
456.69	4.7803E-01
457.04	4.6562E-01
457.39	4.5223E-01
457.74	4.5064E-01
458.09	4.6383E-01
458.44	4.4739E-01
458.79	4.3577E-01
459.14	4.4785E-01
459.49	4.6884E-01
459.84	4.4176E-01
460.19	4.7049E-01
460.54	4.6664E-01
460.89	4.3209E-01
461.24	4.7099E-01
461.59	4.5824E-01
461.94	4.6386E-01
462.29	4.2891E-01
462.64	4.5898E-01
462.99	4.5893E-01
463.34	4.7633E-01
463.69	4.4081E-01
464.04	4.3148E-01
464.39	4.4045E-01
464.74	4.4558E-01
465.09	4.5471E-01
465.44	4.4188E-01
465.79	4.4141E-01
466.14	4.4232E-01
466.49	4.3880E-01
466.84	4.4302E-01
467.19	4.4765E-01
467.54	4.4762E-01
467.89	4.2507E-01
468.24	4.1269E-01
468.59	4.2622E-01
468.94	4.1641E-01
469.29	4.1794E-01
469.64	4.3424E-01
469.99	4.1482E-01
470.34	3.9939E-01
470.68	4.3401E-01
471.03	4.0461E-01
471.38	4.0836E-01
471.73	3.9858E-01
472.08	3.8877E-01
472.43	3.8061E-01
472.78	3.9493E-01
473.13	3.9552E-01
473.48	3.8533E-01
473.83	3.7889E-01
474.17	3.8605E-01
474.52	3.8173E-01
474.87	3.6454E-01
475.22	3.6945E-01
475.57	3.5086E-01
475.92	3.3875E-01
476.27	3.5987E-01
476.61	3.4426E-01
476.96	3.4013E-01
477.31	3.2358E-01
477.66	3.3345E-01
478.01	3.2870E-01
478.36	3.2438E-01
478.70	3.2132E-01
479.05	3.2644E-01
479.40	3.1015E-01
479.75	3.1181E-01
480.10	3.0912E-01
480.45	3.0540E-01
480.79	3.0436E-01
481.14	3.1161E-01
481.49	3.0310E-01
481.84	2.9452E-01
482.19	2.9039E-01
482.53	2.9058E-01
482.88	2.8935E-01
483.23	2.8503E-01
483.58	2.8057E-01
483.92	2.8670E-01
484.27	2.7419E-01
484.62	2.7517E-01
484.97	2.7006E-01
485.31	2.6586E-01
485.66	2.7239E-01
486.01	2.7069E-01
486.36	2.6373E-01
486.70	2.6781E-01
487.05	2.6617E-01
487.40	2.6075E-01
487.75	2.5309E-01
488.09	2.5733E-01
488.44	2.6421E-01
488.79	2.5412E-01
489.13	2.5582E-01
489.48	2.5616E-01
489.83	2.5812E-01
490.17	2.5007E-01
490.52	2.5037E-01
490.87	2.5187E-01
491.22	2.5428E-01
491.56	2.4996E-01
491.91	2.5373E-01
492.26	2.5094E-01
492.60	2.5025E-01
492.95	2.5166E-01
493.30	2.5387E-01
493.64	2.4869E-01
493.99	2.5110E-01
494.34	2.4904E-01
494.68	2.4455E-01
495.03	2.5196E-01
495.37	2.4806E-01
495.72	2.5028E-01
496.07	2.4607E-01
496.41	2.4935E-01
496.76	2.4769E-01
497.11	2.4931E-01
497.45	2.4784E-01
497.80	2.4964E-01
498.14	2.4986E-01
498.49	2.4988E-01
498.84	2.4884E-01
499.18	2.4751E-01
499.53	2.5071E-01
499.87	2.4895E-01
500.22	2.5117E-01
500.56	2.4963E-01
500.91	2.4799E-01
501.26	2.4971E-01
501.60	2.4944E-01
501.95	2.4594E-01
502.29	2.4770E-01
502.64	2.4799E-01
502.98	2.4949E-01
503.33	2.4991E-01
503.67	2.4842E-01
504.02	2.4754E-01
504.36	2.4561E-01
504.71	2.4746E-01
505.06	2.4763E-01
505.40	2.4707E-01
505.75	2.4492E-01
506.09	2.4550E-01
506.44	2.4410E-01
506.78	2.4563E-01
507.13	2.4547E-01
507.47	2.4303E-01
507.82	2.4231E-01
508.16	2.4257E-01
508.51	2.4201E-01
508.85	2.4120E-01
509.19	2.4098E-01
509.54	2.4421E-01
509.88	2.4247E-01
510.23	2.3994E-01
510.57	2.3920E-01
510.92	2.4268E-01
511.26	2.4035E-01
511.61	2.4033E-01
511.95	2.4070E-01
512.30	2.3890E-01
512.64	2.3990E-01
512.98	2.3913E-01
513.33	2.3853E-01
513.67	2.3863E-01
514.02	2.3728E-01
514.36	2.3678E-01
514.70	2.3762E-01
515.05	2.3658E-01
515.39	2.3724E-01
515.74	2.3461E-01
516.08	2.3722E-01
516.42	2.3505E-01
516.77	2.3544E-01
517.11	2.3387E-01
517.46	2.3631E-01
517.80	2.3386E-01
518.14	2.3472E-01
518.49	2.3464E-01
518.83	2.3217E-01
519.17	2.3605E-01
519.52	2.3366E-01
519.86	2.3300E-01
520.20	2.3092E-01
520.55	2.3264E-01
520.89	2.3352E-01
521.23	2.3313E-01
521.58	2.3279E-01
521.92	2.3670E-01
522.26	2.3525E-01
522.61	2.3193E-01
522.95	2.3328E-01
523.29	2.3292E-01
523.64	2.3190E-01
523.98	2.3207E-01
524.32	2.3422E-01
524.66	2.3390E-01
525.01	2.3555E-01
525.35	2.3560E-01
525.69	2.3581E-01
526.04	2.3666E-01
526.38	2.3305E-01
526.72	2.3619E-01
527.06	2.3561E-01
527.41	2.3938E-01
527.75	2.3995E-01
528.09	2.3687E-01
528.43	2.3862E-01
528.78	2.3631E-01
529.12	2.4286E-01
529.46	2.4052E-01
529.80	2.4040E-01
530.15	2.4140E-01
530.49	2.4267E-01
530.83	2.4361E-01
531.17	2.4358E-01
531.51	2.4444E-01
531.86	2.4527E-01
532.20	2.4742E-01
532.54	2.4765E-01
532.88	2.4755E-01
533.22	2.4886E-01
533.57	2.4931E-01
533.91	2.5180E-01
534.25	2.5168E-01
534.59	2.5045E-01
534.93	2.5181E-01
535.27	2.5288E-01
535.62	2.5526E-01
535.96	2.5701E-01
536.30	2.5717E-01
536.64	2.5776E-01
536.98	2.5857E-01
537.32	2.5856E-01
537.66	2.5823E-01
538.01	2.6160E-01
538.35	2.6333E-01
538.69	2.6115E-01
539.03	2.6670E-01
539.37	2.6333E-01
539.71	2.6514E-01
540.05	2.6534E-01
540.39	2.6593E-01
540.73	2.6828E-01
541.07	2.6648E-01
541.42	2.6627E-01
541.76	2.6703E-01
542.10	2.6709E-01
542.44	2.6923E-01
542.78	2.6970E-01
543.12	2.6953E-01
543.46	2.7504E-01
543.80	2.7200E-01
544.14	2.7332E-01
544.48	2.7021E-01
544.82	2.7323E-01
545.16	2.7315E-01
545.50	2.7216E-01
545.84	2.7687E-01
546.18	2.7385E-01
546.52	2.7681E-01
546.86	2.7297E-01
547.20	2.7571E-01
547.54	2.8120E-01
547.88	2.7623E-01
548.22	2.7718E-01
548.56	2.7764E-01
548.90	2.7584E-01
549.24	2.7959E-01
549.58	2.7920E-01
549.92	2.7939E-01
550.26	2.8235E-01
550.60	2.8037E-01
550.94	2.7606E-01
551.28	2.8313E-01
551.62	2.8054E-01
551.96	2.8299E-01
552.30	2.8171E-01
552.64	2.8357E-01
552.98	2.8146E-01
553.32	2.8179E-01
553.66	2.7973E-01
554.00	2.8077E-01
554.34	2.8356E-01
554.68	2.8451E-01
555.02	2.8352E-01
555.36	2.8305E-01
555.69	2.8587E-01
556.03	2.8472E-01
556.37	2.8478E-01
556.71	2.8344E-01
557.05	2.8223E-01
557.39	2.8389E-01
557.73	2.8345E-01
558.07	2.8531E-01
558.41	2.8381E-01
558.75	2.8471E-01
559.08	2.8535E-01
559.42	2.8114E-01
559.76	2.8537E-01
560.10	2.8443E-01
560.44	2.8523E-01
560.78	2.8244E-01
561.12	2.8437E-01
561.45	2.8511E-01
561.79	2.8571E-01
562.13	2.8425E-01
562.47	2.8442E-01
562.81	2.8870E-01
563.15	2.8783E-01
563.48	2.8589E-01
563.82	2.8387E-01
564.16	2.8624E-01
564.50	2.8756E-01
564.84	2.8725E-01
565.17	2.8672E-01
565.51	2.8357E-01
565.85	2.8723E-01
566.19	2.8608E-01
566.52	2.8769E-01
566.86	2.8656E-01
567.20	2.8777E-01
567.54	2.8980E-01
567.88	2.8719E-01
568.21	2.8893E-01
568.55	2.8803E-01
568.89	2.8838E-01
569.23	2.9069E-01
569.56	2.8783E-01
569.90	2.8838E-01
570.24	2.9069E-01
570.57	2.8967E-01
570.91	2.9205E-01
571.25	2.9021E-01
571.59	2.9072E-01
571.92	2.9056E-01
572.26	2.9238E-01
572.60	2.9493E-01
572.93	2.9310E-01
573.27	2.9677E-01
573.61	2.9655E-01
573.95	2.9292E-01
574.28	2.9673E-01
574.62	2.9662E-01
574.96	2.9736E-01
575.29	2.9551E-01
575.63	2.9947E-01
575.97	2.9878E-01
576.30	3.0623E-01
576.64	3.0099E-01
576.98	3.0237E-01
577.31	3.0436E-01
577.65	3.0481E-01
577.98	3.0466E-01
578.32	3.0851E-01
578.66	3.0722E-01
578.99	3.1183E-01
579.33	3.1100E-01
579.67	3.1086E-01
580.00	3.1161E-01
580.34	3.1488E-01
580.67	3.1421E-01
581.01	3.1451E-01
581.35	3.1764E-01
581.68	3.1858E-01
582.02	3.1773E-01
582.35	3.1845E-01
582.69	3.2048E-01
583.02	3.2574E-01
583.36	3.2337E-01
583.70	3.2228E-01
584.03	3.2475E-01
584.37	3.2515E-01
584.70	3.2921E-01
585.04	3.3026E-01
585.37	3.2734E-01
585.71	3.3182E-01
586.04	3.3093E-01
586.38	3.2886E-01
586.72	3.3377E-01
587.05	3.3316E-01
587.39	3.3503E-01
587.72	3.3400E-01
588.06	3.3670E-01
588.39	3.3572E-01
588.73	3.4132E-01
589.06	3.3994E-01
589.40	3.4157E-01
589.73	3.4318E-01
590.07	3.4559E-01
590.40	3.4672E-01
590.73	3.5120E-01
591.07	3.4751E-01
591.40	3.4898E-01
591.74	3.4575E-01
592.07	3.5118E-01
592.41	3.5158E-01
592.74	3.5026E-01
593.08	3.5169E-01
593.41	3.5335E-01
593.75	3.5013E-01
594.08	3.5743E-01
594.41	3.5322E-01
594.75	3.5715E-01
595.08	3.5677E-01
595.42	3.5294E-01
595.75	3.5578E-01
596.09	3.5595E-01
596.42	3.5641E-01
596.75	3.5907E-01
597.09	3.6236E-01
597.42	3.5717E-01
597.75	3.6084E-01
598.09	3.6055E-01
598.42	3.5897E-01
598.76	3.6242E-01
599.09	3.6271E-01
599.42	3.6512E-01
599.76	3.6486E-01
600.09	3.6496E-01
600.42	3.6741E-01
600.76	3.6380E-01
601.09	3.6581E-01
601.42	3.7309E-01
601.76	3.6650E-01
602.09	3.6679E-01
602.42	3.6844E-01
602.76	3.6889E-01
603.09	3.6587E-01
603.42	3.6890E-01
603.76	3.6775E-01
604.09	3.6857E-01
604.42	3.6906E-01
604.76	3.6921E-01
605.09	3.7246E-01
605.42	3.6994E-01
605.75	3.7244E-01
606.09	3.7157E-01
606.42	3.7038E-01
606.75	3.7329E-01
607.09	3.7260E-01
607.42	3.7241E-01
607.75	3.7426E-01
608.08	3.7426E-01
608.42	3.7529E-01
608.75	3.7340E-01
609.08	3.7789E-01
609.41	3.7657E-01
609.75	3.7563E-01
610.08	3.7598E-01
610.41	3.7661E-01
610.74	3.7616E-01
611.07	3.7834E-01
611.41	3.7424E-01
611.74	3.7920E-01
612.07	3.8266E-01
612.40	3.7638E-01
612.73	3.7677E-01
613.07	3.8213E-01
613.40	3.7789E-01
613.73	3.7731E-01
614.06	3.8000E-01
614.39	3.8127E-01
614.72	3.8353E-01
615.06	3.8106E-01
615.39	3.8626E-01
615.72	3.8140E-01
616.05	3.8643E-01
616.38	3.8283E-01
616.71	3.8538E-01
617.05	3.8149E-01
617.38	3.8633E-01
617.71	3.8030E-01
618.04	3.8747E-01
618.37	3.8275E-01
618.70	3.8138E-01
619.03	3.8656E-01
619.36	3.7816E-01
619.69	3.8714E-01
620.03	3.8094E-01
620.36	3.8539E-01
620.69	3.8385E-01
621.02	3.8496E-01
621.35	3.8193E-01
621.68	3.8060E-01
622.01	3.7979E-01
622.34	3.8305E-01
622.67	3.8261E-01
623.00	3.8201E-01
623.33	3.8102E-01
623.66	3.8268E-01
623.99	3.8289E-01
624.32	3.7902E-01
624.65	3.8145E-01
624.99	3.8155E-01
625.32	3.8384E-01
625.65	3.7990E-01
625.98	3.7842E-01
626.31	3.8187E-01
626.64	3.8351E-01
626.97	3.8168E-01
627.30	3.7920E-01
627.63	3.8077E-01
627.96	3.8222E-01
628.29	3.7715E-01
628.62	3.8263E-01
628.95	3.8143E-01
629.28	3.7483E-01
629.61	3.8638E-01
629.94	3.8052E-01
630.26	3.8244E-01
630.59	3.8552E-01
630.92	3.8273E-01
631.25	3.8500E-01
631.58	3.8840E-01
631.91	3.8294E-01
632.24	3.9159E-01
632.57	3.8721E-01
632.90	3.8942E-01
633.23	3.8979E-01
633.56	3.9056E-01
633.89	3.9074E-01
634.22	3.9063E-01
634.55	3.9351E-01
634.88	3.9853E-01
635.20	3.9439E-01
635.53	3.9865E-01
635.86	3.9901E-01
636.19	4.0309E-01
636.52	4.0431E-01
636.85	4.0600E-01
637.18	4.0904E-01
637.51	4.0835E-01
637.83	4.0863E-01
638.16	4.0681E-01
638.49	4.1447E-01
638.82	4.1196E-01
639.15	4.1757E-01
639.48	4.1979E-01
639.81	4.2353E-01
640.13	4.1894E-01
640.46	4.2636E-01
640.79	4.2341E-01
641.12	4.3076E-01
641.45	4.2677E-01
641.77	4.2753E-01
642.10	4.3504E-01
642.43	4.3656E-01
642.76	4.3919E-01
643.09	4.3492E-01
643.41	4.4012E-01
643.74	4.4216E-01
644.07	4.4061E-01
644.40	4.4362E-01
644.73	4.4808E-01
645.05	4.5150E-01
645.38	4.5127E-01
645.71	4.5790E-01
646.04	4.5609E-01
646.36	4.5478E-01
646.69	4.6319E-01
647.02	4.6264E-01
647.35	4.6165E-01
647.67	4.6552E-01
648.00	4.6393E-01
648.33	4.7178E-01
648.66	4.6773E-01
648.98	4.7211E-01
649.31	4.7128E-01
649.64	4.7305E-01
649.96	4.7580E-01
650.29	4.8238E-01
650.62	4.8072E-01
650.94	4.8288E-01
651.27	4.8249E-01
651.60	4.8504E-01
651.92	4.8900E-01
652.25	4.9218E-01
652.58	4.8985E-01
652.90	4.9222E-01
653.23	4.9297E-01
653.56	4.9703E-01
653.88	4.9960E-01
654.21	4.9749E-01
654.54	5.0134E-01
654.86	5.0633E-01
655.19	4.9823E-01
655.52	5.0769E-01
655.84	5.0404E-01
656.17	5.1012E-01
656.49	5.1111E-01
656.82	5.0893E-01
657.15	5.1345E-01
657.47	5.1263E-01
657.80	5.1587E-01
658.13	5.1461E-01
658.45	5.1831E-01
658.78	5.2135E-01
659.10	5.2151E-01
659.43	5.2675E-01
659.75	5.2250E-01
660.08	5.2306E-01
660.41	5.2813E-01
660.73	5.2789E-01
661.06	5.3062E-01
661.38	5.2999E-01
661.71	5.3434E-01
662.03	5.3015E-01
662.36	5.3622E-01
662.68	5.3821E-01
663.01	5.3075E-01
663.33	5.4040E-01
663.66	5.4272E-01
663.98	5.4374E-01
664.31	5.3767E-01
664.63	5.4842E-01
664.96	5.3972E-01
665.28	5.4524E-01
665.61	5.4527E-01
665.93	5.5052E-01
666.26	5.4927E-01
666.58	5.5228E-01
666.91	5.5039E-01
667.23	5.5549E-01
667.56	5.5393E-01
667.88	5.5274E-01
668.21	5.5853E-01
668.53	5.5689E-01
668.86	5.5904E-01
669.18	5.5685E-01
669.50	5.6678E-01
669.83	5.6733E-01
670.15	5.6932E-01
670.48	5.6965E-01
670.80	5.6512E-01
671.13	5.6494E-01
671.45	5.7086E-01
671.77	5.6947E-01
672.10	5.6835E-01
672.42	5.7712E-01
672.75	5.7088E-01
673.07	5.7867E-01
673.39	5.7862E-01
673.72	5.7829E-01
674.04	5.8316E-01
674.37	5.8277E-01
674.69	5.8176E-01
675.01	5.8571E-01
675.34	5.8656E-01
675.66	5.8888E-01
675.98	5.8168E-01
676.31	5.9150E-01
676.63	5.9224E-01
676.95	5.9069E-01
677.28	5.9554E-01
677.60	5.9395E-01
677.92	5.9834E-01
678.25	6.0210E-01
678.57	6.0206E-01
678.89	6.0188E-01
679.22	6.0307E-01
679.54	6.0285E-01
679.86	6.0679E-01
680.18	6.0684E-01
680.51	6.0563E-01
680.83	6.2038E-01
681.15	6.1364E-01
681.48	6.1468E-01
681.80	6.1611E-01
682.12	6.1442E-01
682.44	6.2293E-01
682.77	6.2181E-01
683.09	6.2657E-01
683.41	6.2589E-01
683.73	6.3166E-01
684.06	6.3181E-01
684.38	6.3021E-01
684.70	6.3239E-01
685.02	6.3243E-01
685.34	6.3964E-01
685.67	6.3437E-01
685.99	6.4861E-01
686.31	6.4249E-01
686.63	6.4860E-01
686.96	6.5159E-01
687.28	6.5354E-01
687.60	6.5196E-01
687.92	6.5372E-01
688.24	6.6550E-01
688.56	6.6385E-01
688.89	6.6131E-01
689.21	6.6618E-01
689.53	6.6655E-01
689.85	6.7797E-01
690.17	6.7227E-01
690.49	6.8175E-01
690.82	6.8054E-01
691.14	6.8447E-01
691.46	6.8280E-01
691.78	6.9015E-01
692.10	6.8684E-01
692.42	6.9144E-01
692.74	6.9639E-01
693.06	6.9929E-01
693.39	7.0470E-01
693.71	7.1313E-01
694.03	7.0704E-01
694.35	7.0691E-01
694.67	7.1916E-01
694.99	7.1958E-01
695.31	7.2531E-01
695.63	7.2522E-01
695.95	7.2646E-01
696.27	7.2790E-01
696.59	7.3073E-01
696.91	7.3913E-01
697.23	7.4377E-01
697.56	7.4443E-01
697.88	7.4842E-01
698.20	7.4759E-01
698.52	7.5088E-01
698.84	7.6162E-01
699.16	7.6663E-01
699.48	7.6362E-01
699.80	7.6640E-01
700.12	7.7976E-01
700.44	7.7571E-01
700.76	7.7899E-01
701.08	7.8512E-01
701.40	7.8825E-01
701.72	7.8983E-01
702.04	7.9611E-01
702.36	7.9527E-01
702.68	8.0184E-01
703.00	8.1245E-01
703.32	8.0654E-01
703.64	8.1596E-01
703.96	8.0605E-01
704.28	8.1842E-01
704.60	8.3031E-01
704.91	8.2683E-01
705.23	8.3478E-01
705.55	8.4025E-01
705.87	8.4588E-01
706.19	8.4443E-01
706.51	8.4210E-01
706.83	8.4069E-01
707.15	8.7254E-01
707.47	8.6169E-01
707.79	8.6654E-01
708.11	8.7089E-01
708.43	8.7325E-01
708.74	8.7960E-01
709.06	8.8918E-01
709.38	8.8857E-01
709.70	8.8968E-01
710.02	8.9570E-01
710.34	8.8904E-01
710.66	9.0581E-01
710.98	9.0949E-01
711.29	9.1544E-01
711.61	9.3111E-01
711.93	9.2627E-01
712.25	9.2646E-01
712.57	9.3759E-01
712.89	9.4367E-01
713.20	9.4606E-01
713.52	9.5454E-01
713.84	9.5563E-01
714.16	9.5008E-01
714.48	9.5979E-01
714.80	9.7401E-01
715.11	9.6907E-01
715.43	9.8173E-01
715.75	9.8037E-01
716.07	9.9660E-01
716.39	9.7901E-01
716.70	9.9254E-01
717.02	9.8835E-01
717.34	1.0155E00
717.66	1.0070E00
717.97	1.0216E00
718.29	1.0319E00
718.61	1.0325E00
718.93	1.0338E00
719.24	1.0384E00
719.56	1.0589E00
719.88	1.0480E00
720.20	1.0683E00
720.51	1.0829E00
720.83	1.0701E00
721.15	1.0897E00
721.46	1.0958E00
721.78	1.1039E00
722.10	1.1160E00
722.42	1.1202E00
722.73	1.1202E00
723.05	1.1210E00
723.37	1.1348E00
723.68	1.1475E00
724.00	1.1474E00
724.32	1.1674E00
724.63	1.1559E00
724.95	1.1710E00
725.27	1.1721E00
725.58	1.1704E00
725.90	1.1662E00
726.22	1.1927E00
726.53	1.1810E00
726.85	1.1924E00
727.16	1.1981E00
727.48	1.1931E00
727.80	1.2049E00
728.11	1.2083E00
728.43	1.2134E00
728.74	1.2114E00
729.06	1.2172E00
729.38	1.2217E00
729.69	1.2196E00
730.01	1.2368E00
730.32	1.2346E00
730.64	1.2377E00
730.96	1.2259E00
731.27	1.2584E00
731.59	1.2422E00
731.90	1.2512E00
732.22	1.2584E00
732.53	1.2683E00
732.85	1.2668E00
733.16	1.2643E00
733.48	1.2607E00
733.80	1.2685E00
734.11	1.2784E00
734.43	1.2958E00
734.74	1.2991E00
735.06	1.3026E00
735.37	1.3119E00
735.69	1.3149E00
736.00	1.3053E00
736.32	1.3209E00
736.63	1.3136E00
736.95	1.3315E00
737.26	1.3419E00
737.58	1.3358E00
737.89	1.3645E00
738.21	1.3496E00
738.52	1.3490E00
738.83	1.3663E00
739.15	1.3532E00
739.46	1.3721E00
739.78	1.3699E00
740.09	1.3827E00
740.41	1.3691E00
740.72	1.3776E00
741.04	1.3754E00
741.35	1.3763E00
741.66	1.4019E00
741.98	1.3911E00
742.29	1.3867E00
742.61	1.3965E00
742.92	1.4030E00
743.23	1.4010E00
743.55	1.4032E00
743.86	1.4039E00
744.18	1.4103E00
744.49	1.4107E00
744.80	1.4016E00
745.12	1.3999E00
745.43	1.4078E00
745.74	1.4043E00
746.06	1.4062E00
746.37	1.3946E00
746.68	1.4089E00
747.00	1.3950E00
747.31	1.4102E00
747.62	1.3941E00
747.94	1.4264E00
748.25	1.4103E00
748.56	1.4071E00
748.88	1.3952E00
749.19	1.4150E00
749.50	1.4017E00
749.82	1.4075E00
750.13	1.4177E00
750.44	1.4074E00
750.75	1.4063E00
751.07	1.4119E00
751.38	1.4020E00
751.69	1.4015E00
752.01	1.4152E00
752.32	1.4248E00
752.63	1.4173E00
752.94	1.4125E00
753.26	1.4186E00
753.57	1.4283E00
753.88	1.4413E00
754.19	1.4227E00
754.51	1.4277E00
754.82	1.4446E00
755.13	1.4432E00
755.44	1.4528E00
755.75	1.4423E00
756.07	1.4498E00
756.38	1.4568E00
756.69	1.4623E00
757.00	1.4611E00
757.31	1.4894E00
757.63	1.4836E00
757.94	1.4924E00
758.25	1.5032E00
758.56	1.4855E00
758.87	1.5031E00
759.18	1.5078E00
759.50	1.5127E00
759.81	1.5152E00
760.12	1.5345E00
760.43	1.5447E00
760.74	1.5564E00
761.05	1.5538E00
761.36	1.5656E00
761.67	1.5705E00
761.99	1.5774E00
762.30	1.5756E00
762.61	1.5952E00
762.92	1.6131E00
763.23	1.6122E00
763.54	1.6350E00
763.85	1.6346E00
764.16	1.6566E00
764.47	1.6727E00
764.78	1.6912E00
765.10	1.6919E00
765.41	1.6959E00
765.72	1.7101E00
766.03	1.7507E00
766.34	1.7580E00
766.65	1.7443E00
766.96	1.7927E00
767.27	1.7829E00
767.58	1.7789E00
767.89	1.8071E00
768.20	1.8268E00
768.51	1.8241E00
768.82	1.8379E00
769.13	1.8500E00
769.44	1.8882E00
769.75	1.9015E00
770.06	1.9218E00
770.37	1.8993E00
770.68	1.9419E00
770.99	1.9635E00
771.30	1.9857E00
771.61	2.0236E00
771.92	2.0154E00
772.23	2.0153E00
772.54	2.0555E00
772.85	2.0448E00
773.16	2.0598E00
773.47	2.1026E00
773.78	2.0837E00
774.09	2.1333E00
774.39	2.1303E00
774.70	2.1674E00
775.01	2.1820E00
775.32	2.2050E00
775.63	2.2191E00
775.94	2.2451E00
776.25	2.2275E00
776.56	2.2619E00
776.87	2.3355E00
777.18	2.3017E00
777.48	2.3456E00
777.79	2.3656E00
778.10	2.3818E00
778.41	2.3977E00
778.72	2.4373E00
779.03	2.4388E00
779.34	2.4698E00
779.65	2.4722E00
779.95	2.5015E00
780.26	2.5223E00
780.57	2.5295E00
780.88	2.5607E00
781.19	2.5737E00
781.50	2.5906E00
781.80	2.6243E00
782.11	2.6584E00
782.42	2.6711E00
782.73	2.6413E00
783.04	2.7369E00
783.34	2.7244E00
783.65	2.7774E00
783.96	2.7834E00
784.27	2.7944E00
784.57	2.7824E00
784.88	2.8332E00
785.19	2.8528E00
785.50	2.8775E00
785.81	2.9240E00
786.11	2.9056E00
786.42	2.9451E00
786.73	3.0035E00
787.04	3.0206E00
787.34	3.0407E00
787.65	3.0049E00
787.96	3.1118E00
788.26	3.0882E00
788.57	3.1686E00
788.88	3.1020E00
789.19	3.2178E00
789.49	3.2025E00
789.80	3.2810E00
790.11	3.2828E00
790.41	3.2587E00
790.72	3.3515E00
791.03	3.3862E00
791.33	3.3645E00
791.64	3.4391E00
791.95	3.4285E00
792.25	3.4857E00
792.56	3.4897E00
792.87	3.4820E00
793.17	3.5059E00
793.48	3.5329E00
793.79	3.6195E00
794.09	3.6385E00
794.40	3.6156E00
794.70	3.5956E00
795.01	3.7120E00
795.32	3.7037E00
795.62	3.7415E00
795.93	3.7592E00
796.23	3.7911E00
796.54	3.8169E00
796.85	3.8641E00
797.15	3.9001E00
797.46	3.8514E00
797.76	3.9476E00
798.07	3.9856E00
798.37	4.0145E00
798.68	4.0419E00
798.99	4.0727E00
799.29	4.0800E00
799.60	4.1628E00
799.90	4.1597E00
800.21	4.2595E00
800.51	4.2429E00
800.82	4.2466E00
801.12	4.3119E00
801.43	4.3437E00
801.73	4.3350E00
802.04	4.4293E00
802.34	4.4209E00
802.65	4.4727E00
802.95	4.5438E00
803.26	4.5245E00
803.56	4.4997E00
803.87	4.5937E00
804.17	4.6625E00
804.48	4.6230E00
804.78	4.6821E00
805.09	4.7724E00
805.39	4.6859E00
805.70	4.7512E00
806.00	4.8259E00
806.30	4.8314E00
806.61	4.8559E00
806.91	4.8652E00
807.22	4.9739E00
807.52	4.9740E00
807.83	4.9901E00
808.13	5.0751E00
808.43	4.9977E00
808.74	5.0574E00
809.04	5.1143E00
809.35	5.1668E00
809.65	5.2419E00
809.95	5.2501E00
810.26	5.3721E00
810.56	5.2904E00
810.86	5.5016E00
811.17	5.4153E00
811.47	5.5645E00
811.77	5.4902E00
812.08	5.4763E00
812.38	5.6067E00
812.69	5.5804E00
812.99	5.6037E00
813.29	5.6784E00
813.59	5.7415E00
813.90	5.8771E00
814.20	5.8096E00
814.50	5.9884E00
814.81	5.8234E00
815.11	6.0733E00
815.41	6.1041E00
815.72	6.1411E00
816.02	6.1950E00
816.32	6.1423E00
816.62	5.4534E00
816.93	5.4372E00
817.23	5.4987E00
817.53	5.4210E00
817.84	5.5565E00
818.14	5.5589E00
818.44	5.5655E00
818.74	5.7036E00
819.04	5.8417E00
819.35	5.7870E00
819.65	5.7054E00
819.95	5.7524E00
820.25	5.9385E00
820.56	5.9078E00
820.86	6.0784E00
821.16	6.1887E00
821.46	6.3034E00
821.76	6.1058E00
822.07	6.3280E00
822.37	6.2758E00
822.67	6.4006E00
822.97	6.2910E00
823.27	5.9420E00
823.57	5.8698E00
823.88	6.0813E00
824.18	5.9471E00
824.48	6.2141E00
824.78	6.3798E00
825.08	6.3699E00
825.38	6.5578E00
825.69	6.4952E00
825.99	6.5106E00
826.29	6.4066E00
826.59	6.5683E00
826.89	6.6710E00
827.19	6.7554E00
827.49	6.7872E00
827.79	6.5548E00
828.09	6.6594E00
828.39	6.6070E00
828.70	6.6281E00
829.00	6.4853E00
829.30	6.4672E00
829.60	6.5444E00
829.90	6.5263E00
830.20	6.5604E00
830.50	6.6625E00
830.80	6.7279E00
831.10	6.6155E00
831.40	6.7807E00
831.70	6.8594E00
832.00	6.9095E00
832.30	6.8205E00
832.60	6.8071E00
832.90	6.8655E00
833.20	6.7652E00
833.50	6.8782E00
833.80	6.8333E00
834.10	6.9006E00
834.40	6.9169E00
834.70	7.0120E00
835.00	7.0386E00
835.30	7.0443E00
835.60	7.1495E00
835.90	7.2038E00
836.20	7.2645E00
836.50	7.3876E00
836.80	7.4792E00
837.10	7.9698E00
837.40	7.5002E00
837.70	7.5865E00
838.00	7.5430E00
838.30	7.7743E00
838.60	7.6227E00
838.90	7.7758E00
839.19	8.2268E00
839.49	7.8677E00
839.79	7.7013E00
840.09	7.9031E00
840.39	7.8970E00
840.69	8.0018E00
840.99	8.2141E00
841.29	8.1693E00
841.59	8.0620E00
841.88	8.2483E00
842.18	8.2911E00
842.48	8.2819E00
842.78	8.3485E00
843.08	8.4850E00
843.38	8.4459E00
843.68	8.8915E00
843.97	8.7404E00
844.27	8.7056E00
844.57	8.5480E00
844.87	8.5349E00
845.17	8.9550E00
845.47	8.5797E00
845.76	8.9199E00
846.06	8.9434E00
846.36	9.5602E00
846.66	8.8414E00
846.96	8.9018E00
847.25	9.1796E00
847.55	8.9459E00
847.85	9.1453E00
848.15	9.3085E00
848.44	9.2682E00
848.74	9.3625E00
849.04	9.7031E00
849.34	9.6405E00
849.63	9.4382E00
849.93	9.4594E00
850.23	9.3606E00
850.53	9.5981E00
850.82	9.5238E00
851.12	9.8174E00
851.42	9.9774E00
851.71	1.0053E01
852.01	1.0112E01
852.31	1.0190E01
852.61	1.0433E01
852.90	1.0111E01
853.20	1.0598E01
853.50	1.0688E01
853.79	1.0501E01
854.09	1.0297E01
854.39	1.0456E01
854.68	1.0440E01
854.98	1.0681E01
855.28	1.0747E01
855.57	1.0933E01
855.87	1.1064E01
856.17	1.0836E01
856.46	1.1104E01
856.76	1.1027E01
857.05	1.1372E01
857.35	1.1450E01
857.65	1.1696E01
857.94	1.1370E01
858.24	1.1231E01
858.53	1.1359E01
858.83	1.2456E01
859.13	1.1650E01
859.42	1.1706E01
859.72	1.1742E01
860.01	1.2025E01
860.31	1.1724E01
860.60	1.2203E01
860.90	1.2487E01
861.20	1.1809E01
861.49	1.2171E01
861.79	1.2513E01
862.08	1.3742E01
862.38	1.2960E01
862.67	1.2597E01
862.97	1.2641E01
863.26	1.3210E01
863.56	1.3198E01
863.85	1.3734E01
864.15	1.3444E01
864.44	1.3386E01
864.74	1.3407E01
865.03	1.4112E01
865.33	1.4006E01
865.62	1.3588E01
865.92	1.3459E01
866.21	1.3526E01
866.51	1.3526E01
866.80	1.4168E01
867.10	1.3840E01
867.39	1.4072E01
867.69	1.4120E01
867.98	1.3668E01
868.27	1.3635E01
868.57	1.3814E01
868.86	1.3844E01
869.16	1.3139E01
869.45	1.3828E01
869.75	1.3550E01
870.04	1.3829E01
870.33	1.4034E01
870.63	1.4055E01
870.92	1.4313E01
871.22	1.5860E01
871.51	1.4436E01
871.80	1.4415E01
872.10	1.4415E01
>>>>>End Processed Spectral Data<<<<<
