SpectraSuite Data File
++++++++++++++++++++++++++++++++++++
Date: Fri May 15 10:53:32 PDT 2015
User: schluterlab
Dark Spectrum Present: Yes
Reference Spectrum Present: No
Number of Sampled Component Spectra: 1
Spectrometers: USB2E3373
Integration Time (usec): 2300000 (USB2E3373)
Spectra Averaged: 3 (USB2E3373)
Boxcar Smoothing: 0 (USB2E3373)
Correct for Electrical Dark: No (USB2E3373)
Strobe/Lamp Enabled: No (USB2E3373)
Correct for Detector Non-linearity: No (USB2E3373)
Correct for Stray Light: No (USB2E3373)
Number of Pixels in Processed Spectrum: 2048
>>>>>Begin Processed Spectral Data<<<<<
178.53	0.0000E00
178.91	0.0000E00
179.29	0.0000E00
179.67	0.0000E00
180.04	0.0000E00
180.42	0.0000E00
180.80	0.0000E00
181.18	0.0000E00
181.56	0.0000E00
181.94	0.0000E00
182.31	0.0000E00
182.69	0.0000E00
183.07	0.0000E00
183.45	0.0000E00
183.83	0.0000E00
184.20	0.0000E00
184.58	0.0000E00
184.96	0.0000E00
185.34	0.0000E00
185.72	0.0000E00
186.09	0.0000E00
186.47	0.0000E00
186.85	0.0000E00
187.23	0.0000E00
187.61	-0.0000E00
187.98	0.0000E00
188.36	0.0000E00
188.74	0.0000E00
189.12	0.0000E00
189.49	0.0000E00
189.87	0.0000E00
190.25	0.0000E00
190.63	0.0000E00
191.00	0.0000E00
191.38	0.0000E00
191.76	0.0000E00
192.14	0.0000E00
192.51	0.0000E00
192.89	0.0000E00
193.27	0.0000E00
193.65	0.0000E00
194.02	0.0000E00
194.40	0.0000E00
194.78	0.0000E00
195.15	0.0000E00
195.53	0.0000E00
195.91	0.0000E00
196.29	0.0000E00
196.66	0.0000E00
197.04	0.0000E00
197.42	0.0000E00
197.79	0.0000E00
198.17	0.0000E00
198.55	0.0000E00
198.92	0.0000E00
199.30	0.0000E00
199.68	0.0000E00
200.05	0.0000E00
200.43	0.0000E00
200.81	0.0000E00
201.18	0.0000E00
201.56	0.0000E00
201.94	0.0000E00
202.31	0.0000E00
202.69	0.0000E00
203.07	0.0000E00
203.44	0.0000E00
203.82	0.0000E00
204.19	0.0000E00
204.57	0.0000E00
204.95	0.0000E00
205.32	0.0000E00
205.70	0.0000E00
206.08	0.0000E00
206.45	0.0000E00
206.83	0.0000E00
207.20	0.0000E00
207.58	0.0000E00
207.96	0.0000E00
208.33	0.0000E00
208.71	0.0000E00
209.08	0.0000E00
209.46	0.0000E00
209.84	0.0000E00
210.21	0.0000E00
210.59	0.0000E00
210.96	0.0000E00
211.34	0.0000E00
211.71	0.0000E00
212.09	0.0000E00
212.46	0.0000E00
212.84	0.0000E00
213.22	0.0000E00
213.59	0.0000E00
213.97	0.0000E00
214.34	0.0000E00
214.72	0.0000E00
215.09	0.0000E00
215.47	0.0000E00
215.84	0.0000E00
216.22	0.0000E00
216.59	0.0000E00
216.97	0.0000E00
217.34	0.0000E00
217.72	0.0000E00
218.09	0.0000E00
218.47	0.0000E00
218.84	0.0000E00
219.22	0.0000E00
219.59	0.0000E00
219.97	0.0000E00
220.34	0.0000E00
220.72	0.0000E00
221.09	0.0000E00
221.47	0.0000E00
221.84	0.0000E00
222.22	0.0000E00
222.59	0.0000E00
222.97	0.0000E00
223.34	0.0000E00
223.72	0.0000E00
224.09	0.0000E00
224.46	0.0000E00
224.84	0.0000E00
225.21	0.0000E00
225.59	0.0000E00
225.96	0.0000E00
226.34	0.0000E00
226.71	0.0000E00
227.08	0.0000E00
227.46	0.0000E00
227.83	0.0000E00
228.21	0.0000E00
228.58	0.0000E00
228.95	0.0000E00
229.33	0.0000E00
229.70	0.0000E00
230.08	0.0000E00
230.45	0.0000E00
230.82	0.0000E00
231.20	0.0000E00
231.57	0.0000E00
231.95	0.0000E00
232.32	0.0000E00
232.69	0.0000E00
233.07	0.0000E00
233.44	-0.0000E00
233.81	0.0000E00
234.19	0.0000E00
234.56	0.0000E00
234.93	0.0000E00
235.31	0.0000E00
235.68	0.0000E00
236.05	0.0000E00
236.43	0.0000E00
236.80	-0.0000E00
237.17	0.0000E00
237.55	0.0000E00
237.92	0.0000E00
238.29	0.0000E00
238.67	0.0000E00
239.04	0.0000E00
239.41	0.0000E00
239.79	0.0000E00
240.16	0.0000E00
240.53	0.0000E00
240.91	0.0000E00
241.28	0.0000E00
241.65	0.0000E00
242.02	0.0000E00
242.40	0.0000E00
242.77	0.0000E00
243.14	0.0000E00
243.51	0.0000E00
243.89	0.0000E00
244.26	0.0000E00
244.63	0.0000E00
245.00	0.0000E00
245.38	0.0000E00
245.75	0.0000E00
246.12	0.0000E00
246.49	0.0000E00
246.87	0.0000E00
247.24	0.0000E00
247.61	0.0000E00
247.98	0.0000E00
248.36	0.0000E00
248.73	0.0000E00
249.10	0.0000E00
249.47	0.0000E00
249.84	0.0000E00
250.22	0.0000E00
250.59	0.0000E00
250.96	0.0000E00
251.33	0.0000E00
251.70	0.0000E00
252.08	0.0000E00
252.45	0.0000E00
252.82	0.0000E00
253.19	0.0000E00
253.56	0.0000E00
253.94	0.0000E00
254.31	0.0000E00
254.68	0.0000E00
255.05	0.0000E00
255.42	0.0000E00
255.79	0.0000E00
256.16	0.0000E00
256.54	0.0000E00
256.91	0.0000E00
257.28	0.0000E00
257.65	0.0000E00
258.02	0.0000E00
258.39	0.0000E00
258.76	0.0000E00
259.14	0.0000E00
259.51	0.0000E00
259.88	0.0000E00
260.25	0.0000E00
260.62	0.0000E00
260.99	0.0000E00
261.36	0.0000E00
261.73	0.0000E00
262.10	0.0000E00
262.47	0.0000E00
262.85	0.0000E00
263.22	0.0000E00
263.59	0.0000E00
263.96	0.0000E00
264.33	0.0000E00
264.70	0.0000E00
265.07	0.0000E00
265.44	0.0000E00
265.81	0.0000E00
266.18	0.0000E00
266.55	0.0000E00
266.92	0.0000E00
267.29	0.0000E00
267.66	0.0000E00
268.03	0.0000E00
268.40	0.0000E00
268.77	0.0000E00
269.14	0.0000E00
269.51	0.0000E00
269.88	0.0000E00
270.25	0.0000E00
270.62	0.0000E00
270.99	0.0000E00
271.36	0.0000E00
271.73	0.0000E00
272.10	0.0000E00
272.47	0.0000E00
272.84	0.0000E00
273.21	0.0000E00
273.58	0.0000E00
273.95	0.0000E00
274.32	0.0000E00
274.69	0.0000E00
275.06	0.0000E00
275.43	0.0000E00
275.80	0.0000E00
276.17	0.0000E00
276.54	0.0000E00
276.91	0.0000E00
277.28	0.0000E00
277.65	-0.0000E00
278.02	0.0000E00
278.39	0.0000E00
278.76	0.0000E00
279.13	0.0000E00
279.50	0.0000E00
279.87	0.0000E00
280.23	0.0000E00
280.60	0.0000E00
280.97	0.0000E00
281.34	0.0000E00
281.71	0.0000E00
282.08	0.0000E00
282.45	0.0000E00
282.82	0.0000E00
283.19	0.0000E00
283.56	0.0000E00
283.92	0.0000E00
284.29	0.0000E00
284.66	0.0000E00
285.03	0.0000E00
285.40	0.0000E00
285.77	0.0000E00
286.14	0.0000E00
286.51	0.0000E00
286.87	0.0000E00
287.24	0.0000E00
287.61	0.0000E00
287.98	0.0000E00
288.35	0.0000E00
288.72	0.0000E00
289.08	0.0000E00
289.45	0.0000E00
289.82	0.0000E00
290.19	0.0000E00
290.56	0.0000E00
290.93	0.0000E00
291.29	0.0000E00
291.66	0.0000E00
292.03	0.0000E00
292.40	0.0000E00
292.77	0.0000E00
293.13	0.0000E00
293.50	0.0000E00
293.87	0.0000E00
294.24	0.0000E00
294.60	0.0000E00
294.97	0.0000E00
295.34	0.0000E00
295.71	0.0000E00
296.08	0.0000E00
296.44	0.0000E00
296.81	0.0000E00
297.18	0.0000E00
297.55	0.0000E00
297.91	0.0000E00
298.28	0.0000E00
298.65	0.0000E00
299.02	0.0000E00
299.38	0.0000E00
299.75	0.0000E00
300.12	4.7952E-01
300.48	1.0710E00
300.85	1.1209E00
301.22	5.5009E-01
301.59	9.1346E-01
301.95	1.5825E00
302.32	5.7626E-01
302.69	4.8646E-01
303.05	6.5908E-01
303.42	1.1484E00
303.79	6.2585E-01
304.15	5.8486E-01
304.52	5.2485E-01
304.89	6.4813E-01
305.25	1.0525E00
305.62	7.7381E-01
305.99	6.6490E-01
306.35	1.3829E00
306.72	6.7866E-01
307.09	1.2702E00
307.45	1.6297E00
307.82	8.9608E-01
308.19	5.9347E00
308.55	9.7066E-01
308.92	9.2223E-01
309.29	1.1150E00
309.65	1.7420E00
310.02	1.1760E00
310.38	1.2024E00
310.75	9.0642E-01
311.12	1.4588E00
311.48	1.4872E00
311.85	9.3488E-01
312.22	1.2002E00
312.58	1.5024E00
312.95	1.4335E00
313.31	1.3740E00
313.68	1.1236E00
314.05	2.0309E00
314.41	9.8815E-01
314.78	2.5705E00
315.14	1.3515E00
315.51	1.4907E00
315.87	1.5017E00
316.24	1.8682E00
316.61	1.1038E00
316.97	2.4817E00
317.34	1.4144E00
317.70	1.6402E00
318.07	1.5727E00
318.43	9.5248E-01
318.80	1.1601E00
319.16	2.2615E00
319.53	9.0155E-01
319.89	1.4387E00
320.26	9.4090E-01
320.62	2.0662E00
320.99	1.7700E00
321.35	1.7877E00
321.72	1.0002E00
322.08	1.1350E00
322.45	1.3077E00
322.81	2.4608E00
323.18	1.1629E00
323.54	9.8613E-01
323.91	1.5092E00
324.27	1.1884E00
324.64	3.8267E00
325.00	4.2834E00
325.37	2.0389E00
325.73	2.4364E00
326.10	1.9607E00
326.46	1.4606E00
326.83	1.4155E00
327.19	1.7316E00
327.56	1.2109E00
327.92	2.5074E00
328.29	1.2191E00
328.65	9.8403E-01
329.01	1.2253E00
329.38	1.2661E00
329.74	1.5612E00
330.11	1.5031E00
330.47	3.1246E00
330.84	1.6238E00
331.20	8.6370E-01
331.56	4.0582E00
331.93	1.9296E00
332.29	1.7590E00
332.66	2.0178E00
333.02	1.7511E00
333.38	1.0855E00
333.75	2.3566E00
334.11	1.0521E00
334.48	1.6627E00
334.84	9.4860E-01
335.20	1.4195E00
335.57	1.6503E00
335.93	1.3636E00
336.29	1.4103E00
336.66	1.4093E00
337.02	1.1956E00
337.38	1.4600E00
337.75	1.1273E00
338.11	1.3601E00
338.47	1.0398E00
338.84	1.4132E00
339.20	1.5244E00
339.56	1.6589E00
339.93	1.5344E00
340.29	1.2160E00
340.65	1.0342E00
341.02	1.5611E00
341.38	1.0479E00
341.74	1.3271E00
342.11	4.6070E00
342.47	1.4931E00
342.83	1.3595E00
343.20	1.7017E00
343.56	1.4297E00
343.92	1.3988E00
344.28	1.0415E00
344.65	1.1614E00
345.01	9.6929E-01
345.37	1.1535E00
345.73	1.4201E00
346.10	1.3103E00
346.46	8.5748E-01
346.82	1.5081E00
347.19	1.6852E00
347.55	1.5353E00
347.91	1.9990E00
348.27	1.0755E00
348.63	1.5730E00
349.00	1.4902E00
349.36	1.3016E00
349.72	1.6626E00
350.08	1.2543E00
350.45	1.1231E00
350.81	1.3362E00
351.17	2.2181E00
351.53	1.8291E00
351.89	1.4304E00
352.26	9.2360E-01
352.62	9.9735E-01
352.98	1.0863E00
353.34	1.2761E00
353.70	1.4196E00
354.07	1.1460E00
354.43	1.0574E00
354.79	1.4340E00
355.15	1.2114E00
355.51	1.5290E00
355.87	9.2592E-01
356.24	9.2889E-01
356.60	1.0024E00
356.96	1.0880E00
357.32	1.0515E00
357.68	1.2204E00
358.04	9.8804E-01
358.40	1.4269E00
358.77	1.1665E00
359.13	8.4062E-01
359.49	1.2079E00
359.85	1.0219E00
360.21	1.2817E00
360.57	9.5355E-01
360.93	1.2485E00
361.29	1.2086E00
361.66	9.0704E-01
362.02	9.1611E-01
362.38	1.0726E00
362.74	9.0822E-01
363.10	8.5471E-01
363.46	9.4268E-01
363.82	9.6946E-01
364.18	1.0601E00
364.54	9.6252E-01
364.90	8.7068E-01
365.26	1.4561E00
365.62	8.5825E-01
365.98	1.1239E00
366.35	1.1023E00
366.71	9.2474E-01
367.07	1.0931E00
367.43	9.9808E-01
367.79	9.4446E-01
368.15	1.0979E00
368.51	1.1630E00
368.87	1.1580E00
369.23	9.6287E-01
369.59	1.0259E00
369.95	1.0793E00
370.31	9.3541E-01
370.67	8.8226E-01
371.03	9.7899E-01
371.39	1.0536E00
371.75	1.2028E00
372.11	1.0872E00
372.47	8.6954E-01
372.83	1.2944E00
373.19	1.1638E00
373.55	8.4981E-01
373.91	9.8367E-01
374.27	9.9259E-01
374.63	9.9056E-01
374.99	9.9944E-01
375.35	8.8032E-01
375.71	8.7962E-01
376.07	8.7852E-01
376.42	1.0240E00
376.78	1.0337E00
377.14	8.0924E-01
377.50	9.8714E-01
377.86	9.1926E-01
378.22	7.9009E-01
378.58	8.5366E-01
378.94	8.3965E-01
379.30	9.7051E-01
379.66	8.7652E-01
380.02	8.1993E-01
380.38	9.4345E-01
380.74	7.8506E-01
381.09	8.5730E-01
381.45	7.5385E-01
381.81	8.4038E-01
382.17	9.1329E-01
382.53	8.0481E-01
382.89	9.2379E-01
383.25	6.9177E-01
383.61	7.9881E-01
383.97	7.7248E-01
384.32	8.7776E-01
384.68	8.3258E-01
385.04	8.6688E-01
385.40	8.0845E-01
385.76	8.6409E-01
386.12	8.2355E-01
386.48	7.8253E-01
386.83	7.7115E-01
387.19	7.9918E-01
387.55	8.5612E-01
387.91	7.6736E-01
388.27	8.1516E-01
388.62	8.0726E-01
388.98	8.2027E-01
389.34	7.8732E-01
389.70	8.3033E-01
390.06	8.1169E-01
390.42	8.0387E-01
390.77	7.8774E-01
391.13	7.6369E-01
391.49	8.2169E-01
391.85	7.4663E-01
392.20	7.9707E-01
392.56	7.9058E-01
392.92	7.7196E-01
393.28	7.6163E-01
393.64	8.3999E-01
393.99	7.3894E-01
394.35	7.9435E-01
394.71	8.6204E-01
395.07	8.2121E-01
395.42	7.5322E-01
395.78	7.8732E-01
396.14	7.2949E-01
396.50	7.3269E-01
396.85	7.3560E-01
397.21	7.2771E-01
397.57	8.0902E-01
397.92	7.7677E-01
398.28	7.4288E-01
398.64	8.3840E-01
399.00	7.0389E-01
399.35	6.6660E-01
399.71	7.1331E-01
400.07	7.1620E-01
400.42	7.2575E-01
400.78	7.2273E-01
401.14	7.0738E-01
401.49	7.3223E-01
401.85	6.7015E-01
402.21	6.6085E-01
402.57	6.7939E-01
402.92	6.9228E-01
403.28	6.6391E-01
403.63	6.8488E-01
403.99	7.4333E-01
404.35	6.7639E-01
404.70	6.5623E-01
405.06	6.4390E-01
405.42	6.8403E-01
405.77	6.6921E-01
406.13	6.2032E-01
406.49	6.5992E-01
406.84	6.3346E-01
407.20	6.2908E-01
407.55	6.9181E-01
407.91	6.9995E-01
408.27	6.4518E-01
408.62	6.2560E-01
408.98	6.7791E-01
409.34	6.7314E-01
409.69	6.7081E-01
410.05	6.5501E-01
410.40	6.3421E-01
410.76	6.2332E-01
411.11	6.1403E-01
411.47	6.8459E-01
411.83	6.2452E-01
412.18	6.3557E-01
412.54	6.4292E-01
412.89	6.5994E-01
413.25	6.2713E-01
413.60	6.1403E-01
413.96	6.5602E-01
414.31	6.3501E-01
414.67	6.4003E-01
415.03	6.6396E-01
415.38	6.6587E-01
415.74	6.5705E-01
416.09	6.6781E-01
416.45	6.6294E-01
416.80	6.4124E-01
417.16	6.4132E-01
417.51	6.4005E-01
417.87	6.3256E-01
418.22	5.9833E-01
418.58	6.1258E-01
418.93	6.2204E-01
419.29	6.4614E-01
419.64	6.2921E-01
420.00	6.1002E-01
420.35	6.0160E-01
420.71	5.9995E-01
421.06	6.0529E-01
421.42	6.1497E-01
421.77	6.1847E-01
422.12	6.0025E-01
422.48	5.6433E-01
422.83	6.3085E-01
423.19	5.8406E-01
423.54	6.0183E-01
423.90	6.0575E-01
424.25	5.9439E-01
424.61	6.1634E-01
424.96	5.7873E-01
425.31	5.5442E-01
425.67	5.6513E-01
426.02	5.7095E-01
426.38	5.8061E-01
426.73	5.5639E-01
427.09	5.7805E-01
427.44	5.7336E-01
427.79	5.3822E-01
428.15	5.9173E-01
428.50	5.5746E-01
428.85	5.8689E-01
429.21	5.4041E-01
429.56	5.1270E-01
429.92	5.3349E-01
430.27	5.3496E-01
430.62	5.4655E-01
430.98	5.6601E-01
431.33	5.5293E-01
431.68	5.4536E-01
432.04	5.4556E-01
432.39	5.2641E-01
432.74	5.5342E-01
433.10	5.1740E-01
433.45	5.5966E-01
433.80	5.3729E-01
434.16	5.4972E-01
434.51	5.3412E-01
434.86	5.4089E-01
435.22	5.2203E-01
435.57	5.7161E-01
435.92	5.5218E-01
436.28	5.4422E-01
436.63	5.2072E-01
436.98	5.2943E-01
437.34	5.5343E-01
437.69	5.3424E-01
438.04	5.1177E-01
438.39	5.3722E-01
438.75	5.1792E-01
439.10	5.1174E-01
439.45	5.3850E-01
439.81	5.2520E-01
440.16	5.0643E-01
440.51	5.1350E-01
440.86	5.0620E-01
441.22	5.1252E-01
441.57	5.1898E-01
441.92	4.9420E-01
442.27	5.2628E-01
442.63	5.1634E-01
442.98	5.3111E-01
443.33	5.3194E-01
443.68	5.1500E-01
444.03	4.7957E-01
444.39	4.8425E-01
444.74	5.1016E-01
445.09	5.1326E-01
445.44	5.3535E-01
445.79	4.7338E-01
446.15	5.0164E-01
446.50	5.0389E-01
446.85	4.7352E-01
447.20	4.7996E-01
447.55	5.0386E-01
447.91	5.0298E-01
448.26	4.9253E-01
448.61	4.9274E-01
448.96	4.8783E-01
449.31	4.8553E-01
449.66	5.0614E-01
450.02	4.9014E-01
450.37	4.9138E-01
450.72	4.7850E-01
451.07	5.1354E-01
451.42	5.0643E-01
451.77	4.9176E-01
452.12	4.7835E-01
452.47	5.2082E-01
452.83	4.6597E-01
453.18	5.0228E-01
453.53	4.8123E-01
453.88	4.6412E-01
454.23	4.7226E-01
454.58	4.8033E-01
454.93	4.8281E-01
455.28	4.8435E-01
455.63	4.8039E-01
455.98	4.5806E-01
456.34	4.8076E-01
456.69	4.7461E-01
457.04	4.6269E-01
457.39	4.4884E-01
457.74	4.4762E-01
458.09	4.6055E-01
458.44	4.4446E-01
458.79	4.3292E-01
459.14	4.4465E-01
459.49	4.6541E-01
459.84	4.3864E-01
460.19	4.6746E-01
460.54	4.6322E-01
460.89	4.2934E-01
461.24	4.6775E-01
461.59	4.5528E-01
461.94	4.6022E-01
462.29	4.2559E-01
462.64	4.5582E-01
462.99	4.5550E-01
463.34	4.7309E-01
463.69	4.3793E-01
464.04	4.2858E-01
464.39	4.3742E-01
464.74	4.4225E-01
465.09	4.5157E-01
465.44	4.3895E-01
465.79	4.3856E-01
466.14	4.3927E-01
466.49	4.3574E-01
466.84	4.4005E-01
467.19	4.4444E-01
467.54	4.4465E-01
467.89	4.2207E-01
468.24	4.0992E-01
468.59	4.2339E-01
468.94	4.1361E-01
469.29	4.1510E-01
469.64	4.3125E-01
469.99	4.1232E-01
470.34	3.9681E-01
470.68	4.3110E-01
471.03	4.0203E-01
471.38	4.0580E-01
471.73	3.9573E-01
472.08	3.8616E-01
472.43	3.7815E-01
472.78	3.9279E-01
473.13	3.9289E-01
473.48	3.8291E-01
473.83	3.7664E-01
474.17	3.8376E-01
474.52	3.7950E-01
474.87	3.6218E-01
475.22	3.6732E-01
475.57	3.4874E-01
475.92	3.3653E-01
476.27	3.5742E-01
476.61	3.4222E-01
476.96	3.3778E-01
477.31	3.2144E-01
477.66	3.3109E-01
478.01	3.2644E-01
478.36	3.2211E-01
478.70	3.1952E-01
479.05	3.2453E-01
479.40	3.0815E-01
479.75	3.1004E-01
480.10	3.0715E-01
480.45	3.0343E-01
480.79	3.0232E-01
481.14	3.0957E-01
481.49	3.0114E-01
481.84	2.9285E-01
482.19	2.8847E-01
482.53	2.8862E-01
482.88	2.8733E-01
483.23	2.8334E-01
483.58	2.7866E-01
483.92	2.8525E-01
484.27	2.7256E-01
484.62	2.7342E-01
484.97	2.6813E-01
485.31	2.6405E-01
485.66	2.7063E-01
486.01	2.6889E-01
486.36	2.6205E-01
486.70	2.6611E-01
487.05	2.6466E-01
487.40	2.5914E-01
487.75	2.5146E-01
488.09	2.5573E-01
488.44	2.6269E-01
488.79	2.5243E-01
489.13	2.5433E-01
489.48	2.5472E-01
489.83	2.5650E-01
490.17	2.4852E-01
490.52	2.4888E-01
490.87	2.5018E-01
491.22	2.5286E-01
491.56	2.4834E-01
491.91	2.5193E-01
492.26	2.4943E-01
492.60	2.4868E-01
492.95	2.5010E-01
493.30	2.5234E-01
493.64	2.4730E-01
493.99	2.4950E-01
494.34	2.4756E-01
494.68	2.4299E-01
495.03	2.5022E-01
495.37	2.4637E-01
495.72	2.4878E-01
496.07	2.4466E-01
496.41	2.4796E-01
496.76	2.4607E-01
497.11	2.4778E-01
497.45	2.4615E-01
497.80	2.4805E-01
498.14	2.4816E-01
498.49	2.4835E-01
498.84	2.4727E-01
499.18	2.4598E-01
499.53	2.4907E-01
499.87	2.4721E-01
500.22	2.4948E-01
500.56	2.4806E-01
500.91	2.4650E-01
501.26	2.4825E-01
501.60	2.4783E-01
501.95	2.4434E-01
502.29	2.4601E-01
502.64	2.4636E-01
502.98	2.4805E-01
503.33	2.4843E-01
503.67	2.4675E-01
504.02	2.4577E-01
504.36	2.4418E-01
504.71	2.4584E-01
505.06	2.4586E-01
505.40	2.4539E-01
505.75	2.4332E-01
506.09	2.4400E-01
506.44	2.4254E-01
506.78	2.4398E-01
507.13	2.4397E-01
507.47	2.4144E-01
507.82	2.4081E-01
508.16	2.4110E-01
508.51	2.4040E-01
508.85	2.3958E-01
509.19	2.3940E-01
509.54	2.4238E-01
509.88	2.4086E-01
510.23	2.3839E-01
510.57	2.3767E-01
510.92	2.4113E-01
511.26	2.3880E-01
511.61	2.3868E-01
511.95	2.3917E-01
512.30	2.3744E-01
512.64	2.3829E-01
512.98	2.3784E-01
513.33	2.3707E-01
513.67	2.3726E-01
514.02	2.3581E-01
514.36	2.3530E-01
514.70	2.3612E-01
515.05	2.3523E-01
515.39	2.3581E-01
515.74	2.3326E-01
516.08	2.3563E-01
516.42	2.3356E-01
516.77	2.3390E-01
517.11	2.3250E-01
517.46	2.3486E-01
517.80	2.3241E-01
518.14	2.3329E-01
518.49	2.3327E-01
518.83	2.3077E-01
519.17	2.3444E-01
519.52	2.3207E-01
519.86	2.3151E-01
520.20	2.2961E-01
520.55	2.3111E-01
520.89	2.3197E-01
521.23	2.3191E-01
521.58	2.3129E-01
521.92	2.3532E-01
522.26	2.3367E-01
522.61	2.3040E-01
522.95	2.3172E-01
523.29	2.3154E-01
523.64	2.3066E-01
523.98	2.3082E-01
524.32	2.3287E-01
524.66	2.3237E-01
525.01	2.3409E-01
525.35	2.3422E-01
525.69	2.3460E-01
526.04	2.3513E-01
526.38	2.3165E-01
526.72	2.3473E-01
527.06	2.3427E-01
527.41	2.3773E-01
527.75	2.3846E-01
528.09	2.3519E-01
528.43	2.3716E-01
528.78	2.3476E-01
529.12	2.4104E-01
529.46	2.3901E-01
529.80	2.3889E-01
530.15	2.3988E-01
530.49	2.4119E-01
530.83	2.4197E-01
531.17	2.4215E-01
531.51	2.4294E-01
531.86	2.4368E-01
532.20	2.4610E-01
532.54	2.4596E-01
532.88	2.4591E-01
533.22	2.4721E-01
533.57	2.4781E-01
533.91	2.5013E-01
534.25	2.5010E-01
534.59	2.4892E-01
534.93	2.5023E-01
535.27	2.5142E-01
535.62	2.5357E-01
535.96	2.5542E-01
536.30	2.5549E-01
536.64	2.5614E-01
536.98	2.5692E-01
537.32	2.5716E-01
537.66	2.5652E-01
538.01	2.6000E-01
538.35	2.6163E-01
538.69	2.5946E-01
539.03	2.6479E-01
539.37	2.6158E-01
539.71	2.6357E-01
540.05	2.6374E-01
540.39	2.6433E-01
540.73	2.6653E-01
541.07	2.6469E-01
541.42	2.6490E-01
541.76	2.6533E-01
542.10	2.6546E-01
542.44	2.6763E-01
542.78	2.6789E-01
543.12	2.6800E-01
543.46	2.7336E-01
543.80	2.7020E-01
544.14	2.7146E-01
544.48	2.6846E-01
544.82	2.7161E-01
545.16	2.7143E-01
545.50	2.7052E-01
545.84	2.7489E-01
546.18	2.7213E-01
546.52	2.7512E-01
546.86	2.7126E-01
547.20	2.7410E-01
547.54	2.7941E-01
547.88	2.7461E-01
548.22	2.7554E-01
548.56	2.7603E-01
548.90	2.7411E-01
549.24	2.7791E-01
549.58	2.7742E-01
549.92	2.7752E-01
550.26	2.8075E-01
550.60	2.7868E-01
550.94	2.7449E-01
551.28	2.8142E-01
551.62	2.7876E-01
551.96	2.8121E-01
552.30	2.7991E-01
552.64	2.8182E-01
552.98	2.7970E-01
553.32	2.8007E-01
553.66	2.7797E-01
554.00	2.7891E-01
554.34	2.8163E-01
554.68	2.8257E-01
555.02	2.8172E-01
555.36	2.8127E-01
555.69	2.8405E-01
556.03	2.8293E-01
556.37	2.8297E-01
556.71	2.8176E-01
557.05	2.8039E-01
557.39	2.8211E-01
557.73	2.8152E-01
558.07	2.8352E-01
558.41	2.8198E-01
558.75	2.8285E-01
559.08	2.8383E-01
559.42	2.7906E-01
559.76	2.8343E-01
560.10	2.8257E-01
560.44	2.8337E-01
560.78	2.8076E-01
561.12	2.8234E-01
561.45	2.8324E-01
561.79	2.8381E-01
562.13	2.8242E-01
562.47	2.8236E-01
562.81	2.8668E-01
563.15	2.8592E-01
563.48	2.8412E-01
563.82	2.8223E-01
564.16	2.8459E-01
564.50	2.8545E-01
564.84	2.8519E-01
565.17	2.8495E-01
565.51	2.8191E-01
565.85	2.8533E-01
566.19	2.8411E-01
566.52	2.8573E-01
566.86	2.8476E-01
567.20	2.8586E-01
567.54	2.8820E-01
567.88	2.8528E-01
568.21	2.8706E-01
568.55	2.8632E-01
568.89	2.8669E-01
569.23	2.8881E-01
569.56	2.8600E-01
569.90	2.8674E-01
570.24	2.8873E-01
570.57	2.8795E-01
570.91	2.9016E-01
571.25	2.8861E-01
571.59	2.8869E-01
571.92	2.8891E-01
572.26	2.9039E-01
572.60	2.9310E-01
572.93	2.9108E-01
573.27	2.9478E-01
573.61	2.9477E-01
573.95	2.9103E-01
574.28	2.9474E-01
574.62	2.9442E-01
574.96	2.9515E-01
575.29	2.9348E-01
575.63	2.9767E-01
575.97	2.9690E-01
576.30	3.0441E-01
576.64	2.9894E-01
576.98	3.0058E-01
577.31	3.0247E-01
577.65	3.0322E-01
577.98	3.0256E-01
578.32	3.0651E-01
578.66	3.0529E-01
578.99	3.0968E-01
579.33	3.0902E-01
579.67	3.0882E-01
580.00	3.0968E-01
580.34	3.1301E-01
580.67	3.1213E-01
581.01	3.1256E-01
581.35	3.1584E-01
581.68	3.1661E-01
582.02	3.1576E-01
582.35	3.1637E-01
582.69	3.1813E-01
583.02	3.2375E-01
583.36	3.2123E-01
583.70	3.2043E-01
584.03	3.2282E-01
584.37	3.2290E-01
584.70	3.2725E-01
585.04	3.2804E-01
585.37	3.2551E-01
585.71	3.2968E-01
586.04	3.2899E-01
586.38	3.2691E-01
586.72	3.3185E-01
587.05	3.3135E-01
587.39	3.3275E-01
587.72	3.3190E-01
588.06	3.3482E-01
588.39	3.3331E-01
588.73	3.3915E-01
589.06	3.3786E-01
589.40	3.3955E-01
589.73	3.4097E-01
590.07	3.4338E-01
590.40	3.4476E-01
590.73	3.4885E-01
591.07	3.4536E-01
591.40	3.4667E-01
591.74	3.4369E-01
592.07	3.4891E-01
592.41	3.4934E-01
592.74	3.4806E-01
593.08	3.4960E-01
593.41	3.5113E-01
593.75	3.4790E-01
594.08	3.5528E-01
594.41	3.5094E-01
594.75	3.5478E-01
595.08	3.5460E-01
595.42	3.5078E-01
595.75	3.5338E-01
596.09	3.5334E-01
596.42	3.5389E-01
596.75	3.5691E-01
597.09	3.6008E-01
597.42	3.5474E-01
597.75	3.5851E-01
598.09	3.5872E-01
598.42	3.5672E-01
598.76	3.6005E-01
599.09	3.6033E-01
599.42	3.6289E-01
599.76	3.6254E-01
600.09	3.6254E-01
600.42	3.6488E-01
600.76	3.6136E-01
601.09	3.6347E-01
601.42	3.7058E-01
601.76	3.6413E-01
602.09	3.6458E-01
602.42	3.6599E-01
602.76	3.6680E-01
603.09	3.6366E-01
603.42	3.6661E-01
603.76	3.6541E-01
604.09	3.6596E-01
604.42	3.6664E-01
604.76	3.6692E-01
605.09	3.7005E-01
605.42	3.6755E-01
605.75	3.7020E-01
606.09	3.6947E-01
606.42	3.6786E-01
606.75	3.7098E-01
607.09	3.6983E-01
607.42	3.6984E-01
607.75	3.7191E-01
608.08	3.7220E-01
608.42	3.7270E-01
608.75	3.7082E-01
609.08	3.7525E-01
609.41	3.7410E-01
609.75	3.7347E-01
610.08	3.7362E-01
610.41	3.7438E-01
610.74	3.7376E-01
611.07	3.7623E-01
611.41	3.7185E-01
611.74	3.7628E-01
612.07	3.8029E-01
612.40	3.7411E-01
612.73	3.7417E-01
613.07	3.7953E-01
613.40	3.7541E-01
613.73	3.7517E-01
614.06	3.7751E-01
614.39	3.7844E-01
614.72	3.8112E-01
615.06	3.7847E-01
615.39	3.8373E-01
615.72	3.7890E-01
616.05	3.8393E-01
616.38	3.8012E-01
616.71	3.8279E-01
617.05	3.7863E-01
617.38	3.8384E-01
617.71	3.7781E-01
618.04	3.8493E-01
618.37	3.8025E-01
618.70	3.7908E-01
619.03	3.8403E-01
619.36	3.7574E-01
619.69	3.8460E-01
620.03	3.7851E-01
620.36	3.8270E-01
620.69	3.8104E-01
621.02	3.8237E-01
621.35	3.7953E-01
621.68	3.7767E-01
622.01	3.7700E-01
622.34	3.8078E-01
622.67	3.8000E-01
623.00	3.7977E-01
623.33	3.7852E-01
623.66	3.8017E-01
623.99	3.8042E-01
624.32	3.7657E-01
624.65	3.7902E-01
624.99	3.7921E-01
625.32	3.8143E-01
625.65	3.7721E-01
625.98	3.7591E-01
626.31	3.7957E-01
626.64	3.8090E-01
626.97	3.7891E-01
627.30	3.7669E-01
627.63	3.7821E-01
627.96	3.7955E-01
628.29	3.7458E-01
628.62	3.8006E-01
628.95	3.7906E-01
629.28	3.7248E-01
629.61	3.8398E-01
629.94	3.7839E-01
630.26	3.8020E-01
630.59	3.8296E-01
630.92	3.8035E-01
631.25	3.8275E-01
631.58	3.8606E-01
631.91	3.8070E-01
632.24	3.8879E-01
632.57	3.8464E-01
632.90	3.8721E-01
633.23	3.8710E-01
633.56	3.8807E-01
633.89	3.8829E-01
634.22	3.8818E-01
634.55	3.9100E-01
634.88	3.9613E-01
635.20	3.9181E-01
635.53	3.9604E-01
635.86	3.9637E-01
636.19	4.0052E-01
636.52	4.0170E-01
636.85	4.0303E-01
637.18	4.0643E-01
637.51	4.0568E-01
637.83	4.0620E-01
638.16	4.0383E-01
638.49	4.1176E-01
638.82	4.0948E-01
639.15	4.1465E-01
639.48	4.1730E-01
639.81	4.2087E-01
640.13	4.1634E-01
640.46	4.2360E-01
640.79	4.2049E-01
641.12	4.2806E-01
641.45	4.2394E-01
641.77	4.2473E-01
642.10	4.3212E-01
642.43	4.3389E-01
642.76	4.3624E-01
643.09	4.3184E-01
643.41	4.3712E-01
643.74	4.3908E-01
644.07	4.3780E-01
644.40	4.4068E-01
644.73	4.4503E-01
645.05	4.4859E-01
645.38	4.4836E-01
645.71	4.5478E-01
646.04	4.5330E-01
646.36	4.5204E-01
646.69	4.6012E-01
647.02	4.5961E-01
647.35	4.5867E-01
647.67	4.6231E-01
648.00	4.6102E-01
648.33	4.6886E-01
648.66	4.6467E-01
648.98	4.6890E-01
649.31	4.6791E-01
649.64	4.6996E-01
649.96	4.7285E-01
650.29	4.7935E-01
650.62	4.7778E-01
650.94	4.8026E-01
651.27	4.7963E-01
651.60	4.8199E-01
651.92	4.8576E-01
652.25	4.8870E-01
652.58	4.8639E-01
652.90	4.8933E-01
653.23	4.8979E-01
653.56	4.9378E-01
653.88	4.9646E-01
654.21	4.9441E-01
654.54	4.9815E-01
654.86	5.0302E-01
655.19	4.9523E-01
655.52	5.0428E-01
655.84	5.0057E-01
656.17	5.0674E-01
656.49	5.0776E-01
656.82	5.0582E-01
657.15	5.1040E-01
657.47	5.0941E-01
657.80	5.1258E-01
658.13	5.1151E-01
658.45	5.1505E-01
658.78	5.1811E-01
659.10	5.1851E-01
659.43	5.2344E-01
659.75	5.1931E-01
660.08	5.1981E-01
660.41	5.2499E-01
660.73	5.2453E-01
661.06	5.2710E-01
661.38	5.2620E-01
661.71	5.3071E-01
662.03	5.2696E-01
662.36	5.3280E-01
662.68	5.3445E-01
663.01	5.2722E-01
663.33	5.3635E-01
663.66	5.3903E-01
663.98	5.4027E-01
664.31	5.3396E-01
664.63	5.4511E-01
664.96	5.3604E-01
665.28	5.4185E-01
665.61	5.4108E-01
665.93	5.4682E-01
666.26	5.4553E-01
666.58	5.4862E-01
666.91	5.4635E-01
667.23	5.5185E-01
667.56	5.5001E-01
667.88	5.4927E-01
668.21	5.5463E-01
668.53	5.5300E-01
668.86	5.5577E-01
669.18	5.5354E-01
669.50	5.6322E-01
669.83	5.6357E-01
670.15	5.6559E-01
670.48	5.6622E-01
670.80	5.6117E-01
671.13	5.6183E-01
671.45	5.6712E-01
671.77	5.6579E-01
672.10	5.6468E-01
672.42	5.7360E-01
672.75	5.6685E-01
673.07	5.7518E-01
673.39	5.7503E-01
673.72	5.7481E-01
674.04	5.7965E-01
674.37	5.7901E-01
674.69	5.7805E-01
675.01	5.8234E-01
675.34	5.8277E-01
675.66	5.8497E-01
675.98	5.7772E-01
676.31	5.8783E-01
676.63	5.8826E-01
676.95	5.8718E-01
677.28	5.9169E-01
677.60	5.8965E-01
677.92	5.9395E-01
678.25	5.9853E-01
678.57	5.9880E-01
678.89	5.9783E-01
679.22	5.9928E-01
679.54	5.9917E-01
679.86	6.0308E-01
680.18	6.0239E-01
680.51	6.0162E-01
680.83	6.1670E-01
681.15	6.0967E-01
681.48	6.1093E-01
681.80	6.1214E-01
682.12	6.0987E-01
682.44	6.1901E-01
682.77	6.1795E-01
683.09	6.2236E-01
683.41	6.2190E-01
683.73	6.2763E-01
684.06	6.2811E-01
684.38	6.2608E-01
684.70	6.2863E-01
685.02	6.2823E-01
685.34	6.3545E-01
685.67	6.3088E-01
685.99	6.4409E-01
686.31	6.3867E-01
686.63	6.4486E-01
686.96	6.4755E-01
687.28	6.4972E-01
687.60	6.4803E-01
687.92	6.4933E-01
688.24	6.6103E-01
688.56	6.5916E-01
688.89	6.5727E-01
689.21	6.6200E-01
689.53	6.6179E-01
689.85	6.7335E-01
690.17	6.6746E-01
690.49	6.7688E-01
690.82	6.7685E-01
691.14	6.8028E-01
691.46	6.7756E-01
691.78	6.8587E-01
692.10	6.8270E-01
692.42	6.8722E-01
692.74	6.9128E-01
693.06	6.9441E-01
693.39	6.9990E-01
693.71	7.0871E-01
694.03	7.0272E-01
694.35	7.0271E-01
694.67	7.1527E-01
694.99	7.1456E-01
695.31	7.2088E-01
695.63	7.2066E-01
695.95	7.2209E-01
696.27	7.2301E-01
696.59	7.2601E-01
696.91	7.3436E-01
697.23	7.3923E-01
697.56	7.3969E-01
697.88	7.4404E-01
698.20	7.4230E-01
698.52	7.4609E-01
698.84	7.5631E-01
699.16	7.6181E-01
699.48	7.5861E-01
699.80	7.6132E-01
700.12	7.7486E-01
700.44	7.7083E-01
700.76	7.7395E-01
701.08	7.7985E-01
701.40	7.8343E-01
701.72	7.8466E-01
702.04	7.9048E-01
702.36	7.8964E-01
702.68	7.9701E-01
703.00	8.0707E-01
703.32	8.0083E-01
703.64	8.1076E-01
703.96	8.0155E-01
704.28	8.1320E-01
704.60	8.2458E-01
704.91	8.2185E-01
705.23	8.2916E-01
705.55	8.3475E-01
705.87	8.4056E-01
706.19	8.3860E-01
706.51	8.3702E-01
706.83	8.3460E-01
707.15	8.6653E-01
707.47	8.5612E-01
707.79	8.6117E-01
708.11	8.6496E-01
708.43	8.6768E-01
708.74	8.7338E-01
709.06	8.8336E-01
709.38	8.8244E-01
709.70	8.8394E-01
710.02	8.8983E-01
710.34	8.8360E-01
710.66	8.9949E-01
710.98	9.0393E-01
711.29	9.0937E-01
711.61	9.2622E-01
711.93	9.2020E-01
712.25	9.2016E-01
712.57	9.3153E-01
712.89	9.3683E-01
713.20	9.3937E-01
713.52	9.4862E-01
713.84	9.4954E-01
714.16	9.4419E-01
714.48	9.5326E-01
714.80	9.6721E-01
715.11	9.6298E-01
715.43	9.7503E-01
715.75	9.7480E-01
716.07	9.8981E-01
716.39	9.7209E-01
716.70	9.8630E-01
717.02	9.8170E-01
717.34	1.0094E00
717.66	1.0009E00
717.97	1.0160E00
718.29	1.0250E00
718.61	1.0255E00
718.93	1.0272E00
719.24	1.0325E00
719.56	1.0522E00
719.88	1.0415E00
720.20	1.0620E00
720.51	1.0761E00
720.83	1.0634E00
721.15	1.0823E00
721.46	1.0887E00
721.78	1.0959E00
722.10	1.1092E00
722.42	1.1129E00
722.73	1.1122E00
723.05	1.1129E00
723.37	1.1285E00
723.68	1.1401E00
724.00	1.1394E00
724.32	1.1602E00
724.63	1.1481E00
724.95	1.1633E00
725.27	1.1654E00
725.58	1.1632E00
725.90	1.1589E00
726.22	1.1854E00
726.53	1.1728E00
726.85	1.1848E00
727.16	1.1895E00
727.48	1.1849E00
727.80	1.1977E00
728.11	1.2017E00
728.43	1.2050E00
728.74	1.2037E00
729.06	1.2101E00
729.38	1.2134E00
729.69	1.2116E00
730.01	1.2295E00
730.32	1.2277E00
730.64	1.2302E00
730.96	1.2188E00
731.27	1.2504E00
731.59	1.2353E00
731.90	1.2442E00
732.22	1.2501E00
732.53	1.2609E00
732.85	1.2595E00
733.16	1.2575E00
733.48	1.2537E00
733.80	1.2619E00
734.11	1.2714E00
734.43	1.2879E00
734.74	1.2911E00
735.06	1.2940E00
735.37	1.3039E00
735.69	1.3072E00
736.00	1.2971E00
736.32	1.3133E00
736.63	1.3064E00
736.95	1.3239E00
737.26	1.3345E00
737.58	1.3278E00
737.89	1.3567E00
738.21	1.3421E00
738.52	1.3411E00
738.83	1.3579E00
739.15	1.3456E00
739.46	1.3637E00
739.78	1.3619E00
740.09	1.3731E00
740.41	1.3620E00
740.72	1.3696E00
741.04	1.3678E00
741.35	1.3683E00
741.66	1.3936E00
741.98	1.3833E00
742.29	1.3781E00
742.61	1.3887E00
742.92	1.3953E00
743.23	1.3933E00
743.55	1.3961E00
743.86	1.3946E00
744.18	1.4019E00
744.49	1.4025E00
744.80	1.3930E00
745.12	1.3908E00
745.43	1.4012E00
745.74	1.3963E00
746.06	1.3979E00
746.37	1.3861E00
746.68	1.3997E00
747.00	1.3872E00
747.31	1.4021E00
747.62	1.3860E00
747.94	1.4185E00
748.25	1.4012E00
748.56	1.3999E00
748.88	1.3875E00
749.19	1.4072E00
749.50	1.3939E00
749.82	1.4000E00
750.13	1.4094E00
750.44	1.3974E00
750.75	1.3973E00
751.07	1.4030E00
751.38	1.3930E00
751.69	1.3938E00
752.01	1.4082E00
752.32	1.4165E00
752.63	1.4087E00
752.94	1.4054E00
753.26	1.4107E00
753.57	1.4197E00
753.88	1.4318E00
754.19	1.4141E00
754.51	1.4191E00
754.82	1.4364E00
755.13	1.4347E00
755.44	1.4439E00
755.75	1.4340E00
756.07	1.4422E00
756.38	1.4476E00
756.69	1.4537E00
757.00	1.4529E00
757.31	1.4808E00
757.63	1.4753E00
757.94	1.4834E00
758.25	1.4941E00
758.56	1.4772E00
758.87	1.4943E00
759.18	1.4990E00
759.50	1.5045E00
759.81	1.5082E00
760.12	1.5270E00
760.43	1.5361E00
760.74	1.5475E00
761.05	1.5445E00
761.36	1.5578E00
761.67	1.5631E00
761.99	1.5690E00
762.30	1.5682E00
762.61	1.5860E00
762.92	1.6035E00
763.23	1.6034E00
763.54	1.6267E00
763.85	1.6260E00
764.16	1.6481E00
764.47	1.6641E00
764.78	1.6818E00
765.10	1.6839E00
765.41	1.6868E00
765.72	1.7002E00
766.03	1.7401E00
766.34	1.7471E00
766.65	1.7355E00
766.96	1.7826E00
767.27	1.7726E00
767.58	1.7699E00
767.89	1.7965E00
768.20	1.8147E00
768.51	1.8133E00
768.82	1.8267E00
769.13	1.8404E00
769.44	1.8781E00
769.75	1.8913E00
770.06	1.9102E00
770.37	1.8877E00
770.68	1.9311E00
770.99	1.9519E00
771.30	1.9753E00
771.61	2.0119E00
771.92	2.0045E00
772.23	2.0044E00
772.54	2.0455E00
772.85	2.0336E00
773.16	2.0498E00
773.47	2.0914E00
773.78	2.0731E00
774.09	2.1208E00
774.39	2.1169E00
774.70	2.1545E00
775.01	2.1692E00
775.32	2.1934E00
775.63	2.2069E00
775.94	2.2313E00
776.25	2.2142E00
776.56	2.2512E00
776.87	2.3230E00
777.18	2.2895E00
777.48	2.3320E00
777.79	2.3515E00
778.10	2.3681E00
778.41	2.3831E00
778.72	2.4245E00
779.03	2.4253E00
779.34	2.4534E00
779.65	2.4588E00
779.95	2.4851E00
780.26	2.5051E00
780.57	2.5127E00
780.88	2.5453E00
781.19	2.5604E00
781.50	2.5752E00
781.80	2.6092E00
782.11	2.6440E00
782.42	2.6566E00
782.73	2.6267E00
783.04	2.7199E00
783.34	2.7078E00
783.65	2.7635E00
783.96	2.7708E00
784.27	2.7800E00
784.57	2.7663E00
784.88	2.8194E00
785.19	2.8344E00
785.50	2.8619E00
785.81	2.9061E00
786.11	2.8886E00
786.42	2.9268E00
786.73	2.9880E00
787.04	3.0056E00
787.34	3.0247E00
787.65	2.9891E00
787.96	3.0968E00
788.26	3.0709E00
788.57	3.1534E00
788.88	3.0871E00
789.19	3.2021E00
789.49	3.1854E00
789.80	3.2629E00
790.11	3.2671E00
790.41	3.2402E00
790.72	3.3343E00
791.03	3.3659E00
791.33	3.3481E00
791.64	3.4223E00
791.95	3.4088E00
792.25	3.4683E00
792.56	3.4720E00
792.87	3.4656E00
793.17	3.4869E00
793.48	3.5153E00
793.79	3.6015E00
794.09	3.6204E00
794.40	3.5951E00
794.70	3.5771E00
795.01	3.6890E00
795.32	3.6849E00
795.62	3.7222E00
795.93	3.7379E00
796.23	3.7719E00
796.54	3.7956E00
796.85	3.8415E00
797.15	3.8789E00
797.46	3.8305E00
797.76	3.9259E00
798.07	3.9664E00
798.37	3.9959E00
798.68	4.0270E00
798.99	4.0509E00
799.29	4.0583E00
799.60	4.1391E00
799.90	4.1393E00
800.21	4.2350E00
800.51	4.2206E00
800.82	4.2243E00
801.12	4.2885E00
801.43	4.3235E00
801.73	4.3097E00
802.04	4.4076E00
802.34	4.3981E00
802.65	4.4466E00
802.95	4.5149E00
803.26	4.4996E00
803.56	4.4781E00
803.87	4.5696E00
804.17	4.6360E00
804.48	4.5976E00
804.78	4.6538E00
805.09	4.7437E00
805.39	4.6638E00
805.70	4.7217E00
806.00	4.8010E00
806.30	4.8015E00
806.61	4.8305E00
806.91	4.8414E00
807.22	4.9452E00
807.52	4.9466E00
807.83	4.9618E00
808.13	5.0498E00
808.43	4.9689E00
808.74	5.0300E00
809.04	5.0897E00
809.35	5.1393E00
809.65	5.2122E00
809.95	5.2239E00
810.26	5.3454E00
810.56	5.2608E00
810.86	5.4699E00
811.17	5.3827E00
811.47	5.5339E00
811.77	5.4624E00
812.08	5.4438E00
812.38	5.5696E00
812.69	5.5463E00
812.99	5.5714E00
813.29	5.6383E00
813.59	5.6990E00
813.90	5.8315E00
814.20	5.7615E00
814.50	5.9326E00
814.81	5.7612E00
815.11	5.9954E00
815.41	6.0150E00
815.72	6.0410E00
816.02	6.0823E00
816.32	6.2049E00
816.62	5.9714E00
816.93	6.1703E00
817.23	6.3138E00
817.53	6.1221E00
817.84	6.3185E00
818.14	6.3755E00
818.44	6.3108E00
818.74	6.3488E00
819.04	6.6701E00
819.35	6.5697E00
819.65	6.4405E00
819.95	6.6352E00
820.25	6.7427E00
820.56	6.6185E00
820.86	6.7411E00
821.16	6.7490E00
821.46	6.9649E00
821.76	6.7017E00
822.07	6.8849E00
822.37	7.0375E00
822.67	7.1554E00
822.97	7.2874E00
823.27	7.1427E00
823.57	7.0987E00
823.88	7.3036E00
824.18	7.1645E00
824.48	7.3865E00
824.78	7.6031E00
825.08	7.4171E00
825.38	7.5610E00
825.69	7.5660E00
825.99	7.6029E00
826.29	7.4526E00
826.59	7.6872E00
826.89	7.8693E00
827.19	7.6690E00
827.49	7.9603E00
827.79	7.8753E00
828.09	8.0747E00
828.39	8.0895E00
828.70	8.0708E00
829.00	7.9238E00
829.30	8.0927E00
829.60	8.2593E00
829.90	8.1672E00
830.20	8.2700E00
830.50	8.5316E00
830.80	8.5051E00
831.10	8.4204E00
831.40	8.6064E00
831.70	8.6925E00
832.00	8.7475E00
832.30	8.8087E00
832.60	8.6840E00
832.90	8.8857E00
833.20	8.7977E00
833.50	8.9734E00
833.80	9.0336E00
834.10	9.1563E00
834.40	9.0859E00
834.70	9.2012E00
835.00	9.3365E00
835.30	9.2780E00
835.60	9.4154E00
835.90	9.5030E00
836.20	9.6433E00
836.50	9.6955E00
836.80	9.5438E00
837.10	9.6794E00
837.40	9.7027E00
837.70	9.7904E00
838.00	9.8863E00
838.30	1.0141E01
838.60	1.0010E01
838.90	1.0250E01
839.19	1.0356E01
839.49	1.0545E01
839.79	1.0061E01
840.09	1.0542E01
840.39	1.0343E01
840.69	1.0498E01
840.99	1.0813E01
841.29	1.0700E01
841.59	1.0836E01
841.88	1.1003E01
842.18	1.0892E01
842.48	1.1085E01
842.78	1.1162E01
843.08	1.1322E01
843.38	1.1268E01
843.68	1.1759E01
843.97	1.1610E01
844.27	1.1656E01
844.57	1.1532E01
844.87	1.1618E01
845.17	1.2050E01
845.47	1.1676E01
845.76	1.2137E01
846.06	1.2061E01
846.36	1.2128E01
846.66	1.2125E01
846.96	1.2102E01
847.25	1.2659E01
847.55	1.2315E01
847.85	1.2562E01
848.15	1.2681E01
848.44	1.2668E01
848.74	1.2775E01
849.04	1.3222E01
849.34	1.3011E01
849.63	1.3129E01
849.93	1.3315E01
850.23	1.3390E01
850.53	1.3555E01
850.82	1.3592E01
851.12	1.4028E01
851.42	1.3696E01
851.71	1.3843E01
852.01	1.4046E01
852.31	1.3964E01
852.61	1.4529E01
852.90	1.4165E01
853.20	1.4784E01
853.50	1.4590E01
853.79	1.4666E01
854.09	1.4677E01
854.39	1.5075E01
854.68	1.5273E01
854.98	1.5616E01
855.28	1.5438E01
855.57	1.5432E01
855.87	1.5640E01
856.17	1.5354E01
856.46	1.5873E01
856.76	1.5737E01
857.05	1.6218E01
857.35	1.6522E01
857.65	1.6479E01
857.94	1.6383E01
858.24	1.6310E01
858.53	1.6680E01
858.83	1.7503E01
859.13	1.7167E01
859.42	1.7131E01
859.72	1.7201E01
860.01	1.7672E01
860.31	1.7410E01
860.60	1.8069E01
860.90	1.8078E01
861.20	1.7768E01
861.49	1.8071E01
861.79	1.8332E01
862.08	1.8476E01
862.38	1.8505E01
862.67	1.8853E01
862.97	1.8904E01
863.26	1.9630E01
863.56	1.9509E01
863.85	2.0052E01
864.15	2.0481E01
864.44	2.0194E01
864.74	1.9950E01
865.03	2.0741E01
865.33	2.0932E01
865.62	2.0932E01
865.92	2.0690E01
866.21	2.1038E01
866.51	2.1333E01
866.80	2.1939E01
867.10	2.1361E01
867.39	2.2298E01
867.69	2.2247E01
867.98	2.2637E01
868.27	2.2917E01
868.57	2.3490E01
868.86	2.3078E01
869.16	2.2814E01
869.45	2.3936E01
869.75	2.3431E01
870.04	2.3943E01
870.33	2.4374E01
870.63	2.4702E01
870.92	2.4919E01
871.22	2.5586E01
871.51	2.5707E01
871.80	2.5333E01
872.10	2.5333E01
>>>>>End Processed Spectral Data<<<<<
