SpectraSuite Data File
++++++++++++++++++++++++++++++++++++
Date: Fri May 15 10:52:04 PDT 2015
User: schluterlab
Dark Spectrum Present: Yes
Reference Spectrum Present: No
Number of Sampled Component Spectra: 1
Spectrometers: USB2E3373
Integration Time (usec): 2300000 (USB2E3373)
Spectra Averaged: 3 (USB2E3373)
Boxcar Smoothing: 0 (USB2E3373)
Correct for Electrical Dark: No (USB2E3373)
Strobe/Lamp Enabled: No (USB2E3373)
Correct for Detector Non-linearity: No (USB2E3373)
Correct for Stray Light: No (USB2E3373)
Number of Pixels in Processed Spectrum: 2048
>>>>>Begin Processed Spectral Data<<<<<
178.53	0.0000E00
178.91	0.0000E00
179.29	0.0000E00
179.67	0.0000E00
180.04	0.0000E00
180.42	0.0000E00
180.80	0.0000E00
181.18	0.0000E00
181.56	0.0000E00
181.94	0.0000E00
182.31	0.0000E00
182.69	0.0000E00
183.07	0.0000E00
183.45	0.0000E00
183.83	0.0000E00
184.20	0.0000E00
184.58	0.0000E00
184.96	0.0000E00
185.34	0.0000E00
185.72	0.0000E00
186.09	0.0000E00
186.47	0.0000E00
186.85	0.0000E00
187.23	0.0000E00
187.61	-0.0000E00
187.98	0.0000E00
188.36	0.0000E00
188.74	0.0000E00
189.12	0.0000E00
189.49	0.0000E00
189.87	0.0000E00
190.25	0.0000E00
190.63	0.0000E00
191.00	0.0000E00
191.38	0.0000E00
191.76	0.0000E00
192.14	0.0000E00
192.51	0.0000E00
192.89	0.0000E00
193.27	0.0000E00
193.65	0.0000E00
194.02	0.0000E00
194.40	0.0000E00
194.78	0.0000E00
195.15	0.0000E00
195.53	0.0000E00
195.91	0.0000E00
196.29	0.0000E00
196.66	0.0000E00
197.04	0.0000E00
197.42	0.0000E00
197.79	0.0000E00
198.17	0.0000E00
198.55	0.0000E00
198.92	0.0000E00
199.30	0.0000E00
199.68	0.0000E00
200.05	0.0000E00
200.43	0.0000E00
200.81	0.0000E00
201.18	0.0000E00
201.56	0.0000E00
201.94	0.0000E00
202.31	0.0000E00
202.69	0.0000E00
203.07	0.0000E00
203.44	0.0000E00
203.82	0.0000E00
204.19	0.0000E00
204.57	0.0000E00
204.95	0.0000E00
205.32	0.0000E00
205.70	0.0000E00
206.08	0.0000E00
206.45	0.0000E00
206.83	0.0000E00
207.20	0.0000E00
207.58	0.0000E00
207.96	0.0000E00
208.33	0.0000E00
208.71	0.0000E00
209.08	0.0000E00
209.46	0.0000E00
209.84	0.0000E00
210.21	0.0000E00
210.59	0.0000E00
210.96	0.0000E00
211.34	0.0000E00
211.71	0.0000E00
212.09	0.0000E00
212.46	0.0000E00
212.84	0.0000E00
213.22	0.0000E00
213.59	0.0000E00
213.97	0.0000E00
214.34	0.0000E00
214.72	0.0000E00
215.09	0.0000E00
215.47	0.0000E00
215.84	0.0000E00
216.22	0.0000E00
216.59	0.0000E00
216.97	0.0000E00
217.34	0.0000E00
217.72	0.0000E00
218.09	0.0000E00
218.47	0.0000E00
218.84	0.0000E00
219.22	0.0000E00
219.59	0.0000E00
219.97	0.0000E00
220.34	0.0000E00
220.72	0.0000E00
221.09	0.0000E00
221.47	0.0000E00
221.84	0.0000E00
222.22	0.0000E00
222.59	0.0000E00
222.97	0.0000E00
223.34	0.0000E00
223.72	0.0000E00
224.09	0.0000E00
224.46	0.0000E00
224.84	0.0000E00
225.21	0.0000E00
225.59	0.0000E00
225.96	0.0000E00
226.34	0.0000E00
226.71	0.0000E00
227.08	0.0000E00
227.46	0.0000E00
227.83	0.0000E00
228.21	0.0000E00
228.58	0.0000E00
228.95	0.0000E00
229.33	0.0000E00
229.70	0.0000E00
230.08	0.0000E00
230.45	0.0000E00
230.82	0.0000E00
231.20	0.0000E00
231.57	0.0000E00
231.95	0.0000E00
232.32	0.0000E00
232.69	0.0000E00
233.07	0.0000E00
233.44	-0.0000E00
233.81	0.0000E00
234.19	0.0000E00
234.56	0.0000E00
234.93	0.0000E00
235.31	0.0000E00
235.68	0.0000E00
236.05	0.0000E00
236.43	0.0000E00
236.80	-0.0000E00
237.17	0.0000E00
237.55	0.0000E00
237.92	0.0000E00
238.29	0.0000E00
238.67	0.0000E00
239.04	0.0000E00
239.41	0.0000E00
239.79	0.0000E00
240.16	0.0000E00
240.53	0.0000E00
240.91	0.0000E00
241.28	0.0000E00
241.65	0.0000E00
242.02	0.0000E00
242.40	0.0000E00
242.77	0.0000E00
243.14	0.0000E00
243.51	0.0000E00
243.89	0.0000E00
244.26	0.0000E00
244.63	0.0000E00
245.00	0.0000E00
245.38	0.0000E00
245.75	0.0000E00
246.12	0.0000E00
246.49	0.0000E00
246.87	0.0000E00
247.24	0.0000E00
247.61	0.0000E00
247.98	0.0000E00
248.36	0.0000E00
248.73	0.0000E00
249.10	0.0000E00
249.47	0.0000E00
249.84	0.0000E00
250.22	0.0000E00
250.59	0.0000E00
250.96	0.0000E00
251.33	0.0000E00
251.70	0.0000E00
252.08	0.0000E00
252.45	0.0000E00
252.82	0.0000E00
253.19	0.0000E00
253.56	0.0000E00
253.94	0.0000E00
254.31	0.0000E00
254.68	0.0000E00
255.05	0.0000E00
255.42	0.0000E00
255.79	0.0000E00
256.16	0.0000E00
256.54	0.0000E00
256.91	0.0000E00
257.28	0.0000E00
257.65	0.0000E00
258.02	0.0000E00
258.39	0.0000E00
258.76	0.0000E00
259.14	0.0000E00
259.51	0.0000E00
259.88	0.0000E00
260.25	0.0000E00
260.62	0.0000E00
260.99	0.0000E00
261.36	0.0000E00
261.73	0.0000E00
262.10	0.0000E00
262.47	0.0000E00
262.85	0.0000E00
263.22	0.0000E00
263.59	0.0000E00
263.96	0.0000E00
264.33	0.0000E00
264.70	0.0000E00
265.07	0.0000E00
265.44	0.0000E00
265.81	0.0000E00
266.18	0.0000E00
266.55	0.0000E00
266.92	0.0000E00
267.29	0.0000E00
267.66	0.0000E00
268.03	0.0000E00
268.40	0.0000E00
268.77	0.0000E00
269.14	0.0000E00
269.51	0.0000E00
269.88	0.0000E00
270.25	0.0000E00
270.62	0.0000E00
270.99	0.0000E00
271.36	0.0000E00
271.73	0.0000E00
272.10	0.0000E00
272.47	0.0000E00
272.84	0.0000E00
273.21	0.0000E00
273.58	0.0000E00
273.95	0.0000E00
274.32	0.0000E00
274.69	0.0000E00
275.06	0.0000E00
275.43	0.0000E00
275.80	0.0000E00
276.17	0.0000E00
276.54	0.0000E00
276.91	0.0000E00
277.28	0.0000E00
277.65	-0.0000E00
278.02	0.0000E00
278.39	0.0000E00
278.76	0.0000E00
279.13	0.0000E00
279.50	0.0000E00
279.87	0.0000E00
280.23	0.0000E00
280.60	0.0000E00
280.97	0.0000E00
281.34	0.0000E00
281.71	0.0000E00
282.08	0.0000E00
282.45	0.0000E00
282.82	0.0000E00
283.19	0.0000E00
283.56	0.0000E00
283.92	0.0000E00
284.29	0.0000E00
284.66	0.0000E00
285.03	0.0000E00
285.40	0.0000E00
285.77	0.0000E00
286.14	0.0000E00
286.51	0.0000E00
286.87	0.0000E00
287.24	0.0000E00
287.61	0.0000E00
287.98	0.0000E00
288.35	0.0000E00
288.72	0.0000E00
289.08	0.0000E00
289.45	0.0000E00
289.82	0.0000E00
290.19	0.0000E00
290.56	0.0000E00
290.93	0.0000E00
291.29	0.0000E00
291.66	0.0000E00
292.03	0.0000E00
292.40	0.0000E00
292.77	0.0000E00
293.13	0.0000E00
293.50	0.0000E00
293.87	0.0000E00
294.24	0.0000E00
294.60	0.0000E00
294.97	0.0000E00
295.34	0.0000E00
295.71	0.0000E00
296.08	0.0000E00
296.44	0.0000E00
296.81	0.0000E00
297.18	0.0000E00
297.55	0.0000E00
297.91	0.0000E00
298.28	0.0000E00
298.65	0.0000E00
299.02	0.0000E00
299.38	0.0000E00
299.75	0.0000E00
300.12	7.3077E-01
300.48	1.6290E00
300.85	1.7188E00
301.22	8.5621E-01
301.59	1.4358E00
301.95	2.5192E00
302.32	9.3342E-01
302.69	8.0047E-01
303.05	1.1140E00
303.42	1.9476E00
303.79	1.0520E00
304.15	9.5289E-01
304.52	8.6722E-01
304.89	1.0310E00
305.25	1.6096E00
305.62	1.1672E00
305.99	9.7310E-01
306.35	2.0031E00
306.72	9.6473E-01
307.09	1.6549E00
307.45	2.1209E00
307.82	1.1374E00
308.19	7.3708E00
308.55	1.1773E00
308.92	1.0883E00
309.29	1.3328E00
309.65	1.8328E00
310.02	1.3325E00
310.38	1.3326E00
310.75	9.4814E-01
311.12	1.4722E00
311.48	1.4758E00
311.85	9.2570E-01
312.22	1.1895E00
312.58	1.4916E00
312.95	1.4279E00
313.31	1.3691E00
313.68	1.1216E00
314.05	2.0298E00
314.41	9.8806E-01
314.78	2.5690E00
315.14	1.3509E00
315.51	1.4901E00
315.87	1.5018E00
316.24	1.8685E00
316.61	1.1028E00
316.97	2.4812E00
317.34	1.4140E00
317.70	1.6394E00
318.07	1.5738E00
318.43	9.5232E-01
318.80	1.1604E00
319.16	2.2607E00
319.53	9.0140E-01
319.89	1.4386E00
320.26	9.4090E-01
320.62	2.0653E00
320.99	1.7703E00
321.35	1.7863E00
321.72	9.9983E-01
322.08	1.1346E00
322.45	1.3081E00
322.81	2.4591E00
323.18	1.1627E00
323.54	9.8665E-01
323.91	1.5094E00
324.27	1.1892E00
324.64	3.8280E00
325.00	4.2834E00
325.37	2.0414E00
325.73	2.4385E00
326.10	1.9609E00
326.46	1.4607E00
326.83	1.4163E00
327.19	1.7320E00
327.56	1.2106E00
327.92	2.5067E00
328.29	1.2195E00
328.65	9.8446E-01
329.01	1.2264E00
329.38	1.2667E00
329.74	1.5616E00
330.11	1.5047E00
330.47	3.1257E00
330.84	1.6248E00
331.20	8.6370E-01
331.56	4.0582E00
331.93	1.9299E00
332.29	1.7602E00
332.66	2.0180E00
333.02	1.7523E00
333.38	1.0859E00
333.75	2.3582E00
334.11	1.0528E00
334.48	1.6644E00
334.84	9.4918E-01
335.20	1.4197E00
335.57	1.6522E00
335.93	1.3651E00
336.29	1.4121E00
336.66	1.4104E00
337.02	1.1960E00
337.38	1.4609E00
337.75	1.1272E00
338.11	1.3607E00
338.47	1.0403E00
338.84	1.4127E00
339.20	1.5252E00
339.56	1.6578E00
339.93	1.5351E00
340.29	1.2146E00
340.65	1.0339E00
341.02	1.5599E00
341.38	1.0471E00
341.74	1.3265E00
342.11	4.6033E00
342.47	1.4914E00
342.83	1.3587E00
343.20	1.7005E00
343.56	1.4292E00
343.92	1.3968E00
344.28	1.0399E00
344.65	1.1605E00
345.01	9.6802E-01
345.37	1.1519E00
345.73	1.4191E00
346.10	1.3084E00
346.46	8.5673E-01
346.82	1.5060E00
347.19	1.6829E00
347.55	1.5333E00
347.91	1.9964E00
348.27	1.0736E00
348.63	1.5707E00
349.00	1.4879E00
349.36	1.3006E00
349.72	1.6592E00
350.08	1.2532E00
350.45	1.1214E00
350.81	1.3350E00
351.17	2.2168E00
351.53	1.8277E00
351.89	1.4285E00
352.26	9.2239E-01
352.62	9.9639E-01
352.98	1.0837E00
353.34	1.2744E00
353.70	1.4163E00
354.07	1.1446E00
354.43	1.0559E00
354.79	1.4323E00
355.15	1.2090E00
355.51	1.5265E00
355.87	9.2503E-01
356.24	9.2710E-01
356.60	1.0009E00
356.96	1.0868E00
357.32	1.0495E00
357.68	1.2194E00
358.04	9.8579E-01
358.40	1.4244E00
358.77	1.1646E00
359.13	8.3929E-01
359.49	1.2063E00
359.85	1.0195E00
360.21	1.2791E00
360.57	9.5254E-01
360.93	1.2458E00
361.29	1.2066E00
361.66	9.0561E-01
362.02	9.1450E-01
362.38	1.0706E00
362.74	9.0782E-01
363.10	8.5419E-01
363.46	9.4102E-01
363.82	9.6784E-01
364.18	1.0592E00
364.54	9.6142E-01
364.90	8.6999E-01
365.26	1.4552E00
365.62	8.5697E-01
365.98	1.1228E00
366.35	1.1013E00
366.71	9.2263E-01
367.07	1.0919E00
367.43	9.9729E-01
367.79	9.4363E-01
368.15	1.0972E00
368.51	1.1622E00
368.87	1.1563E00
369.23	9.6237E-01
369.59	1.0252E00
369.95	1.0794E00
370.31	9.3442E-01
370.67	8.8157E-01
371.03	9.7804E-01
371.39	1.0522E00
371.75	1.2018E00
372.11	1.0874E00
372.47	8.6901E-01
372.83	1.2941E00
373.19	1.1640E00
373.55	8.4907E-01
373.91	9.8272E-01
374.27	9.9181E-01
374.63	9.8986E-01
374.99	9.9962E-01
375.35	8.7963E-01
375.71	8.7892E-01
376.07	8.7790E-01
376.42	1.0235E00
376.78	1.0330E00
377.14	8.0903E-01
377.50	9.8602E-01
377.86	9.1885E-01
378.22	7.8981E-01
378.58	8.5343E-01
378.94	8.3965E-01
379.30	9.7026E-01
379.66	8.7598E-01
380.02	8.1892E-01
380.38	9.4287E-01
380.74	7.8423E-01
381.09	8.5746E-01
381.45	7.5338E-01
381.81	8.3927E-01
382.17	9.1225E-01
382.53	8.0460E-01
382.89	9.2250E-01
383.25	6.9135E-01
383.61	7.9832E-01
383.97	7.7200E-01
384.32	8.7683E-01
384.68	8.3295E-01
385.04	8.6612E-01
385.40	8.0802E-01
385.76	8.6371E-01
386.12	8.2319E-01
386.48	7.8177E-01
386.83	7.7013E-01
387.19	7.9806E-01
387.55	8.5612E-01
387.91	7.6702E-01
388.27	8.1494E-01
388.62	8.0683E-01
388.98	8.1947E-01
389.34	7.8670E-01
389.70	8.2953E-01
390.06	8.1183E-01
390.42	8.0359E-01
390.77	7.8767E-01
391.13	7.6362E-01
391.49	8.2040E-01
391.85	7.4624E-01
392.20	7.9651E-01
392.56	7.9002E-01
392.92	7.7162E-01
393.28	7.6123E-01
393.64	8.3895E-01
393.99	7.3855E-01
394.35	7.9386E-01
394.71	8.6113E-01
395.07	8.2100E-01
395.42	7.5289E-01
395.78	7.8677E-01
396.14	7.2910E-01
396.50	7.3256E-01
396.85	7.3482E-01
397.21	7.2752E-01
397.57	8.0895E-01
397.92	7.7636E-01
398.28	7.4269E-01
398.64	8.3826E-01
399.00	7.0303E-01
399.35	6.6590E-01
399.71	7.1293E-01
400.07	7.1589E-01
400.42	7.2588E-01
400.78	7.2185E-01
401.14	7.0682E-01
401.49	7.3223E-01
401.85	6.7004E-01
402.21	6.6085E-01
402.57	6.7898E-01
402.92	6.9228E-01
403.28	6.6304E-01
403.63	6.8458E-01
403.99	7.4346E-01
404.35	6.7609E-01
404.70	6.5560E-01
405.06	6.4328E-01
405.42	6.8331E-01
405.77	6.6821E-01
406.13	6.2016E-01
406.49	6.5905E-01
406.84	6.3312E-01
407.20	6.2886E-01
407.55	6.9139E-01
407.91	6.9976E-01
408.27	6.4501E-01
408.62	6.2499E-01
408.98	6.7808E-01
409.34	6.7302E-01
409.69	6.7081E-01
410.05	6.5426E-01
410.40	6.3349E-01
410.76	6.2255E-01
411.11	6.1381E-01
411.47	6.8411E-01
411.83	6.2430E-01
412.18	6.3580E-01
412.54	6.4252E-01
412.89	6.5919E-01
413.25	6.2680E-01
413.60	6.1355E-01
413.96	6.5509E-01
414.31	6.3479E-01
414.67	6.3992E-01
415.03	6.6384E-01
415.38	6.6534E-01
415.74	6.5648E-01
416.09	6.6740E-01
416.45	6.6247E-01
416.80	6.4095E-01
417.16	6.4121E-01
417.51	6.3955E-01
417.87	6.3262E-01
418.22	5.9817E-01
418.58	6.1226E-01
418.93	6.2160E-01
419.29	6.4614E-01
419.64	6.2872E-01
420.00	6.0959E-01
420.35	6.0092E-01
420.71	5.9974E-01
421.06	6.0466E-01
421.42	6.1480E-01
421.77	6.1798E-01
422.12	5.9993E-01
422.48	5.6398E-01
422.83	6.3068E-01
423.19	5.8349E-01
423.54	6.0194E-01
423.90	6.0512E-01
424.25	5.9428E-01
424.61	6.1552E-01
424.96	5.7843E-01
425.31	5.5398E-01
425.67	5.6523E-01
426.02	5.7090E-01
426.38	5.8030E-01
426.73	5.5604E-01
427.09	5.7779E-01
427.44	5.7285E-01
427.79	5.3798E-01
428.15	5.9132E-01
428.50	5.5731E-01
428.85	5.8653E-01
429.21	5.4032E-01
429.56	5.1216E-01
429.92	5.3344E-01
430.27	5.3478E-01
430.62	5.4607E-01
430.98	5.6596E-01
431.33	5.5264E-01
431.68	5.4517E-01
432.04	5.4503E-01
432.39	5.2576E-01
432.74	5.5328E-01
433.10	5.1717E-01
433.45	5.5917E-01
433.80	5.3677E-01
434.16	5.4938E-01
434.51	5.3402E-01
434.86	5.4055E-01
435.22	5.2207E-01
435.57	5.7131E-01
435.92	5.5237E-01
436.28	5.4388E-01
436.63	5.2040E-01
436.98	5.2878E-01
437.34	5.5343E-01
437.69	5.3359E-01
438.04	5.1150E-01
438.39	5.3708E-01
438.75	5.1778E-01
439.10	5.1151E-01
439.45	5.3836E-01
439.81	5.2501E-01
440.16	5.0598E-01
440.51	5.1309E-01
440.86	5.0593E-01
441.22	5.1252E-01
441.57	5.1903E-01
441.92	4.9359E-01
442.27	5.2568E-01
442.63	5.1607E-01
442.98	5.3079E-01
443.33	5.3157E-01
443.68	5.1446E-01
444.03	4.7923E-01
444.39	4.8412E-01
444.74	5.1047E-01
445.09	5.1281E-01
445.44	5.3502E-01
445.79	4.7296E-01
446.15	5.0120E-01
446.50	5.0371E-01
446.85	4.7323E-01
447.20	4.7958E-01
447.55	5.0347E-01
447.91	5.0236E-01
448.26	4.9192E-01
448.61	4.9213E-01
448.96	4.8766E-01
449.31	4.8540E-01
449.66	5.0582E-01
450.02	4.8967E-01
450.37	4.9090E-01
450.72	4.7808E-01
451.07	5.1332E-01
451.42	5.0598E-01
451.77	4.9167E-01
452.12	4.7856E-01
452.47	5.2050E-01
452.83	4.6593E-01
453.18	5.0180E-01
453.53	4.8106E-01
453.88	4.6363E-01
454.23	4.7188E-01
454.58	4.7995E-01
454.93	4.8243E-01
455.28	4.8405E-01
455.63	4.8001E-01
455.98	4.5794E-01
456.34	4.8080E-01
456.69	4.7411E-01
457.04	4.6220E-01
457.39	4.4892E-01
457.74	4.4699E-01
458.09	4.6043E-01
458.44	4.4419E-01
458.79	4.3269E-01
459.14	4.4442E-01
459.49	4.6525E-01
459.84	4.3837E-01
460.19	4.6709E-01
460.54	4.6294E-01
460.89	4.2889E-01
461.24	4.6725E-01
461.59	4.5480E-01
461.94	4.6022E-01
462.29	4.2544E-01
462.64	4.5550E-01
462.99	4.5534E-01
463.34	4.7247E-01
463.69	4.3793E-01
464.04	4.2828E-01
464.39	4.3703E-01
464.74	4.4209E-01
465.09	4.5110E-01
465.44	4.3887E-01
465.79	4.3833E-01
466.14	4.3908E-01
466.49	4.3566E-01
466.84	4.3959E-01
467.19	4.4444E-01
467.54	4.4415E-01
467.89	4.2174E-01
468.24	4.0956E-01
468.59	4.2350E-01
468.94	4.1343E-01
469.29	4.1484E-01
469.64	4.3133E-01
469.99	4.1178E-01
470.34	3.9663E-01
470.68	4.3083E-01
471.03	4.0182E-01
471.38	4.0559E-01
471.73	3.9552E-01
472.08	3.8575E-01
472.43	3.7779E-01
472.78	3.9269E-01
473.13	3.9269E-01
473.48	3.8274E-01
473.83	3.7641E-01
474.17	3.8329E-01
474.52	3.7913E-01
474.87	3.6186E-01
475.22	3.6710E-01
475.57	3.4840E-01
475.92	3.3653E-01
476.27	3.5726E-01
476.61	3.4192E-01
476.96	3.3790E-01
477.31	3.2124E-01
477.66	3.3115E-01
478.01	3.2632E-01
478.36	3.2194E-01
478.70	3.1933E-01
479.05	3.2424E-01
479.40	3.0769E-01
479.75	3.0964E-01
480.10	3.0694E-01
480.45	3.0324E-01
480.79	3.0234E-01
481.14	3.0930E-01
481.49	3.0096E-01
481.84	2.9244E-01
482.19	2.8847E-01
482.53	2.8868E-01
482.88	2.8736E-01
483.23	2.8322E-01
483.58	2.7859E-01
483.92	2.8475E-01
484.27	2.7242E-01
484.62	2.7323E-01
484.97	2.6816E-01
485.31	2.6407E-01
485.66	2.7049E-01
486.01	2.6875E-01
486.36	2.6207E-01
486.70	2.6599E-01
487.05	2.6433E-01
487.40	2.5895E-01
487.75	2.5130E-01
488.09	2.5546E-01
488.44	2.6260E-01
488.79	2.5234E-01
489.13	2.5415E-01
489.48	2.5461E-01
489.83	2.5621E-01
490.17	2.4830E-01
490.52	2.4897E-01
490.87	2.5020E-01
491.22	2.5268E-01
491.56	2.4806E-01
491.91	2.5189E-01
492.26	2.4926E-01
492.60	2.4829E-01
492.95	2.5008E-01
493.30	2.5219E-01
493.64	2.4702E-01
493.99	2.4928E-01
494.34	2.4724E-01
494.68	2.4293E-01
495.03	2.5022E-01
495.37	2.4622E-01
495.72	2.4871E-01
496.07	2.4451E-01
496.41	2.4761E-01
496.76	2.4607E-01
497.11	2.4794E-01
497.45	2.4611E-01
497.80	2.4796E-01
498.14	2.4805E-01
498.49	2.4824E-01
498.84	2.4723E-01
499.18	2.4585E-01
499.53	2.4879E-01
499.87	2.4717E-01
500.22	2.4957E-01
500.56	2.4804E-01
500.91	2.4645E-01
501.26	2.4799E-01
501.60	2.4772E-01
501.95	2.4438E-01
502.29	2.4605E-01
502.64	2.4628E-01
502.98	2.4790E-01
503.33	2.4836E-01
503.67	2.4662E-01
504.02	2.4577E-01
504.36	2.4388E-01
504.71	2.4593E-01
505.06	2.4575E-01
505.40	2.4524E-01
505.75	2.4325E-01
506.09	2.4385E-01
506.44	2.4254E-01
506.78	2.4395E-01
507.13	2.4395E-01
507.47	2.4140E-01
507.82	2.4068E-01
508.16	2.4106E-01
508.51	2.4015E-01
508.85	2.3970E-01
509.19	2.3924E-01
509.54	2.4240E-01
509.88	2.4069E-01
510.23	2.3837E-01
510.57	2.3755E-01
510.92	2.4098E-01
511.26	2.3874E-01
511.61	2.3863E-01
511.95	2.3908E-01
512.30	2.3721E-01
512.64	2.3829E-01
512.98	2.3755E-01
513.33	2.3695E-01
513.67	2.3694E-01
514.02	2.3575E-01
514.36	2.3511E-01
514.70	2.3600E-01
515.05	2.3509E-01
515.39	2.3560E-01
515.74	2.3318E-01
516.08	2.3548E-01
516.42	2.3317E-01
516.77	2.3388E-01
517.11	2.3244E-01
517.46	2.3474E-01
517.80	2.3223E-01
518.14	2.3311E-01
518.49	2.3307E-01
518.83	2.3053E-01
519.17	2.3446E-01
519.52	2.3194E-01
519.86	2.3135E-01
520.20	2.2927E-01
520.55	2.3121E-01
520.89	2.3195E-01
521.23	2.3150E-01
521.58	2.3112E-01
521.92	2.3513E-01
522.26	2.3340E-01
522.61	2.3040E-01
522.95	2.3149E-01
523.29	2.3152E-01
523.64	2.3044E-01
523.98	2.3066E-01
524.32	2.3267E-01
524.66	2.3231E-01
525.01	2.3403E-01
525.35	2.3408E-01
525.69	2.3447E-01
526.04	2.3505E-01
526.38	2.3161E-01
526.72	2.3454E-01
527.06	2.3408E-01
527.41	2.3771E-01
527.75	2.3823E-01
528.09	2.3507E-01
528.43	2.3695E-01
528.78	2.3460E-01
529.12	2.4123E-01
529.46	2.3911E-01
529.80	2.3872E-01
530.15	2.3961E-01
530.49	2.4091E-01
530.83	2.4183E-01
531.17	2.4211E-01
531.51	2.4277E-01
531.86	2.4366E-01
532.20	2.4567E-01
532.54	2.4581E-01
532.88	2.4586E-01
533.22	2.4708E-01
533.57	2.4770E-01
533.91	2.4988E-01
534.25	2.4983E-01
534.59	2.4859E-01
534.93	2.5032E-01
535.27	2.5123E-01
535.62	2.5341E-01
535.96	2.5522E-01
536.30	2.5531E-01
536.64	2.5594E-01
536.98	2.5676E-01
537.32	2.5683E-01
537.66	2.5652E-01
538.01	2.5984E-01
538.35	2.6146E-01
538.69	2.5930E-01
539.03	2.6481E-01
539.37	2.6140E-01
539.71	2.6334E-01
540.05	2.6360E-01
540.39	2.6410E-01
540.73	2.6657E-01
541.07	2.6453E-01
541.42	2.6462E-01
541.76	2.6517E-01
542.10	2.6544E-01
542.44	2.6723E-01
542.78	2.6775E-01
543.12	2.6774E-01
543.46	2.7321E-01
543.80	2.7018E-01
544.14	2.7139E-01
544.48	2.6837E-01
544.82	2.7149E-01
545.16	2.7148E-01
545.50	2.7033E-01
545.84	2.7499E-01
546.18	2.7204E-01
546.52	2.7495E-01
546.86	2.7095E-01
547.20	2.7402E-01
547.54	2.7900E-01
547.88	2.7435E-01
548.22	2.7534E-01
548.56	2.7587E-01
548.90	2.7408E-01
549.24	2.7764E-01
549.58	2.7730E-01
549.92	2.7742E-01
550.26	2.8058E-01
550.60	2.7841E-01
550.94	2.7439E-01
551.28	2.8125E-01
551.62	2.7859E-01
551.96	2.8121E-01
552.30	2.7984E-01
552.64	2.8167E-01
552.98	2.7955E-01
553.32	2.7963E-01
553.66	2.7775E-01
554.00	2.7879E-01
554.34	2.8151E-01
554.68	2.8247E-01
555.02	2.8157E-01
555.36	2.8127E-01
555.69	2.8373E-01
556.03	2.8288E-01
556.37	2.8284E-01
556.71	2.8154E-01
557.05	2.8048E-01
557.39	2.8211E-01
557.73	2.8157E-01
558.07	2.8339E-01
558.41	2.8193E-01
558.75	2.8282E-01
559.08	2.8360E-01
559.42	2.7918E-01
559.76	2.8335E-01
560.10	2.8235E-01
560.44	2.8309E-01
560.78	2.8047E-01
561.12	2.8234E-01
561.45	2.8305E-01
561.79	2.8366E-01
562.13	2.8232E-01
562.47	2.8246E-01
562.81	2.8661E-01
563.15	2.8585E-01
563.48	2.8389E-01
563.82	2.8206E-01
564.16	2.8452E-01
564.50	2.8538E-01
564.84	2.8504E-01
565.17	2.8482E-01
565.51	2.8162E-01
565.85	2.8525E-01
566.19	2.8389E-01
566.52	2.8566E-01
566.86	2.8451E-01
567.20	2.8586E-01
567.54	2.8790E-01
567.88	2.8508E-01
568.21	2.8688E-01
568.55	2.8624E-01
568.89	2.8652E-01
569.23	2.8848E-01
569.56	2.8572E-01
569.90	2.8644E-01
570.24	2.8894E-01
570.57	2.8749E-01
570.91	2.9019E-01
571.25	2.8851E-01
571.59	2.8874E-01
571.92	2.8866E-01
572.26	2.9052E-01
572.60	2.9274E-01
572.93	2.9098E-01
573.27	2.9460E-01
573.61	2.9448E-01
573.95	2.9049E-01
574.28	2.9474E-01
574.62	2.9455E-01
574.96	2.9528E-01
575.29	2.9363E-01
575.63	2.9741E-01
575.97	2.9677E-01
576.30	3.0415E-01
576.64	2.9894E-01
576.98	3.0029E-01
577.31	3.0231E-01
577.65	3.0300E-01
577.98	3.0248E-01
578.32	3.0624E-01
578.66	3.0521E-01
578.99	3.0968E-01
579.33	3.0889E-01
579.67	3.0871E-01
580.00	3.0960E-01
580.34	3.1295E-01
580.67	3.1199E-01
581.01	3.1240E-01
581.35	3.1545E-01
581.68	3.1624E-01
582.02	3.1557E-01
582.35	3.1634E-01
582.69	3.1816E-01
583.02	3.2369E-01
583.36	3.2092E-01
583.70	3.2020E-01
584.03	3.2268E-01
584.37	3.2319E-01
584.70	3.2685E-01
585.04	3.2795E-01
585.37	3.2525E-01
585.71	3.2950E-01
586.04	3.2865E-01
586.38	3.2680E-01
586.72	3.3156E-01
587.05	3.3109E-01
587.39	3.3249E-01
587.72	3.3175E-01
588.06	3.3459E-01
588.39	3.3340E-01
588.73	3.3894E-01
589.06	3.3778E-01
589.40	3.3922E-01
589.73	3.4094E-01
590.07	3.4329E-01
590.40	3.4454E-01
590.73	3.4872E-01
591.07	3.4520E-01
591.40	3.4649E-01
591.74	3.4339E-01
592.07	3.4879E-01
592.41	3.4919E-01
592.74	3.4790E-01
593.08	3.4948E-01
593.41	3.5079E-01
593.75	3.4781E-01
594.08	3.5512E-01
594.41	3.5063E-01
594.75	3.5453E-01
595.08	3.5407E-01
595.42	3.5048E-01
595.75	3.5338E-01
596.09	3.5341E-01
596.42	3.5383E-01
596.75	3.5688E-01
597.09	3.6017E-01
597.42	3.5443E-01
597.75	3.5854E-01
598.09	3.5828E-01
598.42	3.5640E-01
598.76	3.5992E-01
599.09	3.6002E-01
599.42	3.6270E-01
599.76	3.6247E-01
600.09	3.6248E-01
600.42	3.6488E-01
600.76	3.6145E-01
601.09	3.6306E-01
601.42	3.7035E-01
601.76	3.6394E-01
602.09	3.6438E-01
602.42	3.6596E-01
602.76	3.6654E-01
603.09	3.6325E-01
603.42	3.6655E-01
603.76	3.6528E-01
604.09	3.6596E-01
604.42	3.6638E-01
604.76	3.6666E-01
605.09	3.7021E-01
605.42	3.6716E-01
605.75	3.7000E-01
606.09	3.6904E-01
606.42	3.6754E-01
606.75	3.7072E-01
607.09	3.6983E-01
607.42	3.6971E-01
607.75	3.7164E-01
608.08	3.7175E-01
608.42	3.7280E-01
608.75	3.7053E-01
609.08	3.7535E-01
609.41	3.7394E-01
609.75	3.7298E-01
610.08	3.7329E-01
610.41	3.7408E-01
610.74	3.7357E-01
611.07	3.7583E-01
611.41	3.7175E-01
611.74	3.7658E-01
612.07	3.7992E-01
612.40	3.7427E-01
612.73	3.7407E-01
613.07	3.7949E-01
613.40	3.7541E-01
613.73	3.7517E-01
614.06	3.7758E-01
614.39	3.7844E-01
614.72	3.8089E-01
615.06	3.7850E-01
615.39	3.8376E-01
615.72	3.7867E-01
616.05	3.8366E-01
616.38	3.8016E-01
616.71	3.8269E-01
617.05	3.7870E-01
617.38	3.8380E-01
617.71	3.7771E-01
618.04	3.8470E-01
618.37	3.7995E-01
618.70	3.7882E-01
619.03	3.8355E-01
619.36	3.7541E-01
619.69	3.8440E-01
620.03	3.7831E-01
620.36	3.8257E-01
620.69	3.8100E-01
621.02	3.8217E-01
621.35	3.7936E-01
621.68	3.7771E-01
622.01	3.7674E-01
622.34	3.8068E-01
622.67	3.8000E-01
623.00	3.7953E-01
623.33	3.7836E-01
623.66	3.8010E-01
623.99	3.8022E-01
624.32	3.7630E-01
624.65	3.7899E-01
624.99	3.7885E-01
625.32	3.8113E-01
625.65	3.7724E-01
625.98	3.7578E-01
626.31	3.7937E-01
626.64	3.8086E-01
626.97	3.7891E-01
627.30	3.7616E-01
627.63	3.7788E-01
627.96	3.7922E-01
628.29	3.7412E-01
628.62	3.8002E-01
628.95	3.7886E-01
629.28	3.7221E-01
629.61	3.8351E-01
629.94	3.7809E-01
630.26	3.8023E-01
630.59	3.8290E-01
630.92	3.8025E-01
631.25	3.8241E-01
631.58	3.8555E-01
631.91	3.8027E-01
632.24	3.8868E-01
632.57	3.8440E-01
632.90	3.8677E-01
633.23	3.8690E-01
633.56	3.8772E-01
633.89	3.8778E-01
634.22	3.8818E-01
634.55	3.9062E-01
634.88	3.9579E-01
635.20	3.9147E-01
635.53	3.9594E-01
635.86	3.9609E-01
636.19	4.0048E-01
636.52	4.0159E-01
636.85	4.0299E-01
637.18	4.0636E-01
637.51	4.0550E-01
637.83	4.0606E-01
638.16	4.0368E-01
638.49	4.1169E-01
638.82	4.0905E-01
639.15	4.1458E-01
639.48	4.1693E-01
639.81	4.2061E-01
640.13	4.1594E-01
640.46	4.2353E-01
640.79	4.2016E-01
641.12	4.2787E-01
641.45	4.2353E-01
641.77	4.2439E-01
642.10	4.3185E-01
642.43	4.3389E-01
642.76	4.3589E-01
643.09	4.3169E-01
643.41	4.3708E-01
643.74	4.3904E-01
644.07	4.3765E-01
644.40	4.4045E-01
644.73	4.4483E-01
645.05	4.4851E-01
645.38	4.4800E-01
645.71	4.5446E-01
646.04	4.5291E-01
646.36	4.5172E-01
646.69	4.5995E-01
647.02	4.5925E-01
647.35	4.5831E-01
647.67	4.6195E-01
648.00	4.6086E-01
648.33	4.6841E-01
648.66	4.6430E-01
648.98	4.6848E-01
649.31	4.6803E-01
649.64	4.6971E-01
649.96	4.7272E-01
650.29	4.7893E-01
650.62	4.7757E-01
650.94	4.7997E-01
651.27	4.7912E-01
651.60	4.8190E-01
651.92	4.8593E-01
652.25	4.8878E-01
652.58	4.8634E-01
652.90	4.8899E-01
653.23	4.8957E-01
653.56	4.9334E-01
653.88	4.9603E-01
654.21	4.9402E-01
654.54	4.9802E-01
654.86	5.0302E-01
655.19	4.9489E-01
655.52	5.0406E-01
655.84	5.0052E-01
656.17	5.0660E-01
656.49	5.0727E-01
656.82	5.0564E-01
657.15	5.1013E-01
657.47	5.0901E-01
657.80	5.1254E-01
658.13	5.1088E-01
658.45	5.1483E-01
658.78	5.1789E-01
659.10	5.1796E-01
659.43	5.2294E-01
659.75	5.1881E-01
660.08	5.1972E-01
660.41	5.2439E-01
660.73	5.2398E-01
661.06	5.2705E-01
661.38	5.2601E-01
661.71	5.3099E-01
662.03	5.2672E-01
662.36	5.3252E-01
662.68	5.3417E-01
663.01	5.2671E-01
663.33	5.3649E-01
663.66	5.3870E-01
663.98	5.4008E-01
664.31	5.3335E-01
664.63	5.4511E-01
664.96	5.3576E-01
665.28	5.4138E-01
665.61	5.4108E-01
665.93	5.4673E-01
666.26	5.4558E-01
666.58	5.4819E-01
666.91	5.4606E-01
667.23	5.5171E-01
667.56	5.5011E-01
667.88	5.4850E-01
668.21	5.5459E-01
668.53	5.5304E-01
668.86	5.5538E-01
669.18	5.5325E-01
669.50	5.6297E-01
669.83	5.6332E-01
670.15	5.6514E-01
670.48	5.6582E-01
670.80	5.6127E-01
671.13	5.6129E-01
671.45	5.6707E-01
671.77	5.6514E-01
672.10	5.6463E-01
672.42	5.7304E-01
672.75	5.6690E-01
673.07	5.7503E-01
673.39	5.7463E-01
673.72	5.7420E-01
674.04	5.7934E-01
674.37	5.7855E-01
674.69	5.7780E-01
675.01	5.8203E-01
675.34	5.8267E-01
675.66	5.8482E-01
675.98	5.7777E-01
676.31	5.8726E-01
676.63	5.8790E-01
676.95	5.8651E-01
677.28	5.9132E-01
677.60	5.9032E-01
677.92	5.9432E-01
678.25	5.9785E-01
678.57	5.9801E-01
678.89	5.9730E-01
679.22	5.9886E-01
679.54	5.9870E-01
679.86	6.0271E-01
680.18	6.0244E-01
680.51	6.0135E-01
680.83	6.1659E-01
681.15	6.0946E-01
681.48	6.1082E-01
681.80	6.1192E-01
682.12	6.0922E-01
682.44	6.1874E-01
682.77	6.1708E-01
683.09	6.2176E-01
683.41	6.2130E-01
683.73	6.2692E-01
684.06	6.2762E-01
684.38	6.2553E-01
684.70	6.2819E-01
685.02	6.2763E-01
685.34	6.3501E-01
685.67	6.3043E-01
685.99	6.4380E-01
686.31	6.3778E-01
686.63	6.4390E-01
686.96	6.4710E-01
687.28	6.4915E-01
687.60	6.4706E-01
687.92	6.4881E-01
688.24	6.6074E-01
688.56	6.5910E-01
688.89	6.5704E-01
689.21	6.6130E-01
689.53	6.6132E-01
689.85	6.7288E-01
690.17	6.6693E-01
690.49	6.7676E-01
690.82	6.7578E-01
691.14	6.7975E-01
691.46	6.7792E-01
691.78	6.8545E-01
692.10	6.8216E-01
692.42	6.8668E-01
692.74	6.9134E-01
693.06	6.9422E-01
693.39	6.9953E-01
693.71	7.0809E-01
694.03	7.0222E-01
694.35	7.0210E-01
694.67	7.1464E-01
694.99	7.1437E-01
695.31	7.2076E-01
695.63	7.2041E-01
695.95	7.2114E-01
696.27	7.2257E-01
696.59	7.2530E-01
696.91	7.3365E-01
697.23	7.3832E-01
697.56	7.3937E-01
697.88	7.4378E-01
698.20	7.4211E-01
698.52	7.4570E-01
698.84	7.5624E-01
699.16	7.6100E-01
699.48	7.5821E-01
699.80	7.6125E-01
700.12	7.7439E-01
700.44	7.7049E-01
700.76	7.7361E-01
701.08	7.7917E-01
701.40	7.8309E-01
701.72	7.8424E-01
702.04	7.9062E-01
702.36	7.8992E-01
702.68	7.9666E-01
703.00	8.0657E-01
703.32	8.0041E-01
703.64	8.0984E-01
703.96	8.0091E-01
704.28	8.1285E-01
704.60	8.2444E-01
704.91	8.2156E-01
705.23	8.2851E-01
705.55	8.3453E-01
705.87	8.4019E-01
706.19	8.3838E-01
706.51	8.3636E-01
706.83	8.3467E-01
707.15	8.6691E-01
707.47	8.5597E-01
707.79	8.6102E-01
708.11	8.6511E-01
708.43	8.6707E-01
708.74	8.7330E-01
709.06	8.8274E-01
709.38	8.8198E-01
709.70	8.8363E-01
710.02	8.8928E-01
710.34	8.8329E-01
710.66	8.9909E-01
710.98	9.0354E-01
711.29	9.0905E-01
711.61	9.2476E-01
711.93	9.1980E-01
712.25	9.1999E-01
712.57	9.3088E-01
712.89	9.3634E-01
713.20	9.3921E-01
713.52	9.4787E-01
713.84	9.4903E-01
714.16	9.4320E-01
714.48	9.5259E-01
714.80	9.6644E-01
715.11	9.6179E-01
715.43	9.7486E-01
715.75	9.7411E-01
716.07	9.8946E-01
716.39	9.7243E-01
716.70	9.8560E-01
717.02	9.8127E-01
717.34	1.0087E00
717.66	1.0008E00
717.97	1.0147E00
718.29	1.0239E00
718.61	1.0249E00
718.93	1.0269E00
719.24	1.0319E00
719.56	1.0509E00
719.88	1.0408E00
720.20	1.0611E00
720.51	1.0750E00
720.83	1.0626E00
721.15	1.0816E00
721.46	1.0885E00
721.78	1.0949E00
722.10	1.1087E00
722.42	1.1120E00
722.73	1.1123E00
723.05	1.1130E00
723.37	1.1276E00
723.68	1.1395E00
724.00	1.1390E00
724.32	1.1591E00
724.63	1.1479E00
724.95	1.1632E00
725.27	1.1640E00
725.58	1.1630E00
725.90	1.1583E00
726.22	1.1846E00
726.53	1.1730E00
726.85	1.1844E00
727.16	1.1900E00
727.48	1.1849E00
727.80	1.1957E00
728.11	1.2000E00
728.43	1.2048E00
728.74	1.2032E00
729.06	1.2090E00
729.38	1.2134E00
729.69	1.2111E00
730.01	1.2283E00
730.32	1.2273E00
730.64	1.2297E00
730.96	1.2184E00
731.27	1.2495E00
731.59	1.2346E00
731.90	1.2430E00
732.22	1.2499E00
732.53	1.2599E00
732.85	1.2591E00
733.16	1.2582E00
733.48	1.2528E00
733.80	1.2596E00
734.11	1.2711E00
734.43	1.2864E00
734.74	1.2902E00
735.06	1.2930E00
735.37	1.3039E00
735.69	1.3065E00
736.00	1.2967E00
736.32	1.3122E00
736.63	1.3060E00
736.95	1.3232E00
737.26	1.3333E00
737.58	1.3275E00
737.89	1.3560E00
738.21	1.3414E00
738.52	1.3415E00
738.83	1.3576E00
739.15	1.3447E00
739.46	1.3625E00
739.78	1.3612E00
740.09	1.3728E00
740.41	1.3611E00
740.72	1.3680E00
741.04	1.3661E00
741.35	1.3677E00
741.66	1.3925E00
741.98	1.3822E00
742.29	1.3770E00
742.61	1.3873E00
742.92	1.3932E00
743.23	1.3911E00
743.55	1.3942E00
743.86	1.3941E00
744.18	1.4018E00
744.49	1.4005E00
744.80	1.3913E00
745.12	1.3903E00
745.43	1.3997E00
745.74	1.3955E00
746.06	1.3966E00
746.37	1.3846E00
746.68	1.3993E00
747.00	1.3858E00
747.31	1.4009E00
747.62	1.3847E00
747.94	1.4181E00
748.25	1.4010E00
748.56	1.3990E00
748.88	1.3874E00
749.19	1.4057E00
749.50	1.3935E00
749.82	1.3985E00
750.13	1.4082E00
750.44	1.3958E00
750.75	1.3961E00
751.07	1.4039E00
751.38	1.3932E00
751.69	1.3922E00
752.01	1.4071E00
752.32	1.4157E00
752.63	1.4080E00
752.94	1.4035E00
753.26	1.4105E00
753.57	1.4197E00
753.88	1.4312E00
754.19	1.4130E00
754.51	1.4188E00
754.82	1.4342E00
755.13	1.4327E00
755.44	1.4436E00
755.75	1.4339E00
756.07	1.4404E00
756.38	1.4476E00
756.69	1.4529E00
757.00	1.4517E00
757.31	1.4807E00
757.63	1.4738E00
757.94	1.4826E00
758.25	1.4926E00
758.56	1.4755E00
758.87	1.4927E00
759.18	1.4977E00
759.50	1.5028E00
759.81	1.5068E00
760.12	1.5247E00
760.43	1.5347E00
760.74	1.5467E00
761.05	1.5442E00
761.36	1.5558E00
761.67	1.5612E00
761.99	1.5676E00
762.30	1.5661E00
762.61	1.5852E00
762.92	1.6033E00
763.23	1.6021E00
763.54	1.6256E00
763.85	1.6244E00
764.16	1.6465E00
764.47	1.6619E00
764.78	1.6806E00
765.10	1.6807E00
765.41	1.6857E00
765.72	1.6998E00
766.03	1.7378E00
766.34	1.7447E00
766.65	1.7336E00
766.96	1.7805E00
767.27	1.7718E00
767.58	1.7672E00
767.89	1.7956E00
768.20	1.8143E00
768.51	1.8112E00
768.82	1.8240E00
769.13	1.8380E00
769.44	1.8773E00
769.75	1.8892E00
770.06	1.9088E00
770.37	1.8876E00
770.68	1.9285E00
770.99	1.9500E00
771.30	1.9715E00
771.61	2.0102E00
771.92	2.0020E00
772.23	2.0019E00
772.54	2.0428E00
772.85	2.0318E00
773.16	2.0463E00
773.47	2.0892E00
773.78	2.0695E00
774.09	2.1196E00
774.39	2.1167E00
774.70	2.1521E00
775.01	2.1683E00
775.32	2.1907E00
775.63	2.2057E00
775.94	2.2302E00
776.25	2.2121E00
776.56	2.2479E00
776.87	2.3218E00
777.18	2.2856E00
777.48	2.3308E00
777.79	2.3499E00
778.10	2.3666E00
778.41	2.3810E00
778.72	2.4209E00
779.03	2.4230E00
779.34	2.4529E00
779.65	2.4575E00
779.95	2.4856E00
780.26	2.5038E00
780.57	2.5129E00
780.88	2.5424E00
781.19	2.5577E00
781.50	2.5736E00
781.80	2.6071E00
782.11	2.6413E00
782.42	2.6531E00
782.73	2.6244E00
783.04	2.7175E00
783.34	2.7066E00
783.65	2.7621E00
783.96	2.7671E00
784.27	2.7776E00
784.57	2.7636E00
784.88	2.8172E00
785.19	2.8341E00
785.50	2.8581E00
785.81	2.9049E00
786.11	2.8855E00
786.42	2.9240E00
786.73	2.9844E00
787.04	3.0024E00
787.34	3.0229E00
787.65	2.9881E00
787.96	3.0919E00
788.26	3.0687E00
788.57	3.1498E00
788.88	3.0841E00
789.19	3.1996E00
789.49	3.1824E00
789.80	3.2606E00
790.11	3.2610E00
790.41	3.2393E00
790.72	3.3278E00
791.03	3.3632E00
791.33	3.3425E00
791.64	3.4202E00
791.95	3.4046E00
792.25	3.4616E00
792.56	3.4683E00
792.87	3.4619E00
793.17	3.4836E00
793.48	3.5104E00
793.79	3.5971E00
794.09	3.6131E00
794.40	3.5938E00
794.70	3.5730E00
795.01	3.6861E00
795.32	3.6814E00
795.62	3.7189E00
795.93	3.7330E00
796.23	3.7682E00
796.54	3.7903E00
796.85	3.8391E00
797.15	3.8752E00
797.46	3.8254E00
797.76	3.9248E00
798.07	3.9616E00
798.37	3.9888E00
798.68	4.0199E00
798.99	4.0456E00
799.29	4.0526E00
799.60	4.1333E00
799.90	4.1306E00
800.21	4.2268E00
800.51	4.2147E00
800.82	4.2184E00
801.12	4.2847E00
801.43	4.3152E00
801.73	4.3036E00
802.04	4.4006E00
802.34	4.3919E00
802.65	4.4434E00
802.95	4.5145E00
803.26	4.4940E00
803.56	4.4725E00
803.87	4.5627E00
804.17	4.6320E00
804.48	4.5919E00
804.78	4.6538E00
805.09	4.7399E00
805.39	4.6568E00
805.70	4.7163E00
806.00	4.7976E00
806.30	4.8006E00
806.61	4.8237E00
806.91	4.8338E00
807.22	4.9400E00
807.52	4.9414E00
807.83	4.9531E00
808.13	5.0427E00
808.43	4.9632E00
808.74	5.0217E00
809.04	5.0844E00
809.35	5.1330E00
809.65	5.2049E00
809.95	5.2216E00
810.26	5.3383E00
810.56	5.2557E00
810.86	5.4637E00
811.17	5.3789E00
811.47	5.5237E00
811.77	5.4528E00
812.08	5.4381E00
812.38	5.5656E00
812.69	5.5434E00
812.99	5.5670E00
813.29	5.6323E00
813.59	5.6945E00
813.90	5.8243E00
814.20	5.7580E00
814.50	5.9233E00
814.81	5.7501E00
815.11	5.9885E00
815.41	6.0066E00
815.72	6.0304E00
816.02	6.0790E00
816.32	6.1989E00
816.62	5.9682E00
816.93	6.1622E00
817.23	6.3094E00
817.53	6.1162E00
817.84	6.3119E00
818.14	6.3699E00
818.44	6.3030E00
818.74	6.3410E00
819.04	6.6624E00
819.35	6.5634E00
819.65	6.4349E00
819.95	6.6323E00
820.25	6.7368E00
820.56	6.6121E00
820.86	6.7334E00
821.16	6.7430E00
821.46	6.9557E00
821.76	6.6917E00
822.07	6.8783E00
822.37	7.0307E00
822.67	7.1466E00
822.97	7.2829E00
823.27	7.1314E00
823.57	7.0987E00
823.88	7.2953E00
824.18	7.1582E00
824.48	7.3755E00
824.78	7.5938E00
825.08	7.4119E00
825.38	7.5537E00
825.69	7.5626E00
825.99	7.5962E00
826.29	7.4493E00
826.59	7.6771E00
826.89	7.8548E00
827.19	7.6528E00
827.49	7.9435E00
827.79	7.8663E00
828.09	8.0655E00
828.39	8.0816E00
828.70	8.0609E00
829.00	7.9190E00
829.30	8.0842E00
829.60	8.2514E00
829.90	8.1600E00
830.20	8.2576E00
830.50	8.5197E00
830.80	8.4984E00
831.10	8.4079E00
831.40	8.6034E00
831.70	8.6864E00
832.00	8.7313E00
832.30	8.8033E00
832.60	8.6672E00
832.90	8.8709E00
833.20	8.7900E00
833.50	8.9608E00
833.80	9.0232E00
834.10	9.1466E00
834.40	9.0747E00
834.70	9.1932E00
835.00	9.3234E00
835.30	9.2642E00
835.60	9.3981E00
835.90	9.4930E00
836.20	9.6349E00
836.50	9.6870E00
836.80	9.5329E00
837.10	9.6726E00
837.40	9.7019E00
837.70	9.7861E00
838.00	9.8768E00
838.30	1.0131E01
838.60	9.9994E00
838.90	1.0245E01
839.19	1.0343E01
839.49	1.0536E01
839.79	1.0052E01
840.09	1.0537E01
840.39	1.0331E01
840.69	1.0493E01
840.99	1.0803E01
841.29	1.0691E01
841.59	1.0822E01
841.88	1.0996E01
842.18	1.0879E01
842.48	1.1066E01
842.78	1.1149E01
843.08	1.1311E01
843.38	1.1253E01
843.68	1.1744E01
843.97	1.1594E01
844.27	1.1638E01
844.57	1.1518E01
844.87	1.1605E01
845.17	1.2045E01
845.47	1.1665E01
845.76	1.2120E01
846.06	1.2046E01
846.36	1.2118E01
846.66	1.2110E01
846.96	1.2095E01
847.25	1.2648E01
847.55	1.2295E01
847.85	1.2552E01
848.15	1.2677E01
848.44	1.2663E01
848.74	1.2764E01
849.04	1.3214E01
849.34	1.2993E01
849.63	1.3118E01
849.93	1.3304E01
850.23	1.3372E01
850.53	1.3545E01
850.82	1.3578E01
851.12	1.4004E01
851.42	1.3674E01
851.71	1.3826E01
852.01	1.4027E01
852.31	1.3951E01
852.61	1.4515E01
852.90	1.4140E01
853.20	1.4761E01
853.50	1.4571E01
853.79	1.4649E01
854.09	1.4664E01
854.39	1.5058E01
854.68	1.5255E01
854.98	1.5607E01
855.28	1.5421E01
855.57	1.5409E01
855.87	1.5616E01
856.17	1.5336E01
856.46	1.5855E01
856.76	1.5711E01
857.05	1.6197E01
857.35	1.6504E01
857.65	1.6469E01
857.94	1.6371E01
858.24	1.6306E01
858.53	1.6654E01
858.83	1.7485E01
859.13	1.7150E01
859.42	1.7106E01
859.72	1.7195E01
860.01	1.7636E01
860.31	1.7400E01
860.60	1.8061E01
860.90	1.8054E01
861.20	1.7751E01
861.49	1.8047E01
861.79	1.8306E01
862.08	1.8448E01
862.38	1.8488E01
862.67	1.8850E01
862.97	1.8893E01
863.26	1.9606E01
863.56	1.9494E01
863.85	2.0036E01
864.15	2.0452E01
864.44	2.0167E01
864.74	1.9926E01
865.03	2.0718E01
865.33	2.0891E01
865.62	2.0910E01
865.92	2.0672E01
866.21	2.1025E01
866.51	2.1307E01
866.80	2.1922E01
867.10	2.1331E01
867.39	2.2274E01
867.69	2.2237E01
867.98	2.2618E01
868.27	2.2896E01
868.57	2.3445E01
868.86	2.3044E01
869.16	2.2780E01
869.45	2.3933E01
869.75	2.3422E01
870.04	2.3918E01
870.33	2.4348E01
870.63	2.4680E01
870.92	2.4890E01
871.22	2.5570E01
871.51	2.5680E01
871.80	2.5286E01
872.10	2.5286E01
>>>>>End Processed Spectral Data<<<<<
