SpectraSuite Data File
++++++++++++++++++++++++++++++++++++
Date: Thu May 14 16:23:10 PDT 2015
User: schluterlab
Dark Spectrum Present: Yes
Reference Spectrum Present: Yes
Number of Sampled Component Spectra: 1
Spectrometers: USB2E3373
Integration Time (usec): 3000 (USB2E3373)
Spectra Averaged: 3 (USB2E3373)
Boxcar Smoothing: 0 (USB2E3373)
Correct for Electrical Dark: No (USB2E3373)
Strobe/Lamp Enabled: No (USB2E3373)
Correct for Detector Non-linearity: No (USB2E3373)
Correct for Stray Light: No (USB2E3373)
Number of Pixels in Processed Spectrum: 2048
>>>>>Begin Processed Spectral Data<<<<<
178.53	0.000
178.91	28.571
179.29	-1200.000
179.67	-900.000
180.04	164.286
180.42	70.000
180.80	320.000
181.18	-200.000
181.56	1000.000
181.94	-125.000
182.31	-100.000
182.69	166.667
183.07	100.000
183.45	325.000
183.83	-50.000
184.20	0.000
184.58	-300.000
184.96	-350.000
185.34	-77.778
185.72	-60.000
186.09	200.000
186.47	850.000
186.85	400.000
187.23	-122.222
187.61	-1000.000
187.98	240.000
188.36	325.000
188.74	-75.000
189.12	-100.000
189.49	-12.500
189.87	-137.500
190.25	-133.333
190.63	-100.000
191.00	-177.778
191.38	0.000
191.76	-300.000
192.14	-100.000
192.51	400.000
192.89	200.000
193.27	0.000
193.65	-42.857
194.02	-1400.000
194.40	-57.143
194.78	128.571
195.15	0.000
195.53	109.091
195.91	0.000
196.29	-25.000
196.66	-7.692
197.04	-600.000
197.42	-57.143
197.79	-350.000
198.17	-62.500
198.55	-200.000
198.92	-44.444
199.30	-162.500
199.68	-9.091
200.05	14.286
200.43	-450.000
200.81	114.286
201.18	0.000
201.56	144.444
201.94	0.000
202.31	566.667
202.69	-11.111
203.07	-0.000
203.44	-11.111
203.82	-200.000
204.19	-8.333
204.57	0.000
204.95	50.000
205.32	-200.000
205.70	-0.000
206.08	-66.667
206.45	-83.333
206.83	300.000
207.20	116.667
207.58	-180.000
207.96	-200.000
208.33	100.000
208.71	25.000
209.08	66.667
209.46	0.000
209.84	183.333
210.21	800.000
210.59	150.000
210.96	233.333
211.34	-75.000
211.71	-162.500
212.09	-300.000
212.46	0.000
212.84	750.000
213.22	-160.000
213.59	25.000
213.97	40.000
214.34	-133.333
214.72	133.333
215.09	-150.000
215.47	0.000
215.84	-28.571
216.22	500.000
216.59	0.000
216.97	-40.000
217.34	-100.000
217.72	87.500
218.09	-100.000
218.47	-125.000
218.84	0.000
219.22	280.000
219.59	17.647
219.97	0.000
220.34	800.000
220.72	-144.444
221.09	-53.846
221.47	-200.000
221.84	-30.000
222.22	-85.714
222.59	0.000
222.97	37.500
223.34	-300.000
223.72	-1200.000
224.09	-25.000
224.46	-50.000
224.84	40.000
225.21	-171.429
225.59	-375.000
225.96	-250.000
226.34	-23.077
226.71	200.000
227.08	-200.000
227.46	-33.333
227.83	-150.000
228.21	15.789
228.58	187.500
228.95	300.000
229.33	16.667
229.70	-20.000
230.08	42.105
230.45	180.000
230.82	-133.333
231.20	-35.714
231.57	-33.333
231.95	-100.000
232.32	-36.364
232.69	5.000
233.07	-250.000
233.44	5.882
233.81	20.000
234.19	38.889
234.56	-4.545
234.93	10.345
235.31	-26.316
235.68	-5.556
236.05	-75.000
236.43	38.462
236.80	52.000
237.17	-3.704
237.55	-30.303
237.92	-110.000
238.29	-19.355
238.67	-6.818
239.04	0.000
239.41	-2.381
239.79	10.870
240.16	1.852
240.53	-13.043
240.91	-19.608
241.28	-4.918
241.65	4.478
242.02	-1.351
242.40	-18.462
242.77	-10.667
243.14	-9.756
243.51	-3.947
243.89	-17.949
244.26	3.960
244.63	1.961
245.00	-0.935
245.38	-0.877
245.75	-7.965
246.12	-3.175
246.49	0.775
246.87	-0.714
247.24	3.311
247.61	8.553
247.98	6.711
248.36	0.000
248.73	4.908
249.10	4.372
249.47	6.965
249.84	9.424
250.22	2.073
250.59	6.111
250.96	7.273
251.33	-1.531
251.70	4.274
252.08	2.083
252.45	3.279
252.82	1.653
253.19	0.781
253.56	0.760
253.94	0.769
254.31	6.061
254.68	5.944
255.05	3.583
255.42	4.082
255.79	2.913
256.16	2.318
256.54	-2.318
256.91	5.574
257.28	3.607
257.65	-1.274
258.02	2.065
258.39	4.558
258.76	6.116
259.14	5.460
259.51	4.035
259.88	4.249
260.25	3.611
260.62	4.384
260.99	6.557
261.36	5.630
261.73	1.857
262.10	3.846
262.47	2.413
262.85	8.081
263.22	1.818
263.59	3.421
263.96	4.092
264.33	3.836
264.70	5.926
265.07	6.683
265.44	7.710
265.81	6.250
266.18	4.535
266.55	6.027
266.92	3.417
267.29	5.470
267.66	5.765
268.03	5.895
268.40	4.593
268.77	2.278
269.14	2.203
269.51	4.605
269.88	5.738
270.25	5.835
270.62	4.219
270.99	4.646
271.36	6.337
271.73	5.894
272.10	4.609
272.47	5.010
272.84	3.012
273.21	4.810
273.58	3.427
273.95	4.231
274.32	4.373
274.69	3.675
275.06	4.212
275.43	4.806
275.80	4.938
276.17	3.889
276.54	5.037
276.91	4.114
277.28	4.521
277.65	6.104
278.02	6.985
278.39	4.710
278.76	3.691
279.13	4.787
279.50	6.357
279.87	5.546
280.23	3.697
280.60	6.610
280.97	6.414
281.34	4.414
281.71	6.261
282.08	4.817
282.45	4.910
282.82	4.710
283.19	4.200
283.56	3.934
283.92	5.556
284.29	6.477
284.66	4.926
285.03	3.846
285.40	6.491
285.77	4.025
286.14	5.649
286.51	5.327
286.87	5.371
287.24	4.066
287.61	4.036
287.98	3.474
288.35	3.846
288.72	5.030
289.08	4.685
289.45	3.550
289.82	5.120
290.19	4.023
290.56	6.479
290.93	4.137
291.29	4.132
291.66	4.683
292.03	3.256
292.40	4.218
292.77	5.256
293.13	6.766
293.50	3.548
293.87	2.953
294.24	5.333
294.60	4.930
294.97	3.356
295.34	5.122
295.71	4.161
296.08	3.747
296.44	3.064
296.81	3.654
297.18	2.615
297.55	3.774
297.91	4.033
298.28	2.607
298.65	4.756
299.02	4.132
299.38	4.462
299.75	5.257
300.12	3.588
300.48	4.378
300.85	4.387
301.22	4.810
301.59	3.767
301.95	3.955
302.32	4.222
302.69	3.286
303.05	3.700
303.42	4.213
303.79	4.271
304.15	2.839
304.52	2.960
304.89	2.932
305.25	2.692
305.62	3.448
305.99	2.887
306.35	3.931
306.72	3.309
307.09	2.640
307.45	4.658
307.82	4.541
308.19	3.532
308.55	5.304
308.92	4.090
309.29	4.310
309.65	3.996
310.02	3.564
310.38	3.937
310.75	4.369
311.12	4.506
311.48	3.226
311.85	5.033
312.22	4.269
312.58	3.756
312.95	4.111
313.31	3.975
313.68	4.212
314.05	4.788
314.41	5.282
314.78	3.361
315.14	3.630
315.51	4.524
315.87	3.690
316.24	4.018
316.61	5.151
316.97	3.891
317.34	4.586
317.70	4.279
318.07	3.527
318.43	5.272
318.80	5.769
319.16	4.120
319.53	2.913
319.89	3.593
320.26	4.448
320.62	4.167
320.99	4.432
321.35	4.067
321.72	5.395
322.08	3.787
322.45	4.878
322.81	3.610
323.18	3.805
323.54	3.707
323.91	4.004
324.27	4.045
324.64	4.198
325.00	3.814
325.37	3.849
325.73	4.215
326.10	4.785
326.46	4.560
326.83	4.884
327.19	4.882
327.56	4.506
327.92	4.170
328.29	4.839
328.65	3.518
329.01	3.299
329.38	4.802
329.74	4.195
330.11	4.966
330.47	4.971
330.84	4.307
331.20	5.250
331.56	4.159
331.93	4.937
332.29	4.237
332.66	4.485
333.02	3.853
333.38	4.027
333.75	3.788
334.11	4.087
334.48	3.548
334.84	4.248
335.20	3.442
335.57	5.228
335.93	5.702
336.29	4.326
336.66	4.037
337.02	3.679
337.38	4.592
337.75	4.298
338.11	4.794
338.47	3.805
338.84	3.638
339.20	3.538
339.56	3.295
339.93	4.844
340.29	4.911
340.65	4.217
341.02	5.347
341.38	4.527
341.74	3.471
342.11	4.586
342.47	3.654
342.83	4.026
343.20	4.007
343.56	4.010
343.92	4.644
344.28	4.609
344.65	5.116
345.01	4.056
345.37	3.810
345.73	3.429
346.10	5.538
346.46	3.797
346.82	4.644
347.19	4.507
347.55	5.083
347.91	4.086
348.27	3.945
348.63	4.417
349.00	4.400
349.36	4.535
349.72	3.869
350.08	5.201
350.45	3.194
350.81	3.846
351.17	4.436
351.53	4.776
351.89	3.721
352.26	3.657
352.62	3.507
352.98	3.740
353.34	2.614
353.70	3.698
354.07	4.396
354.43	4.100
354.79	3.964
355.15	4.562
355.51	4.240
355.87	3.141
356.24	3.802
356.60	3.178
356.96	4.003
357.32	2.379
357.68	3.734
358.04	2.769
358.40	2.985
358.77	4.167
359.13	3.323
359.49	2.974
359.85	3.626
360.21	3.587
360.57	3.374
360.93	3.385
361.29	3.439
361.66	3.765
362.02	4.245
362.38	3.584
362.74	2.863
363.10	4.539
363.46	4.294
363.82	2.699
364.18	3.941
364.54	3.734
364.90	4.147
365.26	2.759
365.62	4.000
365.98	3.404
366.35	4.027
366.71	3.810
367.07	3.654
367.43	3.874
367.79	4.247
368.15	4.615
368.51	3.451
368.87	3.592
369.23	4.133
369.59	3.757
369.95	3.786
370.31	4.456
370.67	3.370
371.03	3.809
371.39	3.291
371.75	3.232
372.11	3.252
372.47	3.588
372.83	3.992
373.19	3.602
373.55	3.117
373.91	4.022
374.27	3.364
374.63	3.518
374.99	3.316
375.35	4.351
375.71	4.000
376.07	3.551
376.42	3.275
376.78	4.413
377.14	3.431
377.50	3.352
377.86	4.557
378.22	4.192
378.58	3.508
378.94	3.991
379.30	3.574
379.66	3.939
380.02	3.635
380.38	3.975
380.74	3.155
381.09	3.484
381.45	3.693
381.81	3.513
382.17	3.919
382.53	3.216
382.89	3.668
383.25	3.341
383.61	2.951
383.97	3.592
384.32	4.187
384.68	3.770
385.04	4.627
385.40	4.302
385.76	3.986
386.12	3.890
386.48	4.471
386.83	5.244
387.19	3.650
387.55	3.991
387.91	2.968
388.27	3.753
388.62	4.009
388.98	3.497
389.34	3.830
389.70	3.021
390.06	3.434
390.42	3.494
390.77	4.335
391.13	3.286
391.49	3.623
391.85	3.212
392.20	4.093
392.56	4.371
392.92	4.198
393.28	3.538
393.64	4.134
393.99	4.184
394.35	3.505
394.71	3.892
395.07	3.533
395.42	3.998
395.78	4.449
396.14	4.278
396.50	3.325
396.85	3.816
397.21	3.609
397.57	3.592
397.92	4.181
398.28	3.694
398.64	3.719
399.00	3.613
399.35	3.874
399.71	3.859
400.07	3.481
400.42	3.900
400.78	3.472
401.14	3.301
401.49	4.093
401.85	3.721
402.21	4.925
402.57	3.580
402.92	3.369
403.28	3.513
403.63	2.506
403.99	3.088
404.35	3.582
404.70	3.796
405.06	3.859
405.42	3.279
405.77	4.089
406.13	3.836
406.49	3.322
406.84	3.546
407.20	3.242
407.55	3.452
407.91	3.143
408.27	3.534
408.62	3.607
408.98	3.656
409.34	3.050
409.69	3.214
410.05	3.986
410.40	3.944
410.76	3.758
411.11	3.624
411.47	3.501
411.83	4.174
412.18	3.735
412.54	3.912
412.89	4.016
413.25	3.950
413.60	3.331
413.96	4.312
414.31	4.079
414.67	3.757
415.03	3.200
415.38	3.279
415.74	3.849
416.09	4.442
416.45	4.258
416.80	4.284
417.16	4.023
417.51	4.110
417.87	3.372
418.22	3.832
418.58	4.089
418.93	4.249
419.29	4.131
419.64	3.421
420.00	3.561
420.35	3.650
420.71	3.561
421.06	3.565
421.42	4.128
421.77	3.931
422.12	4.228
422.48	3.840
422.83	3.724
423.19	4.138
423.54	3.761
423.90	3.534
424.25	4.320
424.61	2.583
424.96	3.899
425.31	4.246
425.67	3.811
426.02	3.818
426.38	4.191
426.73	3.404
427.09	4.787
427.44	3.605
427.79	3.593
428.15	3.881
428.50	3.596
428.85	3.444
429.21	4.574
429.56	3.949
429.92	3.538
430.27	3.855
430.62	3.957
430.98	3.492
431.33	4.497
431.68	3.688
432.04	4.063
432.39	3.482
432.74	3.482
433.10	3.786
433.45	3.289
433.80	3.916
434.16	3.667
434.51	3.649
434.86	3.637
435.22	3.879
435.57	3.715
435.92	4.285
436.28	4.152
436.63	3.878
436.98	3.650
437.34	4.397
437.69	3.522
438.04	3.490
438.39	3.791
438.75	3.708
439.10	4.915
439.45	4.863
439.81	3.729
440.16	3.646
440.51	4.236
440.86	3.558
441.22	4.180
441.57	3.983
441.92	4.074
442.27	4.192
442.63	4.024
442.98	4.109
443.33	4.734
443.68	4.361
444.03	4.374
444.39	4.577
444.74	4.441
445.09	3.751
445.44	4.004
445.79	4.502
446.15	4.985
446.50	3.979
446.85	4.475
447.20	4.159
447.55	4.079
447.91	3.874
448.26	4.440
448.61	3.879
448.96	4.399
449.31	4.083
449.66	3.922
450.02	4.167
450.37	4.582
450.72	4.198
451.07	4.271
451.42	3.813
451.77	4.113
452.12	4.402
452.47	3.862
452.83	4.167
453.18	4.145
453.53	3.504
453.88	4.197
454.23	4.068
454.58	4.295
454.93	3.701
455.28	4.636
455.63	4.434
455.98	4.078
456.34	3.534
456.69	3.762
457.04	4.137
457.39	4.268
457.74	4.362
458.09	3.624
458.44	4.364
458.79	3.816
459.14	4.195
459.49	4.131
459.84	4.197
460.19	3.887
460.54	3.805
460.89	4.023
461.24	4.368
461.59	4.704
461.94	3.879
462.29	4.759
462.64	3.923
462.99	4.143
463.34	4.153
463.69	4.807
464.04	4.892
464.39	3.868
464.74	4.105
465.09	4.383
465.44	4.077
465.79	4.918
466.14	3.856
466.49	4.474
466.84	4.187
467.19	4.971
467.54	3.702
467.89	4.253
468.24	4.543
468.59	3.185
468.94	3.671
469.29	3.479
469.64	3.942
469.99	4.461
470.34	4.517
470.68	4.511
471.03	5.108
471.38	4.251
471.73	3.641
472.08	5.584
472.43	4.034
472.78	4.471
473.13	3.982
473.48	4.109
473.83	4.295
474.17	4.631
474.52	3.909
474.87	4.817
475.22	3.549
475.57	4.102
475.92	4.380
476.27	3.940
476.61	4.465
476.96	4.119
477.31	4.455
477.66	4.669
478.01	4.372
478.36	4.487
478.70	4.138
479.05	4.090
479.40	3.850
479.75	4.947
480.10	4.784
480.45	4.421
480.79	4.580
481.14	4.090
481.49	3.907
481.84	4.439
482.19	4.645
482.53	4.241
482.88	4.209
483.23	4.402
483.58	4.323
483.92	4.034
484.27	4.530
484.62	4.002
484.97	4.432
485.31	4.224
485.66	4.132
486.01	3.915
486.36	3.551
486.70	3.773
487.05	4.180
487.40	4.481
487.75	5.013
488.09	4.621
488.44	4.716
488.79	4.924
489.13	4.743
489.48	4.155
489.83	4.145
490.17	3.969
490.52	4.351
490.87	4.103
491.22	4.246
491.56	4.053
491.91	4.536
492.26	4.673
492.60	4.635
492.95	4.432
493.30	4.482
493.64	4.336
493.99	4.167
494.34	4.268
494.68	4.069
495.03	4.273
495.37	4.172
495.72	4.263
496.07	4.733
496.41	4.247
496.76	4.128
497.11	4.076
497.45	4.532
497.80	4.487
498.14	4.762
498.49	4.136
498.84	4.479
499.18	4.948
499.53	5.112
499.87	4.835
500.22	4.007
500.56	4.274
500.91	3.844
501.26	5.409
501.60	4.419
501.95	4.516
502.29	4.563
502.64	4.547
502.98	4.616
503.33	4.406
503.67	3.969
504.02	3.940
504.36	4.424
504.71	4.180
505.06	4.593
505.40	4.707
505.75	4.463
506.09	4.926
506.44	4.503
506.78	4.450
507.13	4.703
507.47	4.927
507.82	4.735
508.16	4.398
508.51	4.360
508.85	4.676
509.19	4.216
509.54	5.139
509.88	3.983
510.23	4.322
510.57	4.592
510.92	4.886
511.26	4.233
511.61	4.297
511.95	4.246
512.30	4.628
512.64	4.698
512.98	5.203
513.33	4.587
513.67	4.488
514.02	4.803
514.36	4.655
514.70	4.844
515.05	4.640
515.39	4.672
515.74	5.992
516.08	5.230
516.42	4.867
516.77	4.311
517.11	4.590
517.46	5.302
517.80	5.077
518.14	5.822
518.49	5.043
518.83	4.683
519.17	4.470
519.52	4.874
519.86	4.805
520.20	5.112
520.55	4.436
520.89	5.236
521.23	4.690
521.58	4.576
521.92	5.156
522.26	3.780
522.61	4.630
522.95	4.152
523.29	3.966
523.64	4.989
523.98	5.362
524.32	5.501
524.66	4.895
525.01	4.587
525.35	5.055
525.69	5.220
526.04	4.478
526.38	4.828
526.72	4.960
527.06	4.985
527.41	5.423
527.75	5.523
528.09	5.136
528.43	4.914
528.78	5.145
529.12	5.275
529.46	5.171
529.80	4.920
530.15	4.812
530.49	4.745
530.83	5.195
531.17	4.779
531.51	4.212
531.86	5.409
532.20	5.122
532.54	4.788
532.88	4.606
533.22	5.068
533.57	5.597
533.91	5.724
534.25	5.088
534.59	4.828
534.93	4.584
535.27	5.183
535.62	5.287
535.96	5.404
536.30	4.700
536.64	5.826
536.98	5.228
537.32	5.370
537.66	4.991
538.01	4.653
538.35	4.568
538.69	5.048
539.03	5.089
539.37	4.711
539.71	4.865
540.05	4.796
540.39	4.523
540.73	5.039
541.07	4.721
541.42	5.434
541.76	4.626
542.10	4.343
542.44	5.177
542.78	5.049
543.12	5.125
543.46	5.617
543.80	5.156
544.14	4.608
544.48	5.201
544.82	5.206
545.16	5.367
545.50	4.853
545.84	5.021
546.18	6.235
546.52	4.713
546.86	5.157
547.20	4.962
547.54	4.370
547.88	4.762
548.22	4.795
548.56	4.506
548.90	4.478
549.24	5.532
549.58	5.363
549.92	4.974
550.26	5.696
550.60	5.999
550.94	5.498
551.28	5.479
551.62	5.323
551.96	4.790
552.30	6.692
552.64	5.787
552.98	4.991
553.32	4.309
553.66	4.695
554.00	5.612
554.34	5.405
554.68	5.746
555.02	5.059
555.36	5.457
555.69	4.292
556.03	4.288
556.37	5.507
556.71	4.629
557.05	6.006
557.39	4.247
557.73	6.077
558.07	4.636
558.41	5.316
558.75	5.747
559.08	5.498
559.42	4.664
559.76	5.156
560.10	5.492
560.44	5.343
560.78	5.563
561.12	4.865
561.45	5.718
561.79	5.311
562.13	4.991
562.47	5.549
562.81	4.810
563.15	5.934
563.48	5.594
563.82	5.079
564.16	5.088
564.50	4.470
564.84	4.897
565.17	4.941
565.51	4.776
565.85	4.929
566.19	4.896
566.52	4.798
566.86	4.471
567.20	4.513
567.54	4.780
567.88	5.046
568.21	4.200
568.55	5.228
568.89	4.766
569.23	4.816
569.56	5.041
569.90	4.918
570.24	4.519
570.57	4.201
570.91	4.317
571.25	4.802
571.59	4.926
571.92	4.451
572.26	4.447
572.60	4.832
572.93	4.759
573.27	4.720
573.61	4.738
573.95	4.588
574.28	4.765
574.62	4.366
574.96	4.301
575.29	4.671
575.63	4.320
575.97	4.455
576.30	4.811
576.64	4.343
576.98	4.374
577.31	4.577
577.65	4.499
577.98	4.236
578.32	4.155
578.66	4.165
578.99	4.362
579.33	4.580
579.67	4.578
580.00	4.585
580.34	4.777
580.67	4.281
581.01	4.630
581.35	4.228
581.68	4.259
582.02	4.446
582.35	4.324
582.69	4.311
583.02	4.354
583.36	4.662
583.70	4.544
584.03	4.608
584.37	4.764
584.70	4.377
585.04	4.534
585.37	4.596
585.71	4.315
586.04	4.315
586.38	4.805
586.72	4.212
587.05	3.991
587.39	4.238
587.72	4.545
588.06	4.691
588.39	4.680
588.73	4.259
589.06	4.486
589.40	4.333
589.73	4.788
590.07	5.172
590.40	5.240
590.73	5.232
591.07	5.063
591.40	4.860
591.74	4.253
592.07	5.075
592.41	4.653
592.74	4.579
593.08	4.650
593.41	4.870
593.75	4.569
594.08	4.605
594.41	4.936
594.75	4.583
595.08	4.307
595.42	4.773
595.75	4.553
596.09	4.880
596.42	4.765
596.75	5.172
597.09	4.970
597.42	4.768
597.75	4.822
598.09	4.960
598.42	4.906
598.76	4.241
599.09	4.236
599.42	4.392
599.76	4.523
600.09	4.771
600.42	4.805
600.76	4.855
601.09	4.812
601.42	4.360
601.76	4.621
602.09	4.646
602.42	4.544
602.76	5.092
603.09	4.185
603.42	4.516
603.76	4.017
604.09	5.039
604.42	4.844
604.76	4.566
605.09	5.146
605.42	5.144
605.75	4.808
606.09	4.330
606.42	4.451
606.75	4.498
607.09	4.416
607.42	5.010
607.75	4.416
608.08	4.538
608.42	4.595
608.75	5.182
609.08	4.711
609.41	4.764
609.75	4.777
610.08	4.661
610.41	4.970
610.74	4.370
611.07	4.663
611.41	4.529
611.74	4.804
612.07	4.769
612.40	4.373
612.73	4.988
613.07	4.743
613.40	5.149
613.73	4.959
614.06	5.103
614.39	4.762
614.72	4.755
615.06	4.957
615.39	5.317
615.72	4.360
616.05	5.294
616.38	4.995
616.71	5.643
617.05	5.005
617.38	5.404
617.71	4.806
618.04	5.235
618.37	5.137
618.70	5.034
619.03	4.540
619.36	4.624
619.69	5.125
620.03	5.273
620.36	4.724
620.69	5.367
621.02	5.315
621.35	4.499
621.68	5.712
622.01	4.982
622.34	4.184
622.67	5.086
623.00	4.049
623.33	5.375
623.66	4.799
623.99	4.213
624.32	5.718
624.65	4.376
624.99	5.202
625.32	4.833
625.65	5.327
625.98	5.220
626.31	5.245
626.64	5.275
626.97	3.976
627.30	4.632
627.63	5.401
627.96	5.781
628.29	5.214
628.62	4.618
628.95	4.645
629.28	4.758
629.61	6.397
629.94	4.854
630.26	5.508
630.59	4.577
630.92	4.675
631.25	5.277
631.58	5.273
631.91	4.780
632.24	5.379
632.57	4.175
632.90	4.413
633.23	6.633
633.56	5.000
633.89	5.682
634.22	4.990
634.55	6.054
634.88	4.654
635.20	5.382
635.53	5.650
635.86	6.284
636.19	5.514
636.52	5.591
636.85	4.699
637.18	5.198
637.51	4.839
637.83	5.869
638.16	5.415
638.49	5.399
638.82	5.186
639.15	4.467
639.48	4.965
639.81	6.236
640.13	6.243
640.46	3.273
640.79	3.799
641.12	5.466
641.45	4.266
641.77	6.418
642.10	5.381
642.43	7.447
642.76	6.640
643.09	3.973
643.41	4.062
643.74	6.897
644.07	7.172
644.40	5.799
644.73	6.386
645.05	4.993
645.38	6.475
645.71	5.132
646.04	5.022
646.36	5.985
646.69	6.135
647.02	5.199
647.35	6.260
647.67	5.958
648.00	5.414
648.33	7.357
648.66	6.277
648.98	4.354
649.31	6.360
649.64	4.250
649.96	5.438
650.29	3.894
650.62	5.799
650.94	5.856
651.27	3.892
651.60	5.117
651.92	5.775
652.25	6.223
652.58	6.465
652.90	4.360
653.23	4.930
653.56	3.709
653.88	7.444
654.21	6.056
654.54	5.202
654.86	5.241
655.19	3.513
655.52	5.108
655.84	3.779
656.17	4.148
656.49	5.967
656.82	6.804
657.15	5.899
657.47	4.868
657.80	3.927
658.13	3.045
658.45	4.362
658.78	5.314
659.10	5.222
659.43	5.117
659.75	5.107
660.08	5.266
660.41	5.459
660.73	5.017
661.06	3.965
661.38	3.509
661.71	5.690
662.03	4.762
662.36	6.977
662.68	5.816
663.01	6.549
663.33	6.427
663.66	7.509
663.98	5.962
664.31	5.816
664.63	3.661
664.96	6.534
665.28	3.993
665.61	6.818
665.93	5.179
666.26	5.376
666.58	4.059
666.91	6.168
667.23	7.048
667.56	5.128
667.88	6.000
668.21	3.320
668.53	2.703
668.86	3.929
669.18	3.259
669.50	7.555
669.83	3.200
670.15	5.906
670.48	5.952
670.80	4.589
671.13	4.159
671.45	4.134
671.77	5.650
672.10	4.833
672.42	4.369
672.75	4.301
673.07	5.522
673.39	4.160
673.72	5.705
674.04	3.966
674.37	3.936
674.69	5.115
675.01	5.524
675.34	4.008
675.66	5.431
675.98	5.784
676.31	2.148
676.63	6.844
676.95	6.897
677.28	4.234
677.60	3.543
677.92	5.182
678.25	4.936
678.57	6.584
678.89	7.850
679.22	4.181
679.54	5.983
679.86	3.898
680.18	4.478
680.51	5.031
680.83	3.437
681.15	3.966
681.48	6.045
681.80	5.872
682.12	3.846
682.44	4.841
682.77	4.255
683.09	6.250
683.41	5.620
683.73	6.072
684.06	5.166
684.38	4.830
684.70	5.206
685.02	4.475
685.34	4.160
685.67	5.047
685.99	3.988
686.31	4.360
686.63	4.581
686.96	5.836
687.28	6.189
687.60	3.030
687.92	4.823
688.24	5.342
688.56	3.448
688.89	3.993
689.21	5.088
689.53	3.725
689.85	3.550
690.17	5.000
690.49	2.590
690.82	4.950
691.14	3.036
691.46	5.163
691.78	6.262
692.10	4.954
692.42	3.571
692.74	4.537
693.06	2.778
693.39	6.262
693.71	3.008
694.03	6.134
694.35	4.952
694.67	5.544
694.99	3.617
695.31	3.091
695.63	5.411
695.95	5.383
696.27	4.176
696.59	6.858
696.91	6.982
697.23	7.912
697.56	4.888
697.88	3.030
698.20	2.260
698.52	7.386
698.84	3.326
699.16	4.898
699.48	2.720
699.80	5.745
700.12	6.332
700.44	4.839
700.76	4.751
701.08	5.327
701.40	6.736
701.72	2.488
702.04	4.278
702.36	2.618
702.68	4.645
703.00	3.667
703.32	4.926
703.64	2.934
703.96	6.205
704.28	5.405
704.60	6.582
704.91	4.847
705.23	6.027
705.55	7.521
705.87	6.061
706.19	3.374
706.51	4.819
706.83	2.017
707.15	4.233
707.47	0.000
707.79	4.367
708.11	2.754
708.43	2.581
708.74	2.455
709.06	4.408
709.38	7.042
709.70	4.218
710.02	2.584
710.34	5.585
710.66	3.073
710.98	4.645
711.29	3.022
711.61	3.107
711.93	3.989
712.25	3.514
712.57	5.900
712.89	5.882
713.20	4.438
713.52	5.491
713.84	4.735
714.16	6.842
714.48	4.897
714.80	7.532
715.11	3.150
715.43	4.509
715.75	2.895
716.07	3.867
716.39	7.650
716.70	5.422
717.02	4.590
717.34	0.348
717.66	3.691
717.97	4.110
718.29	3.780
718.61	3.618
718.93	3.236
719.24	4.969
719.56	4.601
719.88	4.204
720.20	6.452
720.51	4.969
720.83	4.375
721.15	2.961
721.46	0.685
721.78	3.000
722.10	1.942
722.42	1.342
722.73	1.935
723.05	3.158
723.37	4.861
723.68	2.509
724.00	6.859
724.32	4.225
724.63	4.895
724.95	5.674
725.27	2.439
725.58	1.060
725.90	3.793
726.22	5.329
726.53	2.273
726.85	3.145
727.16	3.625
727.48	6.422
727.80	5.960
728.11	2.120
728.43	4.377
728.74	3.344
729.06	2.980
729.38	4.221
729.69	2.349
730.01	3.869
730.32	1.818
730.64	3.774
730.96	0.621
731.27	5.587
731.59	3.571
731.90	5.455
732.22	5.208
732.53	1.381
732.85	3.429
733.16	4.399
733.48	1.524
733.80	5.292
734.11	3.704
734.43	4.054
734.74	5.570
735.06	1.256
735.37	1.892
735.69	2.162
736.00	3.672
736.32	5.930
736.63	5.833
736.95	2.874
737.26	4.545
737.58	2.727
737.89	5.588
738.21	0.612
738.52	-0.984
738.83	4.437
739.15	2.128
739.46	3.061
739.78	6.135
740.09	2.292
740.41	4.956
740.72	2.667
741.04	3.236
741.35	8.421
741.66	5.490
741.98	5.328
742.29	5.021
742.61	2.632
742.92	5.000
743.23	5.054
743.55	3.101
743.86	3.600
744.18	0.413
744.49	-1.266
744.80	6.584
745.12	3.797
745.43	6.911
745.74	2.155
746.06	4.661
746.37	0.844
746.68	2.033
747.00	0.417
747.31	0.429
747.62	7.692
747.94	1.619
748.25	0.000
748.56	0.408
748.88	-0.427
749.19	9.052
749.50	0.866
749.82	4.819
750.13	4.982
750.44	1.333
750.75	1.846
751.07	3.077
751.38	4.416
751.69	1.917
752.01	4.207
752.32	3.595
752.63	1.361
752.94	1.038
753.26	-2.230
753.57	-3.704
753.88	2.622
754.19	1.929
754.51	4.180
754.82	4.502
755.13	5.246
755.44	0.683
755.75	1.974
756.07	6.866
756.38	2.830
756.69	6.024
757.00	3.878
757.31	5.464
757.63	3.069
757.94	1.408
758.25	4.289
758.56	3.922
758.87	6.136
759.18	4.533
759.50	3.683
759.81	6.162
760.12	4.852
760.43	3.125
760.74	3.941
761.05	4.000
761.36	3.133
761.67	1.269
761.99	3.784
762.30	1.524
762.61	1.650
762.92	4.851
763.23	4.494
763.54	4.676
763.85	0.344
764.16	6.397
764.47	2.465
764.78	5.751
765.10	3.519
765.41	7.436
765.72	1.058
766.03	3.955
766.34	1.567
766.65	3.136
766.96	1.195
767.27	2.304
767.58	-1.990
767.89	8.173
768.20	6.103
768.51	3.704
768.82	2.410
769.13	4.924
769.44	-1.154
769.75	5.415
770.06	5.000
770.37	5.512
770.68	-2.553
770.99	-0.405
771.30	7.037
771.61	4.183
771.92	-0.741
772.23	2.429
772.54	-4.167
772.85	5.991
773.16	7.619
773.47	0.529
773.78	-4.865
774.09	7.386
774.39	6.500
774.70	8.197
775.01	3.049
775.32	4.706
775.63	3.067
775.94	-6.369
776.25	2.581
776.56	9.615
776.87	6.803
777.18	2.759
777.48	2.098
777.79	3.378
778.10	-8.088
778.41	5.556
778.72	0.690
779.03	8.025
779.34	2.424
779.65	4.145
779.95	7.222
780.26	4.545
780.57	2.581
780.88	8.696
781.19	9.677
781.50	7.059
781.80	0.000
782.11	3.175
782.42	0.505
782.73	3.593
783.04	2.793
783.34	-3.636
783.65	3.268
783.96	-2.484
784.27	5.952
784.57	1.325
784.88	-5.000
785.19	-3.150
785.50	2.362
785.81	0.752
786.11	6.154
786.42	-10.072
786.73	2.158
787.04	3.759
787.34	-4.098
787.65	3.200
787.96	3.731
788.26	4.196
788.57	9.091
788.88	-0.658
789.19	8.497
789.49	5.479
789.80	2.837
790.11	7.087
790.41	0.781
790.72	7.627
791.03	-10.680
791.33	4.348
791.64	13.158
791.95	2.679
792.25	1.905
792.56	8.929
792.87	-1.042
793.17	-1.786
793.48	-10.417
793.79	-21.687
794.09	-2.752
794.40	-2.752
794.70	4.762
795.01	-0.649
795.32	-2.740
795.62	8.451
795.93	0.758
796.23	4.098
796.54	-8.929
796.85	5.319
797.15	3.261
797.46	6.849
797.76	1.250
798.07	-3.261
798.37	-2.062
798.68	-5.195
798.99	-6.897
799.29	-8.989
799.60	12.766
799.90	-3.614
800.21	-1.538
800.51	5.970
800.82	-1.471
801.12	-23.288
801.43	-4.412
801.73	-18.644
802.04	1.515
802.34	-6.667
802.65	3.390
802.95	1.493
803.26	-6.780
803.56	-8.219
803.87	-14.286
804.17	1.370
804.48	-19.298
804.78	-5.556
805.09	-25.862
805.39	8.108
805.70	-11.268
806.00	-3.659
806.30	2.410
806.61	-9.589
806.91	0.000
807.22	4.444
807.52	0.000
807.83	-5.556
808.13	0.000
808.43	11.236
808.74	1.250
809.04	-16.176
809.35	5.333
809.65	2.857
809.95	9.589
810.26	-24.561
810.56	1.724
810.86	4.412
811.17	-14.035
811.47	9.836
811.77	-35.556
812.08	-13.559
812.38	0.000
812.69	17.241
812.99	-18.868
813.29	-35.897
813.59	2.000
813.90	3.509
814.20	-14.545
814.50	5.634
814.81	7.692
815.11	-9.836
815.41	4.478
815.72	6.897
816.02	8.929
816.32	15.556
816.62	-9.091
816.93	-17.778
817.23	11.111
817.53	-17.021
817.84	-11.905
818.14	-11.765
818.44	-10.204
818.74	-8.889
819.04	-30.769
819.35	-42.857
819.65	-50.000
819.95	3.774
820.25	2.222
820.56	-16.667
820.86	-56.250
821.16	-17.949
821.46	-13.953
821.76	-22.000
822.07	-5.357
822.37	-21.739
822.67	-6.383
822.97	-29.730
823.27	-22.500
823.57	6.122
823.88	6.667
824.18	-5.000
824.48	-20.000
824.78	-12.000
825.08	6.061
825.38	4.444
825.69	-17.021
825.99	-36.111
826.29	-57.143
826.59	-12.821
826.89	-16.279
827.19	-8.000
827.49	11.765
827.79	14.583
828.09	-37.838
828.39	-43.333
828.70	12.195
829.00	-23.256
829.30	-50.000
829.60	-8.824
829.90	2.174
830.20	-31.429
830.50	-17.241
830.80	-16.667
831.10	-15.385
831.40	-26.471
831.70	-23.810
832.00	19.355
832.30	-100.000
832.60	-20.833
832.90	-53.846
833.20	-68.421
833.50	-40.000
833.80	-36.842
834.10	-104.762
834.40	11.111
834.70	25.000
835.00	-34.286
835.30	-35.294
835.60	-23.333
835.90	-8.000
836.20	-50.000
836.50	-12.000
836.80	-30.303
837.10	-14.815
837.40	-40.741
837.70	-93.750
838.00	-14.286
838.30	0.000
838.60	-31.034
838.90	-28.571
839.19	-82.609
839.49	-83.333
839.79	30.435
840.09	-93.750
840.39	-50.000
840.69	41.935
840.99	-35.714
841.29	6.667
841.59	-31.579
841.88	10.256
842.18	-46.154
842.48	-110.000
842.78	-5.000
843.08	-6.667
843.38	6.452
843.68	-111.111
843.97	-14.706
844.27	-137.500
844.57	-42.105
844.87	-70.000
845.17	-100.000
845.47	38.095
845.76	-28.571
846.06	-66.667
846.36	-76.471
846.66	-15.385
846.96	-46.667
847.25	-17.647
847.55	-4.348
847.85	-25.000
848.15	11.765
848.44	-136.364
848.74	19.048
849.04	-62.500
849.34	-37.500
849.63	0.000
849.93	500.000
850.23	-26.667
850.53	-3.846
850.82	-54.545
851.12	27.273
851.42	-118.182
851.71	-30.769
852.01	-75.000
852.31	-38.462
852.61	-42.105
852.90	-25.000
853.20	-44.444
853.50	-155.556
853.79	-61.905
854.09	-59.091
854.39	-150.000
854.68	-6.452
854.98	-34.615
855.28	-38.889
855.57	-25.000
855.87	-28.000
856.17	-4.545
856.46	18.519
856.76	-61.111
857.05	-34.783
857.35	-70.833
857.65	-84.615
857.94	-38.095
858.24	18.519
858.53	17.391
858.83	-64.706
859.13	-76.471
859.42	-23.529
859.72	28.571
860.01	-30.000
860.31	-77.778
860.60	20.000
860.90	60.000
861.20	38.889
861.49	-38.462
861.79	-3.333
862.08	-61.538
862.38	-15.625
862.67	29.412
862.97	-50.000
863.26	-88.889
863.56	0.000
863.85	-118.182
864.15	-33.333
864.44	-266.667
864.74	14.286
865.03	-12.500
865.33	-180.000
865.62	-29.032
865.92	4.545
866.21	-39.130
866.51	-71.429
866.80	-240.000
867.10	-125.000
867.39	-108.333
867.69	2500.000
867.98	-85.714
868.27	11.765
868.57	-2200.000
868.86	-90.000
869.16	-66.667
869.45	16.667
869.75	-54.545
870.04	-85.714
870.33	25.000
870.63	-185.714
870.92	75.000
871.22	-112.500
871.51	-81.818
871.80	-766.667
872.10	150.000
>>>>>End Processed Spectral Data<<<<<
