SpectraSuite Data File
++++++++++++++++++++++++++++++++++++
Date: Thu May 14 15:59:00 PDT 2015
User: schluterlab
Dark Spectrum Present: Yes
Reference Spectrum Present: Yes
Number of Sampled Component Spectra: 1
Spectrometers: USB2E3373
Integration Time (usec): 3000 (USB2E3373)
Spectra Averaged: 3 (USB2E3373)
Boxcar Smoothing: 0 (USB2E3373)
Correct for Electrical Dark: No (USB2E3373)
Strobe/Lamp Enabled: No (USB2E3373)
Correct for Detector Non-linearity: No (USB2E3373)
Correct for Stray Light: No (USB2E3373)
Number of Pixels in Processed Spectrum: 2048
>>>>>Begin Processed Spectral Data<<<<<
178.53	0.000
178.91	271.429
179.29	-3000.000
179.67	-2300.000
180.04	250.000
180.42	270.000
180.80	540.000
181.18	-2900.000
181.56	-800.000
181.94	550.000
182.31	-500.000
182.69	533.333
183.07	-800.000
183.45	425.000
183.83	-166.667
184.20	-533.333
184.58	2100.000
184.96	-450.000
185.34	-277.778
185.72	-280.000
186.09	277.778
186.47	1250.000
186.85	560.000
187.23	-377.778
187.61	-3400.000
187.98	400.000
188.36	450.000
188.74	-700.000
189.12	-600.000
189.49	-125.000
189.87	-212.500
190.25	-133.333
190.63	-260.000
191.00	-244.444
191.38	0.000
191.76	-525.000
192.14	-400.000
192.51	1100.000
192.89	-300.000
193.27	0.000
193.65	-142.857
194.02	-2800.000
194.40	-271.429
194.78	342.857
195.15	0.000
195.53	-145.455
195.91	0.000
196.29	-300.000
196.66	-153.846
197.04	-2500.000
197.42	-314.286
197.79	-1300.000
198.17	-275.000
198.55	-214.286
198.92	-122.222
199.30	-187.500
199.68	-145.455
200.05	-164.286
200.43	-1400.000
200.81	471.429
201.18	0.000
201.56	311.111
201.94	0.000
202.31	900.000
202.69	-266.667
203.07	1700.000
203.44	-177.778
203.82	-550.000
204.19	-141.667
204.57	-250.000
204.95	-250.000
205.32	-1700.000
205.70	525.000
206.08	-366.667
206.45	-266.667
206.83	580.000
207.20	-366.667
207.58	-560.000
207.96	-366.667
208.33	-166.667
208.71	175.000
209.08	-100.000
209.46	0.000
209.84	566.667
210.21	700.000
210.59	1350.000
210.96	966.667
211.34	-300.000
211.71	-262.500
212.09	-2300.000
212.46	0.000
212.84	1550.000
213.22	-580.000
213.59	-575.000
213.97	-120.000
214.34	-600.000
214.72	300.000
215.09	-425.000
215.47	0.000
215.84	342.857
216.22	1600.000
216.59	-320.000
216.97	-380.000
217.34	-425.000
217.72	-237.500
218.09	-475.000
218.47	-525.000
218.84	0.000
219.22	360.000
219.59	-111.765
219.97	-100.000
220.34	1050.000
220.72	-244.444
221.09	-92.308
221.47	-866.667
221.84	-140.000
222.22	-228.571
222.59	0.000
222.97	-237.500
223.34	-480.000
223.72	-2100.000
224.09	-725.000
224.46	-700.000
224.84	-280.000
225.21	-285.714
225.59	-800.000
225.96	-475.000
226.34	-53.846
226.71	366.667
227.08	-800.000
227.46	-73.333
227.83	-550.000
228.21	-57.895
228.58	200.000
228.95	1000.000
229.33	-150.000
229.70	-220.000
230.08	-10.526
230.45	210.000
230.82	-433.333
231.20	-178.571
231.57	-141.667
231.95	-136.364
232.32	-109.091
232.69	-40.000
233.07	-500.000
233.44	-100.000
233.81	-200.000
234.19	-111.111
234.56	-63.636
234.93	-37.931
235.31	-100.000
235.68	-88.889
236.05	-150.000
236.43	-46.154
236.80	-36.000
237.17	-74.074
237.55	-51.515
237.92	-290.000
238.29	-67.742
238.67	-38.636
239.04	-47.222
239.41	-33.333
239.79	-19.565
240.16	-37.037
240.53	-56.522
240.91	-54.902
241.28	-21.311
241.65	-8.955
242.02	-10.811
242.40	-41.538
242.77	-25.333
243.14	-39.024
243.51	-42.105
243.89	-34.615
244.26	-2.970
244.63	-18.627
245.00	-8.411
245.38	-20.175
245.75	-24.779
246.12	-12.698
246.49	-17.829
246.87	-12.143
247.24	-12.583
247.61	-7.895
247.98	-18.121
248.36	-10.494
248.73	-17.178
249.10	-8.743
249.47	-6.468
249.84	-3.665
250.22	-11.917
250.59	-12.778
250.96	-3.182
251.33	-12.755
251.70	-7.265
252.08	-5.833
252.45	-8.197
252.82	-10.744
253.19	-9.375
253.56	-6.844
253.94	-8.077
254.31	-6.061
254.68	-2.797
255.05	-1.303
255.42	-6.463
255.79	-7.120
256.16	-7.285
256.54	-8.278
256.91	-4.918
257.28	-8.197
257.65	-8.280
258.02	-8.555
258.39	-3.134
258.76	-5.505
259.14	-3.736
259.51	-6.052
259.88	-6.232
260.25	-4.722
260.62	-5.753
260.99	-2.459
261.36	-2.145
261.73	-6.101
262.10	-6.868
262.47	-4.290
262.85	-1.515
263.22	-6.753
263.59	-8.421
263.96	-5.627
264.33	-6.138
264.70	-2.963
265.07	-1.909
265.44	-1.814
265.81	-4.630
266.18	-1.587
266.55	-4.018
266.92	-6.150
267.29	-2.407
267.66	-2.661
268.03	-3.493
268.40	-4.802
268.77	-5.467
269.14	-6.608
269.51	-3.947
269.88	-1.025
270.25	-3.219
270.62	-4.641
270.99	-1.212
271.36	-0.792
271.73	-1.375
272.10	-2.605
272.47	-4.008
272.84	-4.016
273.21	-3.607
273.58	-3.629
273.95	-3.077
274.32	-4.373
274.69	-3.868
275.06	-2.747
275.43	-3.142
275.80	0.000
276.17	-4.074
276.54	-4.478
276.91	-4.830
277.28	-1.989
277.65	-3.591
278.02	-4.963
278.39	-2.717
278.76	-2.636
279.13	-3.901
279.50	-2.577
279.87	-3.041
280.23	-5.810
280.60	-2.712
280.97	-2.632
281.34	-4.414
281.71	-2.707
282.08	-2.990
282.45	-4.092
282.82	-2.669
283.19	-2.746
283.56	-2.459
283.92	-0.901
284.29	1.422
284.66	-1.314
285.03	-3.045
285.40	-2.164
285.77	-4.180
286.14	-2.901
286.51	-3.196
286.87	-2.370
287.24	-2.861
287.61	-2.840
287.98	-2.719
288.35	-2.515
288.72	-3.402
289.08	-1.171
289.45	-2.367
289.82	-2.259
290.19	-2.874
290.56	-2.254
290.93	-2.996
291.29	-2.342
291.66	-2.479
292.03	-2.578
292.40	-0.816
292.77	-2.156
293.13	-1.894
293.50	-4.336
293.87	-2.685
294.24	0.400
294.60	-1.138
294.97	-3.221
295.34	-1.408
295.71	-1.892
296.08	-1.292
296.44	-2.574
296.81	-2.923
297.18	-2.366
297.55	-2.594
297.91	-2.491
298.28	-2.725
298.65	-1.427
299.02	-1.889
299.38	-1.144
299.75	-1.636
300.12	-2.431
300.48	-1.728
300.85	-2.250
301.22	-1.454
301.59	-2.854
301.95	-2.147
302.32	-1.111
302.69	-2.300
303.05	-2.067
303.42	-2.328
303.79	-2.604
304.15	-1.682
304.52	-1.691
304.89	-1.885
305.25	-1.760
305.62	-1.776
305.99	-0.619
306.35	-1.310
306.72	-0.414
307.09	-2.132
307.45	-1.760
307.82	-1.312
308.19	-1.917
308.55	-0.964
308.92	-0.487
309.29	0.192
309.65	-1.559
310.02	-1.386
310.38	-1.476
310.75	-1.553
311.12	-0.479
311.48	-1.760
311.85	-1.140
312.22	-0.664
312.58	-0.845
312.95	-1.816
313.31	0.271
313.68	0.000
314.05	0.542
314.41	0.546
314.78	-0.363
315.14	-0.635
315.51	-0.554
315.87	0.090
316.24	-0.274
316.61	0.622
316.97	0.181
317.34	-0.088
317.70	-0.262
318.07	-0.176
318.43	1.616
318.80	2.592
319.16	1.116
319.53	0.257
319.89	0.613
320.26	1.690
320.62	0.709
320.99	2.031
321.35	1.294
321.72	2.512
322.08	1.623
322.45	2.439
322.81	1.986
323.18	2.655
323.54	3.103
323.91	2.135
324.27	3.356
324.64	4.030
325.00	3.566
325.37	4.095
325.73	4.463
326.10	4.136
326.46	4.723
326.83	5.364
327.19	4.488
327.56	4.901
327.92	4.642
328.29	5.081
328.65	4.439
329.01	4.653
329.38	5.055
329.74	4.880
330.11	6.250
330.47	4.634
330.84	4.651
331.20	5.500
331.56	5.373
331.93	6.276
332.29	6.186
332.66	6.229
333.02	6.951
333.38	5.705
333.75	5.387
334.11	6.339
334.48	7.096
334.84	6.202
335.20	5.122
335.57	6.998
335.93	7.438
336.29	4.992
336.66	5.383
337.02	6.605
337.38	7.058
337.75	6.033
338.11	6.056
338.47	6.948
338.84	6.684
339.20	5.644
339.56	5.766
339.93	5.829
340.29	7.085
340.65	6.164
341.02	7.582
341.38	6.629
341.74	4.520
342.11	6.516
342.47	6.354
342.83	6.200
343.20	6.051
343.56	6.095
343.92	7.046
344.28	6.797
344.65	7.519
345.01	6.084
345.37	7.232
345.73	6.469
346.10	6.942
346.46	6.171
346.82	7.266
347.19	7.334
347.55	7.511
347.91	6.612
348.27	6.146
348.63	6.931
349.00	6.339
349.36	7.138
349.72	6.250
350.08	6.612
350.45	6.236
350.81	6.637
351.17	6.617
351.53	6.293
351.89	6.682
352.26	7.537
352.62	7.388
352.98	7.176
353.34	6.721
353.70	6.934
354.07	7.601
354.43	6.682
354.79	7.255
355.15	6.843
355.51	7.822
355.87	6.507
356.24	6.920
356.60	6.504
356.96	6.820
357.32	7.212
357.68	7.321
358.04	7.410
358.40	6.493
358.77	7.895
359.13	6.573
359.49	6.840
359.85	7.469
360.21	7.030
360.57	7.897
360.93	7.193
361.29	7.509
361.66	6.372
362.02	8.420
362.38	8.011
362.74	7.821
363.10	7.772
363.46	7.548
363.82	7.386
364.18	7.811
364.54	9.059
364.90	8.161
365.26	7.103
365.62	9.333
365.98	8.850
366.35	7.651
366.71	7.959
367.07	7.916
367.43	8.667
367.79	8.295
368.15	9.365
368.51	8.796
368.87	8.426
369.23	8.733
369.59	8.060
369.95	7.843
370.31	9.048
370.67	8.941
371.03	8.449
371.39	8.193
371.75	9.147
372.11	8.740
372.47	9.343
372.83	9.359
373.19	9.073
373.55	9.282
373.91	8.793
374.27	9.638
374.63	8.999
374.99	8.156
375.35	9.935
375.71	9.677
376.07	9.619
376.42	10.202
376.78	10.006
377.14	9.607
377.50	9.741
377.86	9.914
378.22	9.940
378.58	10.166
378.94	10.153
379.30	9.900
379.66	10.229
380.02	9.636
380.38	10.657
380.74	9.803
381.09	10.046
381.45	10.852
381.81	11.358
382.17	10.629
382.53	10.877
382.89	11.005
383.25	11.196
383.61	9.259
383.97	10.954
384.32	10.766
384.68	10.209
385.04	11.625
385.40	12.080
385.76	11.958
386.12	11.430
386.48	11.882
386.83	11.621
387.19	11.472
387.55	11.678
387.91	12.043
388.27	11.490
388.62	11.913
388.98	11.619
389.34	11.432
389.70	11.214
390.06	11.368
390.42	12.349
390.77	13.004
391.13	12.324
391.49	12.500
391.85	11.394
392.20	12.337
392.56	13.231
392.92	12.214
393.28	11.940
393.64	12.626
393.99	12.667
394.35	13.318
394.71	12.754
395.07	11.916
395.42	12.222
395.78	13.650
396.14	12.597
396.50	13.242
396.85	12.940
397.21	12.485
397.57	13.133
397.92	13.001
398.28	13.199
398.64	12.586
399.00	13.246
399.35	13.351
399.71	13.424
400.07	12.296
400.42	13.271
400.78	13.021
401.14	13.717
401.49	12.905
401.85	13.779
402.21	13.557
402.57	13.850
402.92	13.121
403.28	13.583
403.63	13.126
403.99	13.836
404.35	13.815
404.70	14.448
405.06	14.185
405.42	13.056
405.77	14.449
406.13	14.317
406.49	14.133
406.84	13.850
407.20	14.477
407.55	13.386
407.91	13.639
408.27	14.193
408.62	13.787
408.98	13.871
409.34	13.490
409.69	13.968
410.05	13.951
410.40	14.733
410.76	13.348
411.11	15.254
411.47	15.049
411.83	14.815
412.18	13.916
412.54	14.345
412.89	14.435
413.25	15.068
413.60	14.302
413.96	14.569
414.31	13.938
414.67	14.788
415.03	13.785
415.38	14.439
415.74	14.844
416.09	14.127
416.45	14.715
416.80	14.749
417.16	14.623
417.51	14.882
417.87	14.654
418.22	14.012
418.58	14.560
418.93	14.726
419.29	15.105
419.64	14.466
420.00	14.006
420.35	14.542
420.71	14.819
421.06	14.319
421.42	14.335
421.77	13.786
422.12	14.799
422.48	14.439
422.83	15.170
423.19	15.225
423.54	14.546
423.90	13.970
424.25	14.560
424.61	14.122
424.96	15.047
425.31	15.287
425.67	14.332
426.02	14.056
426.38	14.581
426.73	14.676
427.09	16.205
427.44	14.364
427.79	13.875
428.15	14.269
428.50	14.719
428.85	14.007
429.21	15.266
429.56	14.413
429.92	14.840
430.27	14.554
430.62	14.558
430.98	14.707
431.33	14.614
431.68	14.607
432.04	14.474
432.39	13.980
432.74	13.984
433.10	13.791
433.45	13.545
433.80	14.485
434.16	13.791
434.51	13.977
434.86	14.007
435.22	14.346
435.57	14.741
435.92	14.914
436.28	14.107
436.63	14.145
436.98	14.224
437.34	14.543
437.69	14.034
438.04	14.278
438.39	14.187
438.75	14.388
439.10	14.482
439.45	14.086
439.81	14.407
440.16	13.780
440.51	14.103
440.86	13.508
441.22	12.915
441.57	14.727
441.92	14.355
442.27	14.040
442.63	14.754
442.98	14.941
443.33	13.572
443.68	14.916
444.03	15.099
444.39	14.840
444.74	14.395
445.09	14.648
445.44	14.647
445.79	14.416
446.15	14.491
446.50	13.592
446.85	14.056
447.20	14.603
447.55	14.278
447.91	13.822
448.26	13.161
448.61	14.346
448.96	15.182
449.31	13.998
449.66	14.052
450.02	13.660
450.37	13.905
450.72	13.132
451.07	13.838
451.42	12.709
451.77	12.840
452.12	14.052
452.47	13.844
452.83	14.077
453.18	13.602
453.53	13.038
453.88	13.252
454.23	13.333
454.58	13.755
454.93	12.743
455.28	13.907
455.63	14.042
455.98	13.296
456.34	13.133
456.69	13.698
457.04	13.061
457.39	13.581
457.74	13.367
458.09	12.960
458.44	12.877
458.79	12.945
459.14	12.061
459.49	12.790
459.84	13.221
460.19	12.215
460.54	12.550
460.89	12.758
461.24	10.575
461.59	13.503
461.94	12.151
462.29	12.766
462.64	12.070
462.99	12.869
463.34	11.940
463.69	12.720
464.04	12.952
464.39	12.332
464.74	12.714
465.09	13.149
465.44	11.964
465.79	13.591
466.14	12.923
466.49	12.263
466.84	12.231
467.19	11.734
467.54	11.927
467.89	11.034
468.24	12.133
468.59	11.233
468.94	11.422
469.29	11.158
469.64	11.570
469.99	11.982
470.34	11.757
470.68	11.415
471.03	11.329
471.38	10.857
471.73	11.053
472.08	11.421
472.43	11.740
472.78	11.839
473.13	11.062
473.48	11.541
473.83	11.492
474.17	11.606
474.52	11.064
474.87	11.185
475.22	11.155
475.57	10.592
475.92	11.249
476.27	10.809
476.61	10.644
476.96	10.532
477.31	11.089
477.66	10.965
478.01	11.286
478.36	10.618
478.70	11.330
479.05	11.656
479.40	10.316
479.75	11.191
480.10	10.564
480.45	10.665
480.79	10.522
481.14	10.432
481.49	10.086
481.84	10.357
482.19	10.108
482.53	10.931
482.88	10.634
483.23	10.182
483.58	10.786
483.92	9.973
484.27	9.992
484.62	9.942
484.97	10.342
485.31	10.102
485.66	10.073
486.01	10.139
486.36	10.424
486.70	10.870
487.05	11.054
487.40	10.495
487.75	9.975
488.09	9.946
488.44	9.834
488.79	10.017
489.13	9.848
489.48	9.165
489.83	8.974
490.17	8.586
490.52	9.483
490.87	9.475
491.22	9.489
491.56	9.172
491.91	9.115
492.26	9.347
492.60	8.701
492.95	9.083
493.30	9.054
493.64	9.330
493.99	8.728
494.34	8.580
494.68	8.951
495.03	8.811
495.37	9.010
495.72	8.435
496.07	9.202
496.41	7.636
496.76	8.382
497.11	8.323
497.45	8.502
497.80	8.352
498.14	8.617
498.49	8.548
498.84	8.501
499.18	8.502
499.53	8.655
499.87	8.615
500.22	7.569
500.56	8.097
500.91	8.055
501.26	7.955
501.60	8.175
501.95	8.380
502.29	8.205
502.64	8.045
502.98	8.110
503.33	7.819
503.67	7.676
504.02	8.187
504.36	8.177
504.71	7.809
505.06	7.958
505.40	7.358
505.75	8.015
506.09	7.919
506.44	7.428
506.78	8.028
507.13	8.022
507.47	7.153
507.82	7.386
508.16	6.692
508.51	7.267
508.85	7.180
509.19	7.342
509.54	7.733
509.88	7.771
510.23	7.431
510.57	7.395
510.92	7.209
511.26	7.407
511.61	6.519
511.95	7.174
512.30	6.499
512.64	6.847
512.98	6.553
513.33	7.611
513.67	7.190
514.02	6.745
514.36	6.650
514.70	6.979
515.05	6.830
515.39	6.982
515.74	7.264
516.08	6.392
516.42	7.483
516.77	7.256
517.11	6.550
517.46	6.628
517.80	6.734
518.14	7.399
518.49	6.941
518.83	6.599
519.17	5.870
519.52	6.866
519.86	6.705
520.20	7.029
520.55	6.462
520.89	6.588
521.23	6.030
521.58	6.610
521.92	6.346
522.26	6.186
522.61	6.539
522.95	6.113
523.29	6.494
523.64	6.783
523.98	6.902
524.32	6.762
524.66	5.862
525.01	6.399
525.35	6.088
525.69	5.104
526.04	5.741
526.38	6.437
526.72	6.517
527.06	6.393
527.41	6.239
527.75	6.413
528.09	6.375
528.43	6.690
528.78	5.202
529.12	5.734
529.46	5.621
529.80	6.407
530.15	6.899
530.49	5.457
530.83	6.198
531.17	5.317
531.51	5.897
531.86	6.130
532.20	6.220
532.54	6.344
532.88	5.455
533.22	5.893
533.57	6.001
533.91	6.566
534.25	5.879
534.59	5.690
534.93	5.093
535.27	5.465
535.62	5.742
535.96	5.985
536.30	5.758
536.64	5.946
536.98	5.535
537.32	5.556
537.66	6.301
538.01	5.438
538.35	6.151
538.69	6.310
539.03	5.825
539.37	6.066
539.71	5.706
540.05	6.115
540.39	5.196
540.73	4.797
541.07	5.089
541.42	5.966
541.76	4.804
542.10	5.428
542.44	4.933
542.78	5.779
543.12	5.364
543.46	5.556
543.80	4.796
544.14	5.206
544.48	5.910
544.82	5.805
545.16	5.665
545.50	4.673
545.84	4.960
546.18	5.556
546.52	5.414
546.86	5.472
547.20	5.153
547.54	4.557
547.88	4.400
548.22	4.854
548.56	5.091
548.90	4.955
549.24	5.714
549.58	4.606
549.92	4.847
550.26	5.566
550.60	4.659
550.94	5.045
551.28	4.686
551.62	4.987
551.96	4.854
552.30	5.864
552.64	5.040
552.98	4.180
553.32	4.630
553.66	4.759
554.00	5.107
554.34	3.990
554.68	4.584
555.02	5.585
555.36	4.799
555.69	5.189
556.03	4.540
556.37	4.819
556.71	4.375
557.05	5.176
557.39	4.380
557.73	3.897
558.07	4.636
558.41	4.983
558.75	5.071
559.08	4.384
559.42	4.047
559.76	4.953
560.10	4.153
560.44	4.617
560.78	4.688
561.12	4.126
561.45	4.988
561.79	5.067
562.13	5.299
562.47	4.994
562.81	4.494
563.15	4.924
563.48	4.537
563.82	4.837
564.16	4.179
564.50	4.291
564.84	4.543
565.17	4.647
565.51	4.718
565.85	3.860
566.19	4.263
566.52	4.564
566.86	4.584
567.20	3.970
567.54	4.673
567.88	4.434
568.21	4.842
568.55	4.269
568.89	5.356
569.23	4.858
569.56	4.963
569.90	4.811
570.24	4.621
570.57	4.811
570.91	4.746
571.25	5.236
571.59	4.926
571.92	5.091
572.26	4.923
572.60	5.078
572.93	5.344
573.27	4.945
573.61	5.241
573.95	5.268
574.28	5.302
574.62	4.752
574.96	4.896
575.29	5.243
575.63	5.267
575.97	5.030
576.30	4.935
576.64	5.130
576.98	4.897
577.31	5.256
577.65	5.303
577.98	5.102
578.32	5.074
578.66	4.768
578.99	5.099
579.33	4.891
579.67	5.009
580.00	4.900
580.34	5.127
580.67	4.744
581.01	4.652
581.35	5.046
581.68	5.058
582.02	4.935
582.35	5.245
582.69	5.063
583.02	4.952
583.36	4.868
583.70	4.772
584.03	4.848
584.37	4.863
584.70	4.621
585.04	4.720
585.37	4.839
585.71	5.005
586.04	4.756
586.38	5.014
586.72	4.387
587.05	4.477
587.39	4.737
587.72	4.904
588.06	4.691
588.39	4.755
588.73	4.259
589.06	4.571
589.40	4.425
589.73	4.659
590.07	4.775
590.40	4.733
590.73	4.419
591.07	4.803
591.40	4.432
591.74	3.816
592.07	4.953
592.41	4.338
592.74	4.544
593.08	4.554
593.41	4.841
593.75	4.598
594.08	4.605
594.41	4.199
594.75	4.417
595.08	3.802
595.42	4.805
595.75	4.682
596.09	4.744
596.42	4.120
596.75	4.709
597.09	4.606
597.42	4.052
597.75	4.312
598.09	4.444
598.42	4.825
598.76	3.936
599.09	4.379
599.42	4.459
599.76	4.259
600.09	4.738
600.42	3.837
600.76	4.557
601.09	4.481
601.42	4.325
601.76	4.241
602.09	4.539
602.42	4.108
602.76	3.985
603.09	4.405
603.42	4.697
603.76	3.876
604.09	4.613
604.42	3.817
604.76	3.615
605.09	4.108
605.42	4.506
605.75	4.077
606.09	3.919
606.42	4.196
606.75	3.636
607.09	3.763
607.42	4.277
607.75	4.299
608.08	4.301
608.42	3.708
608.75	4.146
609.08	3.693
609.41	3.264
609.75	3.839
610.08	4.354
610.41	3.908
610.74	3.950
611.07	3.774
611.41	3.767
611.74	4.018
612.07	4.161
612.40	3.422
612.73	4.010
613.07	4.352
613.40	3.369
613.73	3.611
614.06	3.876
614.39	4.082
614.72	3.882
615.06	3.802
615.39	3.577
615.72	3.791
616.05	3.643
616.38	4.137
616.71	4.023
617.05	3.035
617.38	4.120
617.71	4.050
618.04	3.562
618.37	3.497
618.70	4.072
619.03	3.286
619.36	3.453
619.69	2.947
620.03	3.327
620.36	3.804
620.69	2.591
621.02	3.346
621.35	3.774
621.68	3.688
622.01	3.416
622.34	2.929
622.67	3.024
623.00	2.429
623.33	3.981
623.66	3.048
623.99	2.370
624.32	4.548
624.65	3.346
624.99	3.446
625.32	3.658
625.65	3.102
625.98	2.847
626.31	2.551
626.64	3.150
626.97	2.401
627.30	2.050
627.63	3.226
627.96	3.604
628.29	3.502
628.62	2.771
628.95	2.717
629.28	3.059
629.61	3.620
629.94	2.176
630.26	2.881
630.59	2.073
630.92	2.338
631.25	4.114
631.58	3.107
631.91	1.218
632.24	2.305
632.57	2.182
632.90	2.508
633.23	1.837
633.56	2.245
633.89	2.273
634.22	1.663
634.55	2.714
634.88	2.273
635.20	2.153
635.53	1.469
635.86	2.709
636.19	3.181
636.52	2.848
636.85	2.349
637.18	1.871
637.51	1.505
637.83	2.215
638.16	1.959
638.49	2.582
638.82	1.917
639.15	1.145
639.48	2.079
639.81	2.425
640.13	2.238
640.46	0.606
640.79	1.225
641.12	1.863
641.45	1.255
641.77	2.696
642.10	2.362
642.43	2.527
642.76	1.626
643.09	0.548
643.41	0.700
643.74	1.379
644.07	2.897
644.40	1.273
644.73	0.581
645.05	-1.028
645.38	1.871
645.71	1.026
646.04	1.578
646.36	0.876
646.69	1.380
647.02	0.612
647.35	0.916
647.67	1.449
648.00	1.592
648.33	2.252
648.66	0.143
648.98	2.177
649.31	2.030
649.64	1.594
649.96	1.459
650.29	1.947
650.62	0.424
650.94	0.000
651.27	-0.599
651.60	1.901
651.92	1.216
652.25	3.039
652.58	0.963
652.90	-0.436
653.23	1.549
653.56	0.713
653.88	2.669
654.21	1.549
654.54	1.156
654.86	1.700
655.19	0.376
655.52	2.634
655.84	4.256
656.17	4.911
656.49	7.156
656.82	7.907
657.15	5.899
657.47	4.385
657.80	3.232
658.13	2.281
658.45	3.026
658.78	3.712
659.10	3.349
659.43	3.291
659.75	2.513
660.08	2.409
660.41	1.985
660.73	0.000
661.06	0.881
661.38	0.319
661.71	-0.862
662.03	-0.176
662.36	3.399
662.68	0.938
663.01	2.124
663.33	2.268
663.66	2.930
663.98	0.385
664.31	0.375
664.63	-3.083
664.96	0.907
665.28	-0.181
665.61	1.399
665.93	-1.071
666.26	0.358
666.58	-0.923
666.91	0.000
667.23	0.952
667.56	-1.183
667.88	0.200
668.21	-1.367
668.53	-1.931
668.86	0.196
669.18	-0.815
669.50	-0.398
669.83	-1.800
670.15	-0.591
670.48	1.587
670.80	0.000
671.13	0.756
671.45	-0.787
671.77	0.565
672.10	0.500
672.42	0.647
672.75	0.154
673.07	0.000
673.39	-1.079
673.72	0.000
674.04	0.690
674.37	-0.358
674.69	1.058
675.01	-1.143
675.34	-0.573
675.66	-0.187
675.98	1.679
676.31	-0.586
676.63	0.380
676.95	1.149
677.28	-0.403
677.60	-2.362
677.92	0.768
678.25	1.280
678.57	2.847
678.89	0.512
679.22	0.697
679.54	-0.513
679.86	-1.356
680.18	-1.493
680.51	1.415
680.83	1.473
681.15	-0.690
681.48	2.073
681.80	0.518
682.12	1.049
682.44	1.503
682.77	0.532
683.09	0.379
683.41	0.194
683.73	-0.190
684.06	0.185
684.38	-1.431
684.70	0.718
685.02	1.033
685.34	0.333
685.67	-1.577
685.99	2.147
686.31	0.145
686.63	0.474
686.96	0.631
687.28	0.000
687.60	-0.842
687.92	1.447
688.24	1.669
688.56	-1.379
688.89	0.181
689.21	1.566
689.53	-1.961
689.85	-0.197
690.17	1.296
690.49	0.199
690.82	-1.188
691.14	-1.822
691.46	0.191
691.78	1.842
692.10	0.183
692.42	0.179
692.74	1.633
693.06	-2.407
693.39	0.000
693.71	-0.752
694.03	0.186
694.35	-0.381
694.67	-2.259
694.99	1.702
695.31	-2.428
695.63	-1.515
695.95	-0.621
696.27	-1.758
696.59	0.442
696.91	0.450
697.23	2.418
697.56	-2.037
697.88	-0.189
698.20	0.942
698.52	2.273
698.84	-0.208
699.16	1.633
699.48	-1.464
699.80	-1.702
700.12	-0.873
700.44	-1.152
700.76	-2.850
701.08	0.969
701.40	-1.036
701.72	1.493
702.04	-2.406
702.36	-4.188
702.68	-1.222
703.00	-1.711
703.32	-1.724
703.64	-0.244
703.96	-2.148
704.28	0.737
704.60	2.532
704.91	-0.765
705.23	-0.548
705.55	-4.178
705.87	-3.636
706.19	-1.534
706.51	-4.518
706.83	-2.594
707.15	-4.233
707.47	-0.467
707.79	-2.183
708.11	-2.331
708.43	-1.290
708.74	-3.571
709.06	-1.856
709.38	1.174
709.70	1.489
710.02	-2.067
710.34	-0.798
710.66	-3.352
710.98	-3.005
711.29	-3.846
711.61	-3.107
711.93	-3.704
712.25	-1.081
712.57	-0.590
712.89	0.882
713.20	-2.663
713.52	-1.445
713.84	-0.836
714.16	1.316
714.48	-1.546
714.80	0.000
715.11	-0.787
715.43	-3.979
715.75	-2.105
716.07	-3.867
716.39	1.093
716.70	-5.422
717.02	-0.656
717.34	-4.878
717.66	-2.349
717.97	-5.479
718.29	-6.529
718.61	0.000
718.93	-2.265
719.24	-2.484
719.56	-3.067
719.88	-0.901
720.20	-2.258
720.51	-0.621
720.83	-2.187
721.15	-3.947
721.46	-8.219
721.78	-4.667
722.10	-5.502
722.42	-5.034
722.73	-2.258
723.05	-2.456
723.37	-3.472
723.68	-4.659
724.00	-0.722
724.32	-5.634
724.63	-5.594
724.95	-0.709
725.27	-5.923
725.58	-3.534
725.90	-2.414
726.22	-2.821
726.53	-1.623
726.85	0.629
727.16	0.000
727.48	0.000
727.80	-0.662
728.11	-2.120
728.43	-2.694
728.74	-2.341
729.06	-2.649
729.38	-1.948
729.69	-4.698
730.01	0.000
730.32	-2.121
730.64	-1.887
730.96	-5.280
731.27	-2.235
731.59	0.000
731.90	-2.857
732.22	-3.385
732.53	-6.630
732.85	-1.429
733.16	-2.346
733.48	-2.439
733.80	-0.557
734.11	-0.855
734.43	-4.324
734.74	2.532
735.06	-2.261
735.37	-0.811
735.69	-1.351
736.00	-0.565
736.32	-0.809
736.63	-1.944
736.95	-3.448
737.26	-4.545
737.58	-3.939
737.89	-2.059
738.21	-3.670
738.52	-3.279
738.83	-1.365
739.15	0.000
739.46	-2.041
739.78	0.307
740.09	-3.438
740.41	-1.458
740.72	-4.000
741.04	-3.560
741.35	-0.702
741.66	-3.137
741.98	-2.459
742.29	-3.766
742.61	-0.877
742.92	-6.538
743.23	-2.166
743.55	-3.488
743.86	-4.800
744.18	-10.331
744.49	-6.329
744.80	1.646
745.12	-4.641
745.43	-4.878
745.74	-7.759
746.06	-6.356
746.37	-3.797
746.68	-1.626
747.00	-6.250
747.31	-3.433
747.62	0.769
747.94	-10.526
748.25	-3.213
748.56	-7.755
748.88	-5.556
749.19	1.724
749.50	-11.255
749.82	-0.803
750.13	-3.559
750.44	-5.000
750.75	-0.923
751.07	-5.538
751.38	-0.631
751.69	-3.195
752.01	-6.796
752.32	0.327
752.63	-4.082
752.94	-6.228
753.26	-7.435
753.57	-4.074
753.88	-3.745
754.19	-2.251
754.51	-2.572
754.82	-3.859
755.13	-2.295
755.44	-2.048
755.75	-0.987
756.07	2.687
756.38	-3.145
756.69	-1.506
757.00	-0.554
757.31	-1.366
757.63	-3.325
757.94	0.000
758.25	2.935
758.56	2.179
758.87	1.818
759.18	-0.267
759.50	-0.283
759.81	-1.681
760.12	0.539
760.43	-1.302
760.74	1.232
761.05	-2.000
761.36	-2.169
761.67	-2.538
761.99	-2.162
762.30	-3.049
762.61	-3.960
762.92	-4.104
763.23	-2.622
763.54	-4.676
763.85	-4.124
764.16	-2.020
764.47	-3.521
764.78	-3.514
765.10	-4.692
765.41	2.821
765.72	-1.323
766.03	-1.130
766.34	-3.762
766.65	-6.272
766.96	-5.179
767.27	-2.765
767.58	-8.458
767.89	2.404
768.20	-3.756
768.51	-7.407
768.82	-2.811
769.13	-0.758
769.44	-11.538
769.75	-3.249
770.06	-5.769
770.37	2.756
770.68	-6.809
770.99	-9.717
771.30	1.852
771.61	-4.183
771.92	-7.778
772.23	-1.619
772.54	-9.259
772.85	-5.991
773.16	-5.714
773.47	-7.937
773.78	-14.054
774.09	-12.500
774.39	2.000
774.70	-3.825
775.01	-11.585
775.32	-15.294
775.63	-10.429
775.94	-14.650
776.25	-9.032
776.56	-8.333
776.87	-8.163
777.18	-11.034
777.48	-17.483
777.79	-6.081
778.10	-15.441
778.41	-9.028
778.72	-10.345
779.03	-11.111
779.34	-9.697
779.65	-3.627
779.95	-4.444
780.26	-15.909
780.57	-11.613
780.88	-7.971
781.19	-4.516
781.50	-6.471
781.80	-2.688
782.11	-10.053
782.42	-10.606
782.73	-12.575
783.04	-9.497
783.34	-12.121
783.65	-18.954
783.96	-11.180
784.27	-4.762
784.57	-13.907
784.88	-5.714
785.19	-11.024
785.50	-14.961
785.81	-15.038
786.11	-9.231
786.42	-13.669
786.73	-10.791
787.04	-3.008
787.34	-12.295
787.65	-12.800
787.96	-8.209
788.26	-3.497
788.57	-9.091
788.88	-9.211
789.19	-7.843
789.49	-8.219
789.80	-8.511
790.11	-5.512
790.41	-11.719
790.72	-13.559
791.03	-22.330
791.33	-7.826
791.64	-5.263
791.95	-21.429
792.25	-18.095
792.56	-7.143
792.87	-26.042
793.17	2.679
793.48	-16.667
793.79	-30.120
794.09	-11.927
794.40	-12.844
794.70	-9.524
795.01	-11.039
795.32	-7.534
795.62	-7.042
795.93	-10.606
796.23	-8.197
796.54	-17.857
796.85	-26.596
797.15	-25.000
797.46	-34.247
797.76	-26.250
798.07	-17.391
798.37	-32.990
798.68	-40.260
798.99	-19.540
799.29	-12.360
799.60	-17.021
799.90	-20.482
800.21	-26.154
800.51	-34.328
800.82	-44.118
801.12	-38.356
801.43	-36.765
801.73	-47.458
802.04	-37.879
802.34	-40.000
802.65	-38.983
802.95	-28.358
803.26	-42.373
803.56	-31.507
803.87	-28.571
804.17	-20.548
804.48	-56.140
804.78	-25.000
805.09	-39.655
805.39	-28.378
805.70	-39.437
806.00	-19.512
806.30	-25.301
806.61	-35.616
806.91	-11.538
807.22	-11.111
807.52	-25.287
807.83	-23.611
808.13	-26.506
808.43	-15.730
808.74	-21.250
809.04	-38.235
809.35	-17.333
809.65	-40.000
809.95	-21.918
810.26	-49.123
810.56	-43.103
810.86	-22.059
811.17	-43.860
811.47	-26.230
811.77	-57.778
812.08	-22.034
812.38	-25.000
812.69	-5.172
812.99	-26.415
813.29	-61.538
813.59	-34.000
813.90	-33.333
814.20	-32.727
814.50	-23.944
814.81	-14.103
815.11	-26.230
815.41	-16.418
815.72	-25.862
816.02	-30.357
816.32	-44.444
816.62	-38.636
816.93	-55.556
817.23	-46.296
817.53	-36.170
817.84	-45.238
818.14	-55.882
818.44	-51.020
818.74	-44.444
819.04	-46.154
819.35	-77.143
819.65	-100.000
819.95	-22.642
820.25	-24.444
820.56	-66.667
820.86	-56.250
821.16	-33.333
821.46	-53.488
821.76	-44.000
822.07	-25.000
822.37	-69.565
822.67	-27.660
822.97	-64.865
823.27	-85.000
823.57	-24.490
823.88	-28.889
824.18	-30.000
824.48	-60.000
824.78	-56.000
825.08	-45.455
825.38	-15.556
825.69	-38.298
825.99	-25.000
826.29	-68.571
826.59	-53.846
826.89	-53.488
827.19	-38.000
827.49	-50.000
827.79	-31.250
828.09	-70.270
828.39	-70.000
828.70	-65.854
829.00	-37.209
829.30	-67.857
829.60	-50.000
829.90	-36.957
830.20	-74.286
830.50	-93.103
830.80	-150.000
831.10	-107.692
831.40	-50.000
831.70	-66.667
832.00	-45.161
832.30	-141.176
832.60	-75.000
832.90	-169.231
833.20	-63.158
833.50	-125.000
833.80	-126.316
834.10	-123.810
834.40	-38.889
834.70	-43.750
835.00	-68.571
835.30	-55.882
835.60	-83.333
835.90	-84.000
836.20	-140.909
836.50	-40.000
836.80	-72.727
837.10	-88.889
837.40	-51.852
837.70	-181.250
838.00	-42.857
838.30	-95.652
838.60	-58.621
838.90	-135.714
839.19	-130.435
839.49	-141.667
839.79	-69.565
840.09	-187.500
840.39	-145.000
840.69	-74.194
840.99	-92.857
841.29	-140.000
841.59	-105.263
841.88	-33.333
842.18	-88.462
842.48	-220.000
842.78	-75.000
843.08	-63.333
843.38	-38.710
843.68	-172.222
843.97	-41.176
844.27	-93.750
844.57	-115.789
844.87	-250.000
845.17	-93.333
845.47	-47.619
845.76	-104.762
846.06	-233.333
846.36	-176.471
846.66	-61.538
846.96	-113.333
847.25	-141.176
847.55	-78.261
847.85	-100.000
848.15	-76.471
848.44	-209.091
848.74	-71.429
849.04	-129.167
849.34	-112.500
849.63	-78.261
849.93	1450.000
850.23	-160.000
850.53	-65.385
850.82	-209.091
851.12	-45.455
851.42	-181.818
851.71	-107.692
852.01	-155.000
852.31	-176.923
852.61	-121.053
852.90	-158.333
853.20	-83.333
853.50	-288.889
853.79	-138.095
854.09	-136.364
854.39	-300.000
854.68	-77.419
854.98	-76.923
855.28	-61.111
855.57	-57.143
855.87	-108.000
856.17	-95.455
856.46	-77.778
856.76	-122.222
857.05	-86.957
857.35	-116.667
857.65	-184.615
857.94	-71.429
858.24	-59.259
858.53	-52.174
858.83	-100.000
859.13	-117.647
859.42	-105.882
859.72	-50.000
860.01	-85.000
860.31	-266.667
860.60	-190.000
860.90	-126.667
861.20	-88.889
861.49	-100.000
861.79	-63.333
862.08	-146.154
862.38	-53.125
862.67	-47.059
862.97	-125.000
863.26	-200.000
863.56	-210.000
863.85	-181.818
864.15	-88.889
864.44	-966.667
864.74	-100.000
865.03	-100.000
865.33	-230.000
865.62	-54.839
865.92	-68.182
866.21	-47.826
866.51	-100.000
866.80	-540.000
867.10	-141.667
867.39	-250.000
867.69	2900.000
867.98	-185.714
868.27	-111.765
868.57	-3100.000
868.86	-170.000
869.16	-100.000
869.45	-79.167
869.75	-81.818
870.04	-314.286
870.33	-125.000
870.63	-457.143
870.92	-500.000
871.22	-375.000
871.51	-218.182
871.80	-933.333
872.10	-1250.000
>>>>>End Processed Spectral Data<<<<<
