SpectraSuite Data File
++++++++++++++++++++++++++++++++++++
Date: Thu May 14 16:03:33 PDT 2015
User: schluterlab
Dark Spectrum Present: Yes
Reference Spectrum Present: Yes
Number of Sampled Component Spectra: 1
Spectrometers: USB2E3373
Integration Time (usec): 3000 (USB2E3373)
Spectra Averaged: 3 (USB2E3373)
Boxcar Smoothing: 0 (USB2E3373)
Correct for Electrical Dark: No (USB2E3373)
Strobe/Lamp Enabled: No (USB2E3373)
Correct for Detector Non-linearity: No (USB2E3373)
Correct for Stray Light: No (USB2E3373)
Number of Pixels in Processed Spectrum: 2048
>>>>>Begin Processed Spectral Data<<<<<
178.53	0.000
178.91	228.571
179.29	-2100.000
179.67	-1300.000
180.04	200.000
180.42	170.000
180.80	320.000
181.18	-1300.000
181.56	-900.000
181.94	350.000
182.31	-325.000
182.69	666.667
183.07	-500.000
183.45	475.000
183.83	-200.000
184.20	-200.000
184.58	1900.000
184.96	-425.000
185.34	-211.111
185.72	-260.000
186.09	244.444
186.47	850.000
186.85	500.000
187.23	-144.444
187.61	-2400.000
187.98	300.000
188.36	650.000
188.74	-350.000
189.12	-366.667
189.49	-43.750
189.87	-237.500
190.25	-144.444
190.63	-160.000
191.00	-244.444
191.38	0.000
191.76	-575.000
192.14	-250.000
192.51	700.000
192.89	16.667
193.27	0.000
193.65	-128.571
194.02	-2100.000
194.40	-285.714
194.78	357.143
195.15	0.000
195.53	-81.818
195.91	0.000
196.29	-125.000
196.66	-107.692
197.04	-2300.000
197.42	-357.143
197.79	-800.000
198.17	-212.500
198.55	-314.286
198.92	-200.000
199.30	-200.000
199.68	-145.455
200.05	-107.143
200.43	-950.000
200.81	328.571
201.18	0.000
201.56	200.000
201.94	0.000
202.31	433.333
202.69	-55.556
203.07	2400.000
203.44	-122.222
203.82	-325.000
204.19	-91.667
204.57	-316.667
204.95	-325.000
205.32	-800.000
205.70	325.000
206.08	-66.667
206.45	-316.667
206.83	620.000
207.20	-250.000
207.58	-540.000
207.96	-283.333
208.33	-183.333
208.71	166.667
209.08	-33.333
209.46	0.000
209.84	200.000
210.21	1150.000
210.59	800.000
210.96	800.000
211.34	-450.000
211.71	-175.000
212.09	-1500.000
212.46	0.000
212.84	1550.000
213.22	-460.000
213.59	-375.000
213.97	-110.000
214.34	-333.333
214.72	400.000
215.09	-275.000
215.47	0.000
215.84	328.571
216.22	950.000
216.59	-300.000
216.97	-340.000
217.34	-500.000
217.72	-100.000
218.09	-225.000
218.47	-325.000
218.84	0.000
219.22	240.000
219.59	-58.824
219.97	-40.000
220.34	1100.000
220.72	-166.667
221.09	-76.923
221.47	-533.333
221.84	-180.000
222.22	-171.429
222.59	0.000
222.97	-37.500
223.34	-320.000
223.72	-1400.000
224.09	-300.000
224.46	-425.000
224.84	-40.000
225.21	-285.714
225.59	-350.000
225.96	-525.000
226.34	-46.154
226.71	283.333
227.08	-550.000
227.46	-80.000
227.83	-375.000
228.21	-73.684
228.58	300.000
228.95	500.000
229.33	-100.000
229.70	-190.000
230.08	-36.842
230.45	220.000
230.82	-400.000
231.20	-78.571
231.57	-66.667
231.95	-81.818
232.32	-109.091
232.69	-25.000
233.07	-475.000
233.44	-58.824
233.81	-140.000
234.19	-77.778
234.56	-45.455
234.93	-10.345
235.31	-100.000
235.68	-83.333
236.05	-140.000
236.43	-30.769
236.80	0.000
237.17	-51.852
237.55	-30.303
237.92	-220.000
238.29	-45.161
238.67	-40.909
239.04	-38.889
239.41	-28.571
239.79	-10.870
240.16	-40.741
240.53	-21.739
240.91	-58.824
241.28	-24.590
241.65	-16.418
242.02	-29.730
242.40	-29.231
242.77	-25.333
243.14	-19.512
243.51	-32.895
243.89	-37.179
244.26	-16.832
244.63	-7.843
245.00	-1.869
245.38	-13.158
245.75	-12.389
246.12	-9.524
246.49	-10.853
246.87	-2.143
247.24	-3.974
247.61	-5.921
247.98	-14.094
248.36	-10.494
248.73	-15.337
249.10	-9.290
249.47	-0.995
249.84	-3.665
250.22	-6.736
250.59	-8.889
250.96	-2.727
251.33	-13.265
251.70	-0.427
252.08	-2.083
252.45	-4.098
252.82	-4.959
253.19	-8.203
253.56	-0.380
253.94	-6.154
254.31	-4.545
254.68	-3.147
255.05	0.000
255.42	-2.041
255.79	-7.767
256.16	-5.960
256.54	-4.967
256.91	-1.639
257.28	-6.230
257.65	-6.688
258.02	-6.785
258.39	-2.564
258.76	0.000
259.14	-4.310
259.51	-3.746
259.88	-3.399
260.25	-4.444
260.62	-5.205
260.99	-2.732
261.36	0.000
261.73	-5.570
262.10	-3.297
262.47	-2.949
262.85	0.505
263.22	-4.935
263.59	-6.579
263.96	-2.813
264.33	-4.348
264.70	-2.469
265.07	-0.955
265.44	1.814
265.81	-3.009
266.18	-1.814
266.55	-1.563
266.92	-4.100
267.29	-0.219
267.66	-2.882
268.03	-1.092
268.40	-3.132
268.77	-5.467
269.14	-2.643
269.51	-1.754
269.88	-0.615
270.25	-2.817
270.62	-1.688
270.99	-1.414
271.36	-1.188
271.73	-2.358
272.10	-1.804
272.47	-0.601
272.84	0.602
273.21	-1.603
273.58	-1.210
273.95	-1.538
274.32	-3.612
274.69	-4.062
275.06	-2.015
275.43	-3.882
275.80	-0.705
276.17	-3.889
276.54	-1.866
276.91	-1.610
277.28	-0.904
277.65	-0.539
278.02	-0.368
278.39	-2.174
278.76	-2.988
279.13	-1.773
279.50	-0.515
279.87	-1.252
280.23	-4.754
280.60	0.508
280.97	-1.151
281.34	-3.565
281.71	-1.523
282.08	-1.827
282.45	-2.619
282.82	-1.413
283.19	-3.231
283.56	-1.803
283.92	-0.300
284.29	-0.632
284.66	-0.328
285.03	-3.205
285.40	0.000
285.77	-1.858
286.14	0.305
286.51	-1.826
286.87	-1.580
287.24	-1.355
287.61	-1.794
287.98	-1.813
288.35	-0.888
288.72	-1.183
289.08	-0.439
289.45	-0.444
289.82	-0.904
290.19	-1.580
290.56	-1.549
290.93	-2.425
291.29	-1.791
291.66	-2.342
292.03	-1.628
292.40	0.000
292.77	-2.426
293.13	-0.812
293.50	-2.497
293.87	-1.611
294.24	0.000
294.60	-0.379
294.97	-2.148
295.34	0.768
295.71	-0.883
296.08	-1.292
296.44	-1.348
296.81	-0.365
297.18	-1.619
297.55	0.000
297.91	-0.830
298.28	-1.896
298.65	-0.476
299.02	0.000
299.38	-0.801
299.75	-0.701
300.12	-0.347
300.48	-0.115
300.85	-0.450
301.22	0.671
301.59	-0.114
301.95	-0.226
302.32	-0.556
302.69	0.110
303.05	0.109
303.42	-0.554
303.79	-0.625
304.15	-0.946
304.52	-1.268
304.89	-0.209
305.25	0.311
305.62	-1.149
305.99	-0.825
306.35	0.101
306.72	-0.103
307.09	-1.421
307.45	-0.828
307.82	0.000
308.19	0.202
308.55	1.157
308.92	0.292
309.29	1.341
309.65	-1.072
310.02	-0.396
310.38	-0.787
310.75	-0.194
311.12	-0.096
311.48	-0.587
311.85	0.380
312.22	0.474
312.58	1.315
312.95	0.574
313.31	1.084
313.68	1.465
314.05	1.987
314.41	1.548
314.78	1.090
315.14	1.543
315.51	0.554
315.87	1.890
316.24	1.461
316.61	2.309
316.97	2.081
317.34	1.411
317.70	2.707
318.07	2.822
318.43	3.146
318.80	4.013
319.16	2.489
319.53	1.971
319.89	2.366
320.26	4.093
320.62	2.660
320.99	3.693
321.35	2.865
321.72	4.930
322.08	3.517
322.45	3.704
322.81	4.332
323.18	3.540
323.54	4.569
323.91	4.715
324.27	4.647
324.64	5.793
325.00	4.809
325.37	5.651
325.73	4.876
326.10	6.002
326.46	6.107
326.83	5.685
327.19	5.827
327.56	5.296
327.92	4.091
328.29	5.081
328.65	5.444
329.01	4.399
329.38	6.740
329.74	5.394
330.11	7.620
330.47	5.897
330.84	5.771
331.20	7.167
331.56	6.239
331.93	6.360
332.29	6.441
332.66	6.063
333.02	6.114
333.38	5.872
333.75	6.481
334.11	6.505
334.48	5.446
334.84	7.307
335.20	5.709
335.57	6.324
335.93	6.942
336.29	6.323
336.66	5.803
337.02	5.686
337.38	6.037
337.75	6.446
338.11	5.551
338.47	6.948
338.84	5.753
339.20	6.318
339.56	5.437
339.93	6.076
340.29	7.568
340.65	6.732
341.02	7.662
341.38	6.952
341.74	7.103
342.11	6.758
342.47	5.957
342.83	7.488
343.20	7.441
343.56	6.496
343.92	5.765
344.28	6.406
344.65	7.054
345.01	7.254
345.37	7.076
345.73	5.456
346.10	6.864
346.46	5.934
346.82	6.816
347.19	6.188
347.55	7.663
347.91	6.686
348.27	5.994
348.63	6.474
349.00	6.786
349.36	8.178
349.72	7.515
350.08	7.429
350.45	5.551
350.81	7.014
351.17	6.917
351.53	6.899
351.89	7.365
352.26	6.045
352.62	6.642
352.98	7.252
353.34	6.348
353.70	5.932
354.07	7.303
354.43	6.910
354.79	6.806
355.15	7.064
355.51	7.675
355.87	5.984
356.24	7.833
356.60	8.352
356.96	6.597
357.32	6.691
357.68	6.662
358.04	6.512
358.40	6.567
358.77	7.310
359.13	6.795
359.49	6.543
359.85	7.542
360.21	7.963
360.57	7.251
360.93	7.546
361.29	8.561
361.66	6.951
362.02	7.724
362.38	7.660
362.74	7.472
363.10	8.253
363.46	8.172
363.82	7.884
364.18	7.741
364.54	8.506
364.90	8.227
365.26	7.241
365.62	8.200
365.98	8.237
366.35	7.450
366.71	9.048
367.07	8.593
367.43	9.192
367.79	8.958
368.15	8.629
368.51	8.457
368.87	8.491
369.23	8.733
369.59	8.607
369.95	8.316
370.31	9.251
370.67	8.047
371.03	8.587
371.39	7.723
371.75	9.354
372.11	7.724
372.47	8.192
372.83	9.162
373.19	8.739
373.55	9.282
373.91	8.248
374.27	9.314
374.63	8.863
374.99	8.820
375.35	9.416
375.71	9.355
376.07	9.361
376.42	9.698
376.78	9.944
377.14	9.233
377.50	9.488
377.86	10.406
378.22	10.120
378.58	10.226
378.94	10.153
379.30	10.252
379.66	9.524
380.02	9.636
380.38	10.253
380.74	10.761
381.09	10.337
381.45	9.034
381.81	10.422
382.17	10.926
382.53	9.942
382.89	10.553
383.25	10.141
383.61	9.896
383.97	10.130
384.32	9.928
384.68	10.035
385.04	11.163
385.40	10.725
385.76	10.668
386.12	10.652
386.48	10.529
386.83	11.442
387.19	10.776
387.55	10.915
387.91	10.445
388.27	11.605
388.62	11.569
388.98	10.434
389.34	11.903
389.70	11.563
390.06	11.012
390.42	11.506
390.77	11.921
391.13	11.150
391.49	11.111
391.85	10.485
392.20	11.447
392.56	12.168
392.92	11.450
393.28	11.609
393.64	11.061
393.99	11.156
394.35	11.507
394.71	12.216
395.07	10.838
395.42	10.851
395.78	12.675
396.14	11.468
396.50	11.520
396.85	11.091
397.21	11.538
397.57	11.543
397.92	12.142
398.28	10.918
398.64	11.842
399.00	10.681
399.35	11.099
399.71	11.957
400.07	11.847
400.42	11.467
400.78	11.285
401.14	12.123
401.49	11.597
401.85	11.744
402.21	11.587
402.57	11.854
402.92	12.175
403.28	11.066
403.63	10.740
403.99	11.639
404.35	12.166
404.70	11.955
405.06	11.848
405.42	11.241
405.77	11.069
406.13	11.237
406.49	12.106
406.84	12.576
407.20	11.962
407.55	10.600
407.91	11.439
408.27	11.307
408.62	12.275
408.98	11.666
409.34	10.440
409.69	11.681
410.05	11.606
410.40	11.833
410.76	11.497
411.11	11.397
411.47	11.732
411.83	12.052
412.18	11.747
412.54	11.025
412.89	11.758
413.25	11.061
413.60	12.177
413.96	11.772
414.31	11.558
414.67	11.568
415.03	11.754
415.38	11.097
415.74	12.034
416.09	11.598
416.45	11.459
416.80	11.016
417.16	12.452
417.51	11.768
417.87	10.668
418.22	11.257
418.58	11.152
418.93	11.525
419.29	11.406
419.64	10.864
420.00	10.742
420.35	11.960
420.71	10.913
421.06	10.466
421.42	11.640
421.77	11.147
422.12	11.469
422.48	11.521
422.83	11.336
423.19	11.247
423.54	11.670
423.90	10.823
424.25	11.680
424.61	10.390
424.96	12.081
425.31	12.049
425.67	10.091
426.02	11.234
426.38	10.907
426.73	10.770
427.09	11.765
427.44	11.196
427.79	10.945
428.15	10.674
428.50	10.562
428.85	10.505
429.21	10.957
429.56	11.303
429.92	10.663
430.27	10.747
430.62	10.845
430.98	11.018
431.33	10.997
431.68	10.489
432.04	11.021
432.39	10.927
432.74	10.845
433.10	11.249
433.45	10.647
433.80	9.818
434.16	10.589
434.51	11.202
434.86	10.478
435.22	11.105
435.57	11.439
435.92	10.573
436.28	11.035
436.63	10.213
436.98	10.574
437.34	10.090
437.69	10.017
438.04	10.788
438.39	11.143
438.75	10.681
439.10	10.465
439.45	10.676
439.81	9.944
440.16	10.509
440.51	10.981
440.86	10.172
441.22	10.932
441.57	10.639
441.92	10.281
442.27	10.253
442.63	10.184
442.98	10.832
443.33	10.836
443.68	11.100
444.03	11.054
444.39	10.633
444.74	10.669
445.09	10.340
445.44	10.116
445.79	10.967
446.15	10.175
446.50	10.956
446.85	10.117
447.20	10.735
447.55	11.140
447.91	9.791
448.26	10.518
448.61	10.255
448.96	11.212
449.31	9.544
449.66	9.586
450.02	10.549
450.37	10.389
450.72	9.419
451.07	9.681
451.42	9.763
451.77	8.894
452.12	10.102
452.47	9.269
452.83	10.360
453.18	9.340
453.53	8.845
453.88	10.050
454.23	10.226
454.58	9.460
454.93	9.223
455.28	10.054
455.63	9.721
455.98	10.279
456.34	9.835
456.69	9.289
457.04	9.693
457.39	9.922
457.74	10.179
458.09	9.116
458.44	9.159
458.79	9.180
459.14	8.652
459.49	9.791
459.84	9.864
460.19	9.328
460.54	9.256
460.89	9.105
461.24	8.563
461.59	9.020
461.94	9.127
462.29	9.854
462.64	9.415
462.99	8.663
463.34	9.604
463.69	9.203
464.04	9.672
464.39	8.296
464.74	8.837
465.09	9.112
465.44	9.335
465.79	9.466
466.14	9.015
466.49	9.211
466.84	8.650
467.19	9.017
467.54	8.402
467.89	9.195
468.24	9.252
468.59	8.107
468.94	8.042
469.29	8.818
469.64	8.519
469.99	8.094
470.34	7.488
470.68	8.749
471.03	9.627
471.38	7.848
471.73	7.542
472.08	8.058
472.43	9.091
472.78	9.005
473.13	7.901
473.48	8.882
473.83	8.764
474.17	8.558
474.52	8.479
474.87	9.136
475.22	8.225
475.57	8.255
475.92	9.258
476.27	7.934
476.61	8.879
476.96	8.186
477.31	8.564
477.66	8.762
478.01	8.592
478.36	7.727
478.70	8.325
479.05	8.231
479.40	8.342
479.75	8.694
480.10	8.148
480.45	8.067
480.79	8.390
481.14	8.180
481.49	7.497
481.84	8.225
482.19	8.043
482.53	8.439
482.88	8.197
483.23	7.781
483.58	7.948
483.92	7.137
484.27	8.298
484.62	7.508
484.97	7.970
485.31	7.533
485.66	8.021
486.01	7.738
486.36	7.776
486.70	8.558
487.05	8.320
487.40	8.033
487.75	7.812
488.09	7.749
488.44	7.676
488.79	7.723
489.13	7.965
489.48	6.563
489.83	7.364
490.17	6.926
490.52	7.266
490.87	7.403
491.22	6.932
491.56	7.295
491.91	7.065
492.26	7.356
492.60	6.603
492.95	7.065
493.30	7.441
493.64	6.746
493.99	7.237
494.34	6.751
494.68	6.852
495.03	7.137
495.37	7.457
495.72	6.803
496.07	7.450
496.41	6.435
496.76	7.298
497.11	7.006
497.45	6.172
497.80	7.108
498.14	6.485
498.49	6.801
498.84	6.490
499.18	6.793
499.53	6.771
499.87	6.989
500.22	5.744
500.56	5.893
500.91	6.133
501.26	6.545
501.60	6.186
501.95	6.730
502.29	6.275
502.64	6.559
502.98	6.471
503.33	6.134
503.67	6.411
504.02	6.261
504.36	6.568
504.71	6.385
505.06	6.094
505.40	6.124
505.75	6.375
506.09	6.215
506.44	5.571
506.78	6.881
507.13	6.086
507.47	6.253
507.82	6.250
508.16	5.688
508.51	5.720
508.85	6.377
509.19	6.253
509.54	6.244
509.88	5.974
510.23	5.682
510.57	6.477
510.92	6.096
511.26	5.051
511.61	5.649
511.95	4.880
512.30	6.204
512.64	6.047
512.98	5.953
513.33	6.401
513.67	6.068
514.02	5.876
514.36	5.882
514.70	5.573
515.05	5.944
515.39	6.194
515.74	6.151
516.08	6.075
516.42	6.279
516.77	5.941
517.11	5.209
517.46	6.257
517.80	6.360
518.14	5.930
518.49	6.128
518.83	5.535
519.17	5.439
519.52	5.765
519.86	5.913
520.20	6.337
520.55	5.586
520.89	5.405
521.23	4.690
521.58	5.989
521.92	5.779
522.26	5.956
522.61	5.093
522.95	5.190
523.29	5.632
523.64	5.549
523.98	5.933
524.32	6.074
524.66	5.748
525.01	5.776
525.35	4.997
525.69	4.872
526.04	4.937
526.38	5.230
526.72	5.421
527.06	4.751
527.41	5.598
527.75	5.523
528.09	4.959
528.43	5.802
528.78	4.624
529.12	5.275
529.46	5.228
529.80	5.549
530.15	5.623
530.49	4.330
530.83	5.372
531.17	4.301
531.51	5.415
531.86	4.928
532.20	5.366
532.54	4.548
532.88	4.909
533.22	5.952
533.57	5.424
533.91	5.948
534.25	5.653
534.59	4.828
534.93	4.414
535.27	5.352
535.62	5.458
535.96	4.648
536.30	5.405
536.64	4.264
536.98	5.535
537.32	4.877
537.66	5.303
538.01	5.317
538.35	4.872
538.69	4.748
539.03	5.212
539.37	5.359
539.71	5.045
540.05	5.096
540.39	4.890
540.73	4.675
541.07	4.292
541.42	4.253
541.76	4.152
542.10	5.006
542.44	4.446
542.78	5.231
543.12	5.185
543.46	4.518
543.80	4.436
544.14	4.967
544.48	5.142
544.82	5.446
545.16	4.711
545.50	4.853
545.84	3.980
546.18	5.617
546.52	3.885
546.86	4.654
547.20	4.389
547.54	4.370
547.88	4.039
548.22	4.269
548.56	4.506
548.90	3.881
549.24	5.350
549.58	3.975
549.92	4.401
550.26	4.660
550.60	4.531
550.94	4.528
551.28	4.554
551.62	3.571
551.96	4.984
552.30	4.844
552.64	4.667
552.98	3.993
553.32	4.180
553.66	4.244
554.00	4.540
554.34	3.990
554.68	4.325
555.02	4.336
555.36	5.128
555.69	3.652
556.03	4.035
556.37	4.318
556.71	3.805
557.05	4.153
557.39	3.583
557.73	4.029
558.07	3.510
558.41	3.987
558.75	3.719
559.08	3.827
559.42	3.772
559.76	4.613
560.10	3.952
560.44	3.364
560.78	4.688
561.12	4.002
561.45	4.440
561.79	3.968
562.13	3.635
562.47	3.329
562.81	4.051
563.15	4.482
563.48	4.723
563.82	3.990
564.16	3.513
564.50	4.052
564.84	4.189
565.17	3.765
565.51	3.855
565.85	3.979
566.19	3.399
566.52	3.569
566.86	3.792
567.20	3.752
567.54	3.080
567.88	4.128
568.21	4.496
568.55	4.508
568.89	4.267
569.23	4.394
569.56	3.517
569.90	4.455
570.24	3.946
570.57	3.624
570.91	3.613
571.25	3.876
571.59	4.063
571.92	3.865
572.26	4.209
572.60	4.232
572.93	4.119
573.27	3.934
573.61	4.262
573.95	4.370
574.28	4.462
574.62	3.934
574.96	4.124
575.29	4.142
575.63	4.204
575.97	4.120
576.30	3.948
576.64	4.032
576.98	3.986
577.31	4.161
577.65	3.921
577.98	4.047
578.32	3.971
578.66	4.052
578.99	4.034
579.33	3.957
579.67	4.034
580.00	3.731
580.34	3.796
580.67	3.994
581.01	3.548
581.35	4.267
581.68	3.957
582.02	4.202
582.35	4.209
582.69	3.900
583.02	3.831
583.36	3.984
583.70	3.613
584.03	3.984
584.37	3.653
584.70	3.912
585.04	3.604
585.37	3.712
585.71	3.862
586.04	3.985
586.38	3.877
586.72	3.685
587.05	3.198
587.39	3.765
587.72	3.660
588.06	3.965
588.39	3.908
588.73	3.836
589.06	3.612
589.40	3.780
589.73	3.824
590.07	3.548
590.40	4.598
590.73	3.888
591.07	3.723
591.40	3.499
591.74	3.617
592.07	3.857
592.41	2.997
592.74	3.905
593.08	3.917
593.41	3.937
593.75	3.764
594.08	3.423
594.41	3.654
594.75	3.520
595.08	3.398
595.42	3.539
595.75	4.294
596.09	3.287
596.42	3.726
596.75	3.589
597.09	4.081
597.42	3.258
597.75	3.528
598.09	4.127
598.42	3.458
598.76	3.210
599.09	3.702
599.42	3.621
599.76	3.235
600.09	3.604
600.42	3.570
600.76	3.600
601.09	3.219
601.42	3.193
601.76	3.379
602.09	3.574
602.42	3.272
602.76	3.542
603.09	3.231
603.42	3.071
603.76	3.524
604.09	3.868
604.42	3.743
604.76	3.349
605.09	3.151
605.42	3.628
605.75	3.615
606.09	3.135
606.42	3.502
606.75	3.223
607.09	3.226
607.42	4.123
607.75	3.439
608.08	3.078
608.42	2.983
608.75	3.566
609.08	2.844
609.41	3.705
609.75	3.080
610.08	3.386
610.41	2.889
610.74	3.445
611.07	3.064
611.41	3.632
611.74	3.187
612.07	3.226
612.40	2.852
612.73	3.130
613.07	3.081
613.40	3.417
613.73	3.563
614.06	2.993
614.39	3.256
614.72	3.105
615.06	3.032
615.39	2.803
615.72	3.365
616.05	3.254
616.38	3.330
616.71	2.926
617.05	2.023
617.38	4.013
617.71	3.024
618.04	3.130
618.37	3.115
618.70	3.054
619.03	2.688
619.36	3.144
619.69	2.691
620.03	2.574
620.36	2.577
620.69	2.406
621.02	2.690
621.35	2.540
621.68	3.471
622.01	2.705
622.34	2.301
622.67	2.612
623.00	1.552
623.33	3.318
623.66	3.502
623.99	2.107
624.32	3.574
624.65	2.767
624.99	2.796
625.32	3.788
625.65	2.765
625.98	2.034
626.31	2.622
626.64	3.223
626.97	2.326
627.30	1.974
627.63	2.326
627.96	3.679
628.29	2.179
628.62	1.511
628.95	2.103
629.28	1.359
629.61	2.778
629.94	1.590
630.26	2.034
630.59	2.591
630.92	1.818
631.25	2.236
631.58	2.637
631.91	1.125
632.24	2.882
632.57	2.941
632.90	1.906
633.23	2.245
633.56	2.755
633.89	1.446
634.22	1.871
634.55	1.357
634.88	1.623
635.20	2.368
635.53	2.147
635.86	1.625
636.19	3.712
636.52	2.848
636.85	2.554
637.18	1.040
637.51	1.935
637.83	2.547
638.16	2.765
638.49	1.878
638.82	2.029
639.15	1.489
639.48	2.309
639.81	3.002
640.13	1.649
640.46	0.000
640.79	-0.735
641.12	2.360
641.45	1.129
641.77	2.567
642.10	0.919
642.43	3.723
642.76	1.897
643.09	1.096
643.41	0.140
643.74	3.172
644.07	2.207
644.40	0.990
644.73	1.597
645.05	0.147
645.38	0.863
645.71	1.760
646.04	3.300
646.36	1.314
646.69	1.534
647.02	2.446
647.35	2.443
647.67	0.966
648.00	0.159
648.33	1.051
648.66	1.997
648.98	0.272
649.31	1.488
649.64	1.859
649.96	2.918
650.29	0.278
650.62	1.697
650.94	0.601
651.27	0.299
651.60	0.292
651.92	0.760
652.25	2.750
652.58	3.301
652.90	0.145
653.23	1.690
653.56	1.427
653.88	4.073
654.21	3.099
654.54	2.023
654.86	0.283
655.19	1.129
655.52	2.474
655.84	3.270
656.17	3.902
656.49	5.483
656.82	6.270
657.15	4.787
657.47	3.766
657.80	2.680
658.13	1.993
658.45	2.522
658.78	3.301
659.10	2.881
659.43	3.291
659.75	1.946
660.08	2.185
660.41	2.399
660.73	0.912
661.06	-0.734
661.38	1.754
661.71	1.379
662.03	1.235
662.36	3.041
662.68	1.313
663.01	-0.354
663.33	0.189
663.66	4.212
663.98	1.154
664.31	-0.750
664.63	-2.505
664.96	-0.181
665.28	-0.544
665.61	1.923
665.93	-0.357
666.26	0.896
666.58	-1.661
666.91	2.991
667.23	1.905
667.56	2.367
667.88	1.200
668.21	-1.758
668.53	-2.896
668.86	0.589
669.18	-1.222
669.50	0.199
669.83	-0.200
670.15	0.984
670.48	0.992
670.80	0.000
671.13	0.000
671.45	-1.181
671.77	1.130
672.10	1.667
672.42	1.618
672.75	1.075
673.07	0.299
673.39	0.616
673.72	1.342
674.04	1.207
674.37	0.358
674.69	3.527
675.01	-0.571
675.34	-0.573
675.66	0.936
675.98	0.933
676.31	-0.195
676.63	2.281
676.95	0.958
677.28	-1.008
677.60	-1.181
677.92	0.384
678.25	1.645
678.57	2.135
678.89	2.048
679.22	1.394
679.54	2.222
679.86	-0.339
680.18	0.166
680.51	0.314
680.83	2.128
681.15	-0.345
681.48	2.763
681.80	1.554
682.12	1.049
682.44	1.002
682.77	-0.709
683.09	1.515
683.41	3.101
683.73	0.759
684.06	-0.738
684.38	-0.894
684.70	0.718
685.02	0.861
685.34	-0.499
685.67	0.473
685.99	2.147
686.31	0.436
686.63	-0.158
686.96	0.631
687.28	0.814
687.60	-1.010
687.92	-0.161
688.24	1.836
688.56	-1.379
688.89	0.726
689.21	2.740
689.53	-0.980
689.85	-1.183
690.17	-1.852
690.49	-1.195
690.82	-1.782
691.14	-2.429
691.46	1.147
691.78	1.289
692.10	-1.284
692.42	0.357
692.74	0.000
693.06	-1.481
693.39	0.380
693.71	-1.504
694.03	0.372
694.35	-0.381
694.67	0.000
694.99	0.638
695.31	-0.221
695.63	-1.515
695.95	0.621
696.27	0.220
696.59	1.106
696.91	0.450
697.23	1.538
697.56	-0.815
697.88	-1.326
698.20	0.753
698.52	0.947
698.84	1.455
699.16	1.224
699.48	0.837
699.80	0.426
700.12	0.000
700.44	1.152
700.76	-0.713
701.08	2.421
701.40	-0.518
701.72	-0.995
702.04	-0.802
702.36	-1.832
702.68	-0.733
703.00	-0.978
703.32	-0.246
703.64	-0.244
703.96	0.716
704.28	-0.983
704.60	0.759
704.91	0.000
705.23	-1.370
705.55	0.000
705.87	-2.121
706.19	-1.534
706.51	-4.819
706.83	-0.865
707.15	-5.026
707.47	-1.869
707.79	-1.528
708.11	-1.483
708.43	0.000
708.74	-2.009
709.06	0.696
709.38	2.817
709.70	0.248
710.02	-0.258
710.34	-0.798
710.66	-3.352
710.98	-3.005
711.29	-3.297
711.61	-3.107
711.93	-1.140
712.25	0.000
712.57	1.180
712.89	0.000
713.20	-2.663
713.52	1.156
713.84	-1.114
714.16	1.579
714.48	-2.577
714.80	0.779
715.11	0.787
715.43	-1.857
715.75	0.000
716.07	-1.934
716.39	0.820
716.70	-7.229
717.02	-1.967
717.34	-5.575
717.66	-3.020
717.97	-5.479
718.29	-2.749
718.61	-3.947
718.93	-3.560
719.24	-1.242
719.56	-2.147
719.88	-1.201
720.20	-1.935
720.51	-4.969
720.83	-2.500
721.15	-4.276
721.46	-9.247
721.78	-7.000
722.10	-5.178
722.42	-5.369
722.73	-3.226
723.05	-5.614
723.37	-1.389
723.68	-0.717
724.00	-0.722
724.32	-2.465
724.63	-2.098
724.95	-2.482
725.27	-1.394
725.58	-4.947
725.90	1.724
726.22	-3.135
726.53	-1.623
726.85	-0.629
727.16	-3.927
727.48	0.917
727.80	0.000
728.11	-3.887
728.43	-1.347
728.74	-0.669
729.06	-4.636
729.38	0.000
729.69	-4.698
730.01	-0.595
730.32	-3.333
730.64	-4.403
730.96	-4.348
731.27	1.397
731.59	0.000
731.90	-1.299
732.22	0.000
732.53	-3.867
732.85	-2.571
733.16	-2.639
733.48	-0.610
733.80	0.279
734.11	-1.140
734.43	-2.432
734.74	0.253
735.06	-1.759
735.37	-0.541
735.69	-2.162
736.00	-1.412
736.32	0.809
736.63	-2.778
736.95	-1.149
737.26	-3.939
737.58	-6.364
737.89	0.882
738.21	-3.976
738.52	-4.590
738.83	-2.730
739.15	-4.610
739.46	-4.082
739.78	0.307
740.09	-3.152
740.41	0.292
740.72	-6.000
741.04	-2.589
741.35	1.754
741.66	-7.451
741.98	-2.049
742.29	-0.837
742.61	-2.632
742.92	-0.769
743.23	0.361
743.55	0.775
743.86	-2.000
744.18	-9.504
744.49	-8.439
744.80	-1.646
745.12	-1.688
745.43	-0.407
745.74	-3.879
746.06	-5.085
746.37	-2.110
746.68	-0.813
747.00	-7.500
747.31	-2.146
747.62	-4.231
747.94	-5.263
748.25	-2.811
748.56	-3.265
748.88	-2.991
749.19	1.293
749.50	-9.957
749.82	0.000
750.13	2.491
750.44	-2.667
750.75	-0.308
751.07	-5.231
751.38	-0.946
751.69	-2.236
752.01	-5.178
752.32	-0.654
752.63	-0.340
752.94	-2.768
753.26	-7.063
753.57	-4.815
753.88	-2.996
754.19	-1.286
754.51	-4.823
754.82	-3.537
755.13	0.984
755.44	-1.706
755.75	-0.329
756.07	1.791
756.38	-5.346
756.69	-1.807
757.00	-2.770
757.31	-1.366
757.63	-4.604
757.94	-0.939
758.25	-0.226
758.56	2.397
758.87	0.909
759.18	-2.667
759.50	-0.283
759.81	-1.120
760.12	-1.348
760.43	0.521
760.74	0.493
761.05	-1.750
761.36	-5.060
761.67	-1.523
761.99	-1.081
762.30	-2.744
762.61	-3.300
762.92	-4.851
763.23	-4.494
763.54	-0.719
763.85	-2.062
764.16	-2.694
764.47	-3.873
764.78	-0.639
765.10	-2.639
765.41	0.513
765.72	-0.794
766.03	-0.565
766.34	-4.389
766.65	-2.787
766.96	-1.594
767.27	3.687
767.58	-7.463
767.89	0.000
768.20	-5.634
768.51	-6.481
768.82	0.000
769.13	-1.894
769.44	-7.692
769.75	0.361
770.06	-1.923
770.37	2.362
770.68	-4.255
770.99	-7.287
771.30	1.111
771.61	-0.380
771.92	-5.185
772.23	-1.619
772.54	-4.167
772.85	-1.843
773.16	0.476
773.47	-4.762
773.78	-6.486
774.09	-7.955
774.39	-3.000
774.70	-1.093
775.01	-10.976
775.32	-10.000
775.63	-4.294
775.94	-15.287
776.25	0.000
776.56	-6.410
776.87	0.000
777.18	-3.448
777.48	-6.294
777.79	0.000
778.10	-13.971
778.41	-4.861
778.72	-7.586
779.03	-5.556
779.34	-7.273
779.65	-0.518
779.95	-6.111
780.26	-5.682
780.57	-9.677
780.88	1.449
781.19	-1.290
781.50	0.588
781.80	-1.075
782.11	-3.704
782.42	-7.576
782.73	-7.186
783.04	-6.145
783.34	-7.273
783.65	-11.765
783.96	-8.075
784.27	-0.595
784.57	-13.245
784.88	-3.571
785.19	-7.087
785.50	-10.236
785.81	-7.519
786.11	-2.308
786.42	-11.511
786.73	-7.914
787.04	-1.504
787.34	-9.836
787.65	-9.600
787.96	-1.493
788.26	-2.098
788.57	1.399
788.88	-5.921
789.19	0.000
789.49	-10.274
789.80	-11.348
790.11	-1.575
790.41	-5.469
790.72	-9.322
791.03	-26.214
791.33	0.000
791.64	-11.404
791.95	-8.036
792.25	-9.524
792.56	-11.607
792.87	-29.167
793.17	-8.036
793.48	-7.292
793.79	-27.711
794.09	-7.339
794.40	-10.092
794.70	-1.361
795.01	-9.091
795.32	-7.534
795.62	-5.634
795.93	-9.091
796.23	-2.459
796.54	-14.286
796.85	-17.021
797.15	-14.130
797.46	-23.288
797.76	-16.250
798.07	-9.783
798.37	-20.619
798.68	-15.584
798.99	-16.092
799.29	-11.236
799.60	-3.191
799.90	-7.229
800.21	-24.615
800.51	-35.821
800.82	-22.059
801.12	-30.137
801.43	-33.824
801.73	-47.458
802.04	-27.273
802.34	-25.000
802.65	-8.475
802.95	-13.433
803.26	-18.644
803.56	-15.068
803.87	-10.000
804.17	-6.849
804.48	-47.368
804.78	-22.222
805.09	-34.483
805.39	-16.216
805.70	-42.254
806.00	-15.854
806.30	-15.663
806.61	-28.767
806.91	-14.423
807.22	-5.556
807.52	-16.092
807.83	-18.056
808.13	-9.639
808.43	-4.494
808.74	-21.250
809.04	-44.118
809.35	-20.000
809.65	-17.143
809.95	-20.548
810.26	-40.351
810.56	-22.414
810.86	-11.765
811.17	-28.070
811.47	-34.426
811.77	-68.889
812.08	-22.034
812.38	-3.333
812.69	-13.793
812.99	-26.415
813.29	-61.538
813.59	-20.000
813.90	-24.561
814.20	-30.909
814.50	-12.676
814.81	1.282
815.11	-4.918
815.41	-20.896
815.72	-15.517
816.02	-17.857
816.32	-35.556
816.62	-22.727
816.93	-35.556
817.23	-14.815
817.53	-29.787
817.84	-14.286
818.14	-79.412
818.44	-16.327
818.74	-40.000
819.04	-53.846
819.35	-60.000
819.65	-96.154
819.95	-11.321
820.25	-2.222
820.56	-40.476
820.86	-40.625
821.16	-58.974
821.46	-34.884
821.76	-64.000
822.07	-33.929
822.37	-32.609
822.67	-53.191
822.97	-72.973
823.27	-45.000
823.57	-14.286
823.88	-15.556
824.18	-35.000
824.48	-63.333
824.78	-64.000
825.08	-63.636
825.38	-26.667
825.69	-2.128
825.99	-27.778
826.29	-71.429
826.59	-41.026
826.89	-53.488
827.19	-44.000
827.49	-41.176
827.79	-12.500
828.09	-45.946
828.39	-76.667
828.70	-34.146
829.00	-30.233
829.30	-75.000
829.60	-38.235
829.90	-36.957
830.20	-71.429
830.50	-68.966
830.80	-122.222
831.10	-73.077
831.40	-41.176
831.70	-52.381
832.00	-19.355
832.30	-164.706
832.60	-70.833
832.90	-130.769
833.20	-100.000
833.50	-60.000
833.80	-110.526
834.10	-128.571
834.40	-41.667
834.70	-37.500
835.00	-68.571
835.30	-20.588
835.60	-20.000
835.90	-28.000
836.20	-136.364
836.50	-76.000
836.80	-33.333
837.10	-44.444
837.40	-62.963
837.70	-156.250
838.00	-21.429
838.30	-47.826
838.60	-24.138
838.90	-157.143
839.19	-73.913
839.49	-233.333
839.79	-26.087
840.09	-137.500
840.39	-115.000
840.69	-16.129
840.99	-42.857
841.29	-146.667
841.59	-63.158
841.88	-12.821
842.18	-73.077
842.48	-210.000
842.78	-75.000
843.08	-46.667
843.38	3.226
843.68	-122.222
843.97	-14.706
844.27	-68.750
844.57	-63.158
844.87	-190.000
845.17	-146.667
845.47	-66.667
845.76	-80.952
846.06	-111.111
846.36	-141.176
846.66	-65.385
846.96	-140.000
847.25	-111.765
847.55	-43.478
847.85	-110.000
848.15	-70.588
848.44	-154.545
848.74	-42.857
849.04	-79.167
849.34	-112.500
849.63	-34.783
849.93	1150.000
850.23	-66.667
850.53	-34.615
850.82	-136.364
851.12	-54.545
851.42	-127.273
851.71	-53.846
852.01	-145.000
852.31	-192.308
852.61	-52.632
852.90	-141.667
853.20	-44.444
853.50	-166.667
853.79	-71.429
854.09	-86.364
854.39	-225.000
854.68	-35.484
854.98	-65.385
855.28	-88.889
855.57	-57.143
855.87	-28.000
856.17	-27.273
856.46	-22.222
856.76	-77.778
857.05	-43.478
857.35	-75.000
857.65	-123.077
857.94	-114.286
858.24	-7.407
858.53	-39.130
858.83	-47.059
859.13	-111.765
859.42	-105.882
859.72	-42.857
860.01	-80.000
860.31	-188.889
860.60	-140.000
860.90	-46.667
861.20	5.556
861.49	-115.385
861.79	-56.667
862.08	-192.308
862.38	-43.750
862.67	-82.353
862.97	-50.000
863.26	-288.889
863.56	-150.000
863.85	-100.000
864.15	-61.111
864.44	-700.000
864.74	-71.429
865.03	-93.750
865.33	-240.000
865.62	-45.161
865.92	-13.636
866.21	-73.913
866.51	-50.000
866.80	-560.000
867.10	-216.667
867.39	-166.667
867.69	2500.000
867.98	-200.000
868.27	-105.882
868.57	-2500.000
868.86	-240.000
869.16	-71.429
869.45	-54.167
869.75	-145.455
870.04	-285.714
870.33	-125.000
870.63	-328.571
870.92	-425.000
871.22	-375.000
871.51	-154.545
871.80	-833.333
872.10	-1000.000
>>>>>End Processed Spectral Data<<<<<
