SpectraSuite Data File
++++++++++++++++++++++++++++++++++++
Date: Tue May 12 13:10:40 PDT 2015
User: schluterlab
Dark Spectrum Present: Yes
Reference Spectrum Present: No
Number of Sampled Component Spectra: 1
Spectrometers: USB2E3373
Integration Time (usec): 2300000 (USB2E3373)
Spectra Averaged: 3 (USB2E3373)
Boxcar Smoothing: 0 (USB2E3373)
Correct for Electrical Dark: No (USB2E3373)
Strobe/Lamp Enabled: No (USB2E3373)
Correct for Detector Non-linearity: No (USB2E3373)
Correct for Stray Light: No (USB2E3373)
Number of Pixels in Processed Spectrum: 2048
>>>>>Begin Processed Spectral Data<<<<<
178.53	0.0000E00
178.91	0.0000E00
179.29	0.0000E00
179.67	0.0000E00
180.04	0.0000E00
180.42	0.0000E00
180.80	0.0000E00
181.18	0.0000E00
181.56	0.0000E00
181.94	0.0000E00
182.31	0.0000E00
182.69	0.0000E00
183.07	0.0000E00
183.45	0.0000E00
183.83	0.0000E00
184.20	0.0000E00
184.58	0.0000E00
184.96	0.0000E00
185.34	0.0000E00
185.72	0.0000E00
186.09	0.0000E00
186.47	0.0000E00
186.85	0.0000E00
187.23	0.0000E00
187.61	0.0000E00
187.98	0.0000E00
188.36	0.0000E00
188.74	0.0000E00
189.12	0.0000E00
189.49	0.0000E00
189.87	0.0000E00
190.25	0.0000E00
190.63	0.0000E00
191.00	0.0000E00
191.38	0.0000E00
191.76	0.0000E00
192.14	0.0000E00
192.51	0.0000E00
192.89	0.0000E00
193.27	0.0000E00
193.65	0.0000E00
194.02	0.0000E00
194.40	0.0000E00
194.78	0.0000E00
195.15	0.0000E00
195.53	-0.0000E00
195.91	0.0000E00
196.29	0.0000E00
196.66	0.0000E00
197.04	0.0000E00
197.42	0.0000E00
197.79	0.0000E00
198.17	0.0000E00
198.55	0.0000E00
198.92	0.0000E00
199.30	0.0000E00
199.68	0.0000E00
200.05	0.0000E00
200.43	0.0000E00
200.81	0.0000E00
201.18	0.0000E00
201.56	0.0000E00
201.94	0.0000E00
202.31	-0.0000E00
202.69	0.0000E00
203.07	0.0000E00
203.44	0.0000E00
203.82	0.0000E00
204.19	0.0000E00
204.57	0.0000E00
204.95	0.0000E00
205.32	0.0000E00
205.70	0.0000E00
206.08	0.0000E00
206.45	0.0000E00
206.83	0.0000E00
207.20	0.0000E00
207.58	0.0000E00
207.96	0.0000E00
208.33	0.0000E00
208.71	0.0000E00
209.08	0.0000E00
209.46	0.0000E00
209.84	0.0000E00
210.21	0.0000E00
210.59	0.0000E00
210.96	0.0000E00
211.34	0.0000E00
211.71	0.0000E00
212.09	0.0000E00
212.46	0.0000E00
212.84	0.0000E00
213.22	0.0000E00
213.59	0.0000E00
213.97	0.0000E00
214.34	0.0000E00
214.72	0.0000E00
215.09	0.0000E00
215.47	0.0000E00
215.84	0.0000E00
216.22	0.0000E00
216.59	0.0000E00
216.97	0.0000E00
217.34	0.0000E00
217.72	0.0000E00
218.09	0.0000E00
218.47	0.0000E00
218.84	0.0000E00
219.22	0.0000E00
219.59	0.0000E00
219.97	0.0000E00
220.34	0.0000E00
220.72	0.0000E00
221.09	0.0000E00
221.47	0.0000E00
221.84	0.0000E00
222.22	0.0000E00
222.59	0.0000E00
222.97	0.0000E00
223.34	0.0000E00
223.72	0.0000E00
224.09	0.0000E00
224.46	0.0000E00
224.84	0.0000E00
225.21	0.0000E00
225.59	0.0000E00
225.96	0.0000E00
226.34	0.0000E00
226.71	0.0000E00
227.08	0.0000E00
227.46	0.0000E00
227.83	0.0000E00
228.21	0.0000E00
228.58	0.0000E00
228.95	0.0000E00
229.33	0.0000E00
229.70	0.0000E00
230.08	0.0000E00
230.45	0.0000E00
230.82	0.0000E00
231.20	0.0000E00
231.57	0.0000E00
231.95	0.0000E00
232.32	0.0000E00
232.69	0.0000E00
233.07	0.0000E00
233.44	0.0000E00
233.81	0.0000E00
234.19	0.0000E00
234.56	0.0000E00
234.93	0.0000E00
235.31	0.0000E00
235.68	0.0000E00
236.05	0.0000E00
236.43	0.0000E00
236.80	0.0000E00
237.17	0.0000E00
237.55	0.0000E00
237.92	0.0000E00
238.29	0.0000E00
238.67	0.0000E00
239.04	0.0000E00
239.41	0.0000E00
239.79	0.0000E00
240.16	0.0000E00
240.53	0.0000E00
240.91	0.0000E00
241.28	0.0000E00
241.65	0.0000E00
242.02	0.0000E00
242.40	0.0000E00
242.77	0.0000E00
243.14	0.0000E00
243.51	0.0000E00
243.89	0.0000E00
244.26	0.0000E00
244.63	0.0000E00
245.00	0.0000E00
245.38	0.0000E00
245.75	0.0000E00
246.12	0.0000E00
246.49	0.0000E00
246.87	0.0000E00
247.24	0.0000E00
247.61	0.0000E00
247.98	0.0000E00
248.36	0.0000E00
248.73	0.0000E00
249.10	0.0000E00
249.47	0.0000E00
249.84	0.0000E00
250.22	0.0000E00
250.59	0.0000E00
250.96	0.0000E00
251.33	0.0000E00
251.70	0.0000E00
252.08	0.0000E00
252.45	0.0000E00
252.82	0.0000E00
253.19	0.0000E00
253.56	0.0000E00
253.94	0.0000E00
254.31	0.0000E00
254.68	0.0000E00
255.05	0.0000E00
255.42	0.0000E00
255.79	0.0000E00
256.16	0.0000E00
256.54	0.0000E00
256.91	0.0000E00
257.28	0.0000E00
257.65	0.0000E00
258.02	0.0000E00
258.39	0.0000E00
258.76	0.0000E00
259.14	0.0000E00
259.51	0.0000E00
259.88	0.0000E00
260.25	0.0000E00
260.62	0.0000E00
260.99	0.0000E00
261.36	0.0000E00
261.73	0.0000E00
262.10	0.0000E00
262.47	0.0000E00
262.85	0.0000E00
263.22	0.0000E00
263.59	0.0000E00
263.96	0.0000E00
264.33	0.0000E00
264.70	0.0000E00
265.07	0.0000E00
265.44	0.0000E00
265.81	0.0000E00
266.18	0.0000E00
266.55	0.0000E00
266.92	0.0000E00
267.29	0.0000E00
267.66	0.0000E00
268.03	0.0000E00
268.40	0.0000E00
268.77	0.0000E00
269.14	0.0000E00
269.51	0.0000E00
269.88	0.0000E00
270.25	0.0000E00
270.62	0.0000E00
270.99	0.0000E00
271.36	0.0000E00
271.73	0.0000E00
272.10	0.0000E00
272.47	0.0000E00
272.84	0.0000E00
273.21	0.0000E00
273.58	0.0000E00
273.95	0.0000E00
274.32	0.0000E00
274.69	0.0000E00
275.06	0.0000E00
275.43	0.0000E00
275.80	0.0000E00
276.17	0.0000E00
276.54	0.0000E00
276.91	0.0000E00
277.28	0.0000E00
277.65	0.0000E00
278.02	0.0000E00
278.39	0.0000E00
278.76	0.0000E00
279.13	0.0000E00
279.50	0.0000E00
279.87	0.0000E00
280.23	0.0000E00
280.60	0.0000E00
280.97	0.0000E00
281.34	0.0000E00
281.71	0.0000E00
282.08	0.0000E00
282.45	0.0000E00
282.82	0.0000E00
283.19	0.0000E00
283.56	0.0000E00
283.92	0.0000E00
284.29	0.0000E00
284.66	0.0000E00
285.03	0.0000E00
285.40	0.0000E00
285.77	0.0000E00
286.14	0.0000E00
286.51	0.0000E00
286.87	0.0000E00
287.24	0.0000E00
287.61	0.0000E00
287.98	0.0000E00
288.35	0.0000E00
288.72	0.0000E00
289.08	0.0000E00
289.45	0.0000E00
289.82	0.0000E00
290.19	0.0000E00
290.56	0.0000E00
290.93	0.0000E00
291.29	0.0000E00
291.66	0.0000E00
292.03	0.0000E00
292.40	0.0000E00
292.77	0.0000E00
293.13	0.0000E00
293.50	0.0000E00
293.87	0.0000E00
294.24	0.0000E00
294.60	0.0000E00
294.97	0.0000E00
295.34	0.0000E00
295.71	0.0000E00
296.08	0.0000E00
296.44	0.0000E00
296.81	0.0000E00
297.18	0.0000E00
297.55	0.0000E00
297.91	0.0000E00
298.28	0.0000E00
298.65	0.0000E00
299.02	0.0000E00
299.38	0.0000E00
299.75	0.0000E00
300.12	3.5964E-01
300.48	9.1349E-01
300.85	3.7914E-01
301.22	9.9491E-01
301.59	3.0785E-01
301.95	3.6110E-01
302.32	5.3635E-01
302.69	5.4130E-01
303.05	3.2904E-01
303.42	4.4752E-01
303.79	5.0849E-01
304.15	3.1870E-01
304.52	3.7150E-01
304.89	3.5313E-01
305.25	7.0344E-01
305.62	4.5346E-01
305.99	5.4903E-01
306.35	3.3001E-01
306.72	4.4841E-01
307.09	3.9256E-01
307.45	4.0161E-01
307.82	2.9327E-01
308.19	3.6786E-01
308.55	4.3179E-01
308.92	5.0766E-01
309.29	4.2463E-01
309.65	5.4383E-01
310.02	3.8645E-01
310.38	4.1390E-01
310.75	5.6305E-01
311.12	5.4904E-01
311.48	9.5711E-01
311.85	6.2515E-01
312.22	4.4342E-01
312.58	1.0209E00
312.95	6.3750E-01
313.31	6.2050E-01
313.68	8.1223E-01
314.05	1.3699E00
314.41	7.6037E-01
314.78	4.5978E-01
315.14	8.5375E-01
315.51	1.6176E00
315.87	7.1286E-01
316.24	1.0558E00
316.61	1.0108E00
316.97	7.0760E-01
317.34	1.1825E00
317.70	9.5289E-01
318.07	9.6521E-01
318.43	1.1515E00
318.80	8.7033E-01
319.16	1.1257E00
319.53	8.0237E-01
319.89	1.6462E00
320.26	1.2737E00
320.62	1.5909E00
320.99	1.4011E00
321.35	8.1490E-01
321.72	1.0936E00
322.08	1.7462E00
322.45	9.8689E-01
322.81	1.1412E00
323.18	3.4831E00
323.54	1.8615E00
323.91	1.4299E00
324.27	2.7803E00
324.64	2.0191E00
325.00	1.4584E00
325.37	2.4370E00
325.73	8.9602E-01
326.10	3.0812E00
326.46	1.4280E00
326.83	1.1667E00
327.19	2.5002E00
327.56	9.6527E-01
327.92	1.3998E00
328.29	1.1151E00
328.65	1.4622E00
329.01	1.7321E00
329.38	1.1235E00
329.74	1.0062E00
330.11	1.4705E00
330.47	9.8170E-01
330.84	1.4171E00
331.20	1.4166E00
331.56	1.3180E00
331.93	1.4677E00
332.29	1.3604E00
332.66	9.5062E-01
333.02	1.1512E00
333.38	1.7213E00
333.75	8.0348E-01
334.11	1.2560E00
334.48	1.2536E00
334.84	1.1731E00
335.20	1.4391E00
335.57	2.6692E00
335.93	1.7754E00
336.29	1.3803E00
336.66	1.3293E00
337.02	9.2935E-01
337.38	1.1613E00
337.75	1.1260E00
338.11	9.5323E-01
338.47	1.3289E00
338.84	1.0958E00
339.20	9.1150E-01
339.56	2.6778E00
339.93	8.3604E-01
340.29	9.9518E-01
340.65	1.0848E00
341.02	1.8197E00
341.38	1.2407E00
341.74	1.3359E00
342.11	1.3012E00
342.47	1.3116E00
342.83	7.2185E-01
343.20	1.6679E00
343.56	1.0100E00
343.92	1.4066E00
344.28	9.3617E-01
344.65	1.4846E00
345.01	8.7492E-01
345.37	1.4134E00
345.73	1.2596E00
346.10	1.0805E00
346.46	1.2825E00
346.82	9.7855E-01
347.19	2.2222E00
347.55	9.1518E-01
347.91	9.2205E-01
348.27	1.0352E00
348.63	9.0153E-01
349.00	8.9033E-01
349.36	1.7926E00
349.72	1.1176E00
350.08	1.6296E00
350.45	9.3168E-01
350.81	8.6834E-01
351.17	1.1438E00
351.53	1.2382E00
351.89	1.0105E00
352.26	1.1602E00
352.62	9.5906E-01
352.98	1.1147E00
353.34	9.8513E-01
353.70	1.3009E00
354.07	9.5467E-01
354.43	9.0642E-01
354.79	1.0643E00
355.15	8.5072E-01
355.51	8.1176E-01
355.87	9.1920E-01
356.24	9.5779E-01
356.60	9.2685E-01
356.96	1.0044E00
357.32	9.0314E-01
357.68	8.4936E-01
358.04	7.6539E-01
358.40	8.4483E-01
358.77	7.8676E-01
359.13	9.3067E-01
359.49	9.8900E-01
359.85	9.6148E-01
360.21	7.2389E-01
360.57	8.8387E-01
360.93	8.7777E-01
361.29	9.3005E-01
361.66	7.7207E-01
362.02	7.1199E-01
362.38	9.2873E-01
362.74	8.0820E-01
363.10	8.5283E-01
363.46	9.9105E-01
363.82	8.4726E-01
364.18	1.0152E00
364.54	9.6232E-01
364.90	9.1657E-01
365.26	9.0079E-01
365.62	1.0301E00
365.98	8.9761E-01
366.35	7.1871E-01
366.71	8.7084E-01
367.07	1.1160E00
367.43	7.0635E-01
367.79	1.0086E00
368.15	9.2534E-01
368.51	1.0964E00
368.87	9.5893E-01
369.23	1.0251E00
369.59	8.0573E-01
369.95	8.7296E-01
370.31	8.3206E-01
370.67	9.8382E-01
371.03	8.3068E-01
371.39	8.1308E-01
371.75	8.2055E-01
372.11	8.4655E-01
372.47	7.7866E-01
372.83	7.8606E-01
373.19	6.5665E-01
373.55	8.6033E-01
373.91	8.7768E-01
374.27	9.4706E-01
374.63	9.2335E-01
374.99	8.3833E-01
375.35	8.0575E-01
375.71	8.2110E-01
376.07	8.2833E-01
376.42	8.2021E-01
376.78	7.4315E-01
377.14	8.4302E-01
377.50	9.2083E-01
377.86	7.8417E-01
378.22	7.3928E-01
378.58	7.3985E-01
378.94	7.1723E-01
379.30	7.5345E-01
379.66	7.4320E-01
380.02	7.2670E-01
380.38	7.0659E-01
380.74	7.4034E-01
381.09	7.7700E-01
381.45	7.1618E-01
381.81	6.9271E-01
382.17	7.2989E-01
382.53	7.5877E-01
382.89	6.7965E-01
383.25	7.1454E-01
383.61	7.0645E-01
383.97	6.8620E-01
384.32	6.8413E-01
384.68	6.5351E-01
385.04	7.2473E-01
385.40	7.4684E-01
385.76	7.4403E-01
386.12	6.9935E-01
386.48	7.1103E-01
386.83	6.6328E-01
387.19	6.6194E-01
387.55	7.4018E-01
387.91	7.1545E-01
388.27	6.6936E-01
388.62	7.5229E-01
388.98	6.8223E-01
389.34	7.5663E-01
389.70	6.8614E-01
390.06	7.0792E-01
390.42	7.1470E-01
390.77	6.9717E-01
391.13	7.1140E-01
391.49	6.9829E-01
391.85	7.3643E-01
392.20	6.5058E-01
392.56	6.5906E-01
392.92	6.6829E-01
393.28	6.7045E-01
393.64	7.0123E-01
393.99	7.1546E-01
394.35	7.0318E-01
394.71	6.9446E-01
395.07	6.8068E-01
395.42	6.8328E-01
395.78	6.9515E-01
396.14	6.2791E-01
396.50	6.2994E-01
396.85	6.9243E-01
397.21	6.6711E-01
397.57	6.8553E-01
397.92	6.4118E-01
398.28	6.2001E-01
398.64	7.3711E-01
399.00	5.9444E-01
399.35	6.1840E-01
399.71	6.6297E-01
400.07	6.4694E-01
400.42	6.3182E-01
400.78	6.4780E-01
401.14	6.5102E-01
401.49	6.0294E-01
401.85	5.9934E-01
402.21	6.0930E-01
402.57	6.0521E-01
402.92	6.3803E-01
403.28	6.0695E-01
403.63	6.0386E-01
403.99	6.1861E-01
404.35	5.9978E-01
404.70	5.8904E-01
405.06	5.9808E-01
405.42	6.1152E-01
405.77	5.6886E-01
406.13	5.6839E-01
406.49	5.6449E-01
406.84	5.7152E-01
407.20	5.5755E-01
407.55	6.0164E-01
407.91	6.1268E-01
408.27	5.7377E-01
408.62	5.7686E-01
408.98	5.8361E-01
409.34	5.9420E-01
409.69	5.6823E-01
410.05	5.9875E-01
410.40	5.7187E-01
410.76	5.2931E-01
411.11	5.3361E-01
411.47	5.7829E-01
411.83	5.4840E-01
412.18	5.5920E-01
412.54	5.4801E-01
412.89	5.4435E-01
413.25	5.6475E-01
413.60	5.9016E-01
413.96	5.5292E-01
414.31	5.5625E-01
414.67	5.8685E-01
415.03	5.7542E-01
415.38	5.8949E-01
415.74	5.8237E-01
416.09	5.7908E-01
416.45	5.8710E-01
416.80	5.7540E-01
417.16	5.7058E-01
417.51	5.6732E-01
417.87	5.4663E-01
418.22	5.4053E-01
418.58	5.5197E-01
418.93	5.2802E-01
419.29	5.6660E-01
419.64	5.4942E-01
420.00	5.1966E-01
420.35	5.1034E-01
420.71	5.3543E-01
421.06	5.3765E-01
421.42	5.5093E-01
421.77	5.4280E-01
422.12	5.4168E-01
422.48	5.1299E-01
422.83	5.4848E-01
423.19	5.1874E-01
423.54	5.1833E-01
423.90	5.2497E-01
424.25	4.9567E-01
424.61	5.4667E-01
424.96	5.1171E-01
425.31	5.0859E-01
425.67	4.8756E-01
426.02	5.0949E-01
426.38	5.0935E-01
426.73	4.8187E-01
427.09	5.0480E-01
427.44	4.8374E-01
427.79	4.8905E-01
428.15	5.0405E-01
428.50	5.0061E-01
428.85	5.1263E-01
429.21	4.7326E-01
429.56	4.6307E-01
429.92	4.7217E-01
430.27	4.8814E-01
430.62	4.8718E-01
430.98	4.9314E-01
431.33	4.8206E-01
431.68	4.6609E-01
432.04	4.6262E-01
432.39	4.6922E-01
432.74	4.8656E-01
433.10	4.5586E-01
433.45	4.8239E-01
433.80	4.7985E-01
434.16	4.9032E-01
434.51	4.6692E-01
434.86	4.8581E-01
435.22	4.6868E-01
435.57	5.0077E-01
435.92	4.9056E-01
436.28	4.8859E-01
436.63	4.5332E-01
436.98	4.8477E-01
437.34	4.8170E-01
437.69	4.5755E-01
438.04	4.4532E-01
438.39	4.7662E-01
438.75	4.8779E-01
439.10	4.4028E-01
439.45	4.7848E-01
439.81	4.7342E-01
440.16	4.4474E-01
440.51	4.6451E-01
440.86	4.6314E-01
441.22	4.5283E-01
441.57	4.5722E-01
441.92	4.4383E-01
442.27	4.6545E-01
442.63	4.5598E-01
442.98	4.8699E-01
443.33	4.7640E-01
443.68	4.4331E-01
444.03	4.1834E-01
444.39	4.2019E-01
444.74	4.5615E-01
445.09	4.6310E-01
445.44	4.6338E-01
445.79	4.0928E-01
446.15	4.4007E-01
446.50	4.5474E-01
446.85	4.2786E-01
447.20	4.1601E-01
447.55	4.4982E-01
447.91	4.3274E-01
448.26	4.4412E-01
448.61	4.4006E-01
448.96	4.3124E-01
449.31	4.3742E-01
449.66	4.4184E-01
450.02	4.3497E-01
450.37	4.3511E-01
450.72	4.2925E-01
451.07	4.6275E-01
451.42	4.5988E-01
451.77	4.3431E-01
452.12	4.3402E-01
452.47	4.5400E-01
452.83	4.1737E-01
453.18	4.4164E-01
453.53	4.3665E-01
453.88	4.1113E-01
454.23	4.0614E-01
454.58	4.0608E-01
454.93	4.3606E-01
455.28	4.3346E-01
455.63	4.2063E-01
455.98	4.1152E-01
456.34	4.3301E-01
456.69	4.1968E-01
457.04	4.2327E-01
457.39	3.9697E-01
457.74	4.0520E-01
458.09	3.9465E-01
458.44	3.9383E-01
458.79	3.8537E-01
459.14	3.9853E-01
459.49	4.1456E-01
459.84	3.9198E-01
460.19	4.1695E-01
460.54	4.1437E-01
460.89	3.8196E-01
461.24	4.1783E-01
461.59	3.9963E-01
461.94	4.0535E-01
462.29	3.7871E-01
462.64	4.0071E-01
462.99	4.0472E-01
463.34	4.2788E-01
463.69	4.0091E-01
464.04	3.7399E-01
464.39	3.8852E-01
464.74	3.9417E-01
465.09	4.0497E-01
465.44	3.8128E-01
465.79	3.9305E-01
466.14	3.9503E-01
466.49	3.8824E-01
466.84	3.8470E-01
467.19	3.9802E-01
467.54	3.9948E-01
467.89	3.7997E-01
468.24	3.6018E-01
468.59	3.7224E-01
468.94	3.6479E-01
469.29	3.6670E-01
469.64	3.7876E-01
469.99	3.6499E-01
470.34	3.5338E-01
470.68	3.7621E-01
471.03	3.6310E-01
471.38	3.6417E-01
471.73	3.4679E-01
472.08	3.4257E-01
472.43	3.3055E-01
472.78	3.4904E-01
473.13	3.4529E-01
473.48	3.3954E-01
473.83	3.3306E-01
474.17	3.3804E-01
474.52	3.3436E-01
474.87	3.2038E-01
475.22	3.2738E-01
475.57	3.1134E-01
475.92	3.0349E-01
476.27	3.1257E-01
476.61	3.0430E-01
476.96	2.9624E-01
477.31	2.8725E-01
477.66	2.9302E-01
478.01	2.9095E-01
478.36	2.8940E-01
478.70	2.8534E-01
479.05	2.8985E-01
479.40	2.7642E-01
479.75	2.7342E-01
480.10	2.7538E-01
480.45	2.6882E-01
480.79	2.6730E-01
481.14	2.7116E-01
481.49	2.6481E-01
481.84	2.6003E-01
482.19	2.5797E-01
482.53	2.5766E-01
482.88	2.5555E-01
483.23	2.5096E-01
483.58	2.4589E-01
483.92	2.5200E-01
484.27	2.4399E-01
484.62	2.4267E-01
484.97	2.3753E-01
485.31	2.3624E-01
485.66	2.4122E-01
486.01	2.4133E-01
486.36	2.2994E-01
486.70	2.3603E-01
487.05	2.3467E-01
487.40	2.3480E-01
487.75	2.2795E-01
488.09	2.2832E-01
488.44	2.3018E-01
488.79	2.2680E-01
489.13	2.2412E-01
489.48	2.2691E-01
489.83	2.2750E-01
490.17	2.2137E-01
490.52	2.2124E-01
490.87	2.2222E-01
491.22	2.2520E-01
491.56	2.2213E-01
491.91	2.2496E-01
492.26	2.2244E-01
492.60	2.2231E-01
492.95	2.2452E-01
493.30	2.2393E-01
493.64	2.2124E-01
493.99	2.2246E-01
494.34	2.1973E-01
494.68	2.1752E-01
495.03	2.2284E-01
495.37	2.2078E-01
495.72	2.2296E-01
496.07	2.1813E-01
496.41	2.1962E-01
496.76	2.1809E-01
497.11	2.2031E-01
497.45	2.1926E-01
497.80	2.1967E-01
498.14	2.1960E-01
498.49	2.1978E-01
498.84	2.2054E-01
499.18	2.2014E-01
499.53	2.1992E-01
499.87	2.1801E-01
500.22	2.2044E-01
500.56	2.2000E-01
500.91	2.1967E-01
501.26	2.1945E-01
501.60	2.1907E-01
501.95	2.1732E-01
502.29	2.2007E-01
502.64	2.1628E-01
502.98	2.1973E-01
503.33	2.1785E-01
503.67	2.1819E-01
504.02	2.1752E-01
504.36	2.1726E-01
504.71	2.1820E-01
505.06	2.1598E-01
505.40	2.1616E-01
505.75	2.1739E-01
506.09	2.1750E-01
506.44	2.1737E-01
506.78	2.1526E-01
507.13	2.1641E-01
507.47	2.1475E-01
507.82	2.1463E-01
508.16	2.1669E-01
508.51	2.1466E-01
508.85	2.1215E-01
509.19	2.1455E-01
509.54	2.1435E-01
509.88	2.1465E-01
510.23	2.1155E-01
510.57	2.1240E-01
510.92	2.1195E-01
511.26	2.1213E-01
511.61	2.1197E-01
511.95	2.1208E-01
512.30	2.1089E-01
512.64	2.1234E-01
512.98	2.0860E-01
513.33	2.1016E-01
513.67	2.1064E-01
514.02	2.0988E-01
514.36	2.0821E-01
514.70	2.0950E-01
515.05	2.0720E-01
515.39	2.0891E-01
515.74	2.0671E-01
516.08	2.0578E-01
516.42	2.0768E-01
516.77	2.0806E-01
517.11	2.0801E-01
517.46	2.0915E-01
517.80	2.0607E-01
518.14	2.0740E-01
518.49	2.0558E-01
518.83	2.0634E-01
519.17	2.0631E-01
519.52	2.0680E-01
519.86	2.0562E-01
520.20	2.0480E-01
520.55	2.0541E-01
520.89	2.0428E-01
521.23	2.0623E-01
521.58	2.0593E-01
521.92	2.0746E-01
522.26	2.0846E-01
522.61	2.0515E-01
522.95	2.0671E-01
523.29	2.0390E-01
523.64	2.0413E-01
523.98	2.0521E-01
524.32	2.0563E-01
524.66	2.0730E-01
525.01	2.0718E-01
525.35	2.0793E-01
525.69	2.0864E-01
526.04	2.0808E-01
526.38	2.0491E-01
526.72	2.0908E-01
527.06	2.0786E-01
527.41	2.0955E-01
527.75	2.1149E-01
528.09	2.0973E-01
528.43	2.1320E-01
528.78	2.1061E-01
529.12	2.1266E-01
529.46	2.1417E-01
529.80	2.1347E-01
530.15	2.1399E-01
530.49	2.1406E-01
530.83	2.1513E-01
531.17	2.1521E-01
531.51	2.1450E-01
531.86	2.1635E-01
532.20	2.1737E-01
532.54	2.1677E-01
532.88	2.1834E-01
533.22	2.2010E-01
533.57	2.2119E-01
533.91	2.2066E-01
534.25	2.2258E-01
534.59	2.2113E-01
534.93	2.2338E-01
535.27	2.2220E-01
535.62	2.2638E-01
535.96	2.2560E-01
536.30	2.2605E-01
536.64	2.2653E-01
536.98	2.2833E-01
537.32	2.2762E-01
537.66	2.2779E-01
538.01	2.3003E-01
538.35	2.3174E-01
538.69	2.2909E-01
539.03	2.3455E-01
539.37	2.3223E-01
539.71	2.3416E-01
540.05	2.3457E-01
540.39	2.3541E-01
540.73	2.3422E-01
541.07	2.3493E-01
541.42	2.3550E-01
541.76	2.3561E-01
542.10	2.3681E-01
542.44	2.3778E-01
542.78	2.3802E-01
543.12	2.3746E-01
543.46	2.4245E-01
543.80	2.3955E-01
544.14	2.3942E-01
544.48	2.3850E-01
544.82	2.4139E-01
545.16	2.4197E-01
545.50	2.4029E-01
545.84	2.4241E-01
546.18	2.4096E-01
546.52	2.4355E-01
546.86	2.4168E-01
547.20	2.4506E-01
547.54	2.4775E-01
547.88	2.4331E-01
548.22	2.4403E-01
548.56	2.4535E-01
548.90	2.4337E-01
549.24	2.4563E-01
549.58	2.4647E-01
549.92	2.4469E-01
550.26	2.4879E-01
550.60	2.4530E-01
550.94	2.4411E-01
551.28	2.4742E-01
551.62	2.4591E-01
551.96	2.4828E-01
552.30	2.4944E-01
552.64	2.4817E-01
552.98	2.4836E-01
553.32	2.4874E-01
553.66	2.4733E-01
554.00	2.4798E-01
554.34	2.4873E-01
554.68	2.4957E-01
555.02	2.5004E-01
555.36	2.5098E-01
555.69	2.4992E-01
556.03	2.4971E-01
556.37	2.5106E-01
556.71	2.4883E-01
557.05	2.4840E-01
557.39	2.4892E-01
557.73	2.4929E-01
558.07	2.5119E-01
558.41	2.5015E-01
558.75	2.5053E-01
559.08	2.5051E-01
559.42	2.4832E-01
559.76	2.5202E-01
560.10	2.5148E-01
560.44	2.5166E-01
560.78	2.4918E-01
561.12	2.5097E-01
561.45	2.5040E-01
561.79	2.5133E-01
562.13	2.5131E-01
562.47	2.5173E-01
562.81	2.5192E-01
563.15	2.5187E-01
563.48	2.5242E-01
563.82	2.4917E-01
564.16	2.5149E-01
564.50	2.5177E-01
564.84	2.5214E-01
565.17	2.5254E-01
565.51	2.5198E-01
565.85	2.5390E-01
566.19	2.5095E-01
566.52	2.5440E-01
566.86	2.5153E-01
567.20	2.5386E-01
567.54	2.5299E-01
567.88	2.5319E-01
568.21	2.5303E-01
568.55	2.5443E-01
568.89	2.5468E-01
569.23	2.5453E-01
569.56	2.5392E-01
569.90	2.5498E-01
570.24	2.5674E-01
570.57	2.5643E-01
570.91	2.5680E-01
571.25	2.5342E-01
571.59	2.5652E-01
571.92	2.5632E-01
572.26	2.5717E-01
572.60	2.5942E-01
572.93	2.5797E-01
573.27	2.6043E-01
573.61	2.6078E-01
573.95	2.5696E-01
574.28	2.6121E-01
574.62	2.6148E-01
574.96	2.6179E-01
575.29	2.6116E-01
575.63	2.6536E-01
575.97	2.6458E-01
576.30	2.7045E-01
576.64	2.6719E-01
576.98	2.6688E-01
577.31	2.6804E-01
577.65	2.7070E-01
577.98	2.6904E-01
578.32	2.7116E-01
578.66	2.7247E-01
578.99	2.7302E-01
579.33	2.7420E-01
579.67	2.7212E-01
580.00	2.7593E-01
580.34	2.7531E-01
580.67	2.7655E-01
581.01	2.7892E-01
581.35	2.8014E-01
581.68	2.8116E-01
582.02	2.8001E-01
582.35	2.8208E-01
582.69	2.8219E-01
583.02	2.8648E-01
583.36	2.8375E-01
583.70	2.8323E-01
584.03	2.8533E-01
584.37	2.8360E-01
584.70	2.8931E-01
585.04	2.8929E-01
585.37	2.8798E-01
585.71	2.9274E-01
586.04	2.9157E-01
586.38	2.8951E-01
586.72	2.9349E-01
587.05	2.9470E-01
587.39	2.9599E-01
587.72	2.9394E-01
588.06	2.9627E-01
588.39	2.9598E-01
588.73	2.9920E-01
589.06	2.9705E-01
589.40	3.0157E-01
589.73	3.0316E-01
590.07	3.0381E-01
590.40	3.0389E-01
590.73	3.0764E-01
591.07	3.0447E-01
591.40	3.1126E-01
591.74	3.0421E-01
592.07	3.0830E-01
592.41	3.0971E-01
592.74	3.1071E-01
593.08	3.0884E-01
593.41	3.1080E-01
593.75	3.0856E-01
594.08	3.1339E-01
594.41	3.1192E-01
594.75	3.1300E-01
595.08	3.1301E-01
595.42	3.0907E-01
595.75	3.1437E-01
596.09	3.1421E-01
596.42	3.1294E-01
596.75	3.1660E-01
597.09	3.1828E-01
597.42	3.1477E-01
597.75	3.1867E-01
598.09	3.1961E-01
598.42	3.1688E-01
598.76	3.1888E-01
599.09	3.2318E-01
599.42	3.2297E-01
599.76	3.2155E-01
600.09	3.2056E-01
600.42	3.2536E-01
600.76	3.1887E-01
601.09	3.2294E-01
601.42	3.2611E-01
601.76	3.2245E-01
602.09	3.2153E-01
602.42	3.2356E-01
602.76	3.2279E-01
603.09	3.2167E-01
603.42	3.2752E-01
603.76	3.2376E-01
604.09	3.2397E-01
604.42	3.2627E-01
604.76	3.2402E-01
605.09	3.2885E-01
605.42	3.2568E-01
605.75	3.2720E-01
606.09	3.2558E-01
606.42	3.2677E-01
606.75	3.2843E-01
607.09	3.2884E-01
607.42	3.2898E-01
607.75	3.2940E-01
608.08	3.2884E-01
608.42	3.3144E-01
608.75	3.2766E-01
609.08	3.3187E-01
609.41	3.3105E-01
609.75	3.2932E-01
610.08	3.3115E-01
610.41	3.3315E-01
610.74	3.3243E-01
611.07	3.3236E-01
611.41	3.3158E-01
611.74	3.3301E-01
612.07	3.3489E-01
612.40	3.3001E-01
612.73	3.3338E-01
613.07	3.3546E-01
613.40	3.3156E-01
613.73	3.3072E-01
614.06	3.3374E-01
614.39	3.3478E-01
614.72	3.3600E-01
615.06	3.3540E-01
615.39	3.3927E-01
615.72	3.3379E-01
616.05	3.3727E-01
616.38	3.3831E-01
616.71	3.3886E-01
617.05	3.3718E-01
617.38	3.3890E-01
617.71	3.3701E-01
618.04	3.3884E-01
618.37	3.3693E-01
618.70	3.3798E-01
619.03	3.3905E-01
619.36	3.3373E-01
619.69	3.4074E-01
620.03	3.3691E-01
620.36	3.3783E-01
620.69	3.3616E-01
621.02	3.3930E-01
621.35	3.3799E-01
621.68	3.3487E-01
622.01	3.3412E-01
622.34	3.3608E-01
622.67	3.3521E-01
623.00	3.3661E-01
623.33	3.3715E-01
623.66	3.3479E-01
623.99	3.3569E-01
624.32	3.3437E-01
624.65	3.3543E-01
624.99	3.3539E-01
625.32	3.3677E-01
625.65	3.3586E-01
625.98	3.3090E-01
626.31	3.3559E-01
626.64	3.3595E-01
626.97	3.3660E-01
627.30	3.3395E-01
627.63	3.3571E-01
627.96	3.3289E-01
628.29	3.3281E-01
628.62	3.3578E-01
628.95	3.3585E-01
629.28	3.3040E-01
629.61	3.4097E-01
629.94	3.3625E-01
630.26	3.3659E-01
630.59	3.3854E-01
630.92	3.3665E-01
631.25	3.3847E-01
631.58	3.4206E-01
631.91	3.3729E-01
632.24	3.4441E-01
632.57	3.4093E-01
632.90	3.4150E-01
633.23	3.4196E-01
633.56	3.4364E-01
633.89	3.4398E-01
634.22	3.4544E-01
634.55	3.4643E-01
634.88	3.5019E-01
635.20	3.4964E-01
635.53	3.5201E-01
635.86	3.5224E-01
636.19	3.5626E-01
636.52	3.5725E-01
636.85	3.5460E-01
637.18	3.5888E-01
637.51	3.5612E-01
637.83	3.5987E-01
638.16	3.5618E-01
638.49	3.6703E-01
638.82	3.6542E-01
639.15	3.6784E-01
639.48	3.7070E-01
639.81	3.7267E-01
640.13	3.6901E-01
640.46	3.7472E-01
640.79	3.7462E-01
641.12	3.7802E-01
641.45	3.7743E-01
641.77	3.7526E-01
642.10	3.8383E-01
642.43	3.8483E-01
642.76	3.8644E-01
643.09	3.8424E-01
643.41	3.8739E-01
643.74	3.8786E-01
644.07	3.8792E-01
644.40	3.9090E-01
644.73	3.9502E-01
645.05	3.9660E-01
645.38	3.9938E-01
645.71	4.0052E-01
646.04	4.0033E-01
646.36	3.9978E-01
646.69	4.0592E-01
647.02	4.0625E-01
647.35	4.0397E-01
647.67	4.0881E-01
648.00	4.0789E-01
648.33	4.1266E-01
648.66	4.1030E-01
648.98	4.1598E-01
649.31	4.1438E-01
649.64	4.1645E-01
649.96	4.2074E-01
650.29	4.2297E-01
650.62	4.2316E-01
650.94	4.2287E-01
651.27	4.2235E-01
651.60	4.2320E-01
651.92	4.3068E-01
652.25	4.3129E-01
652.58	4.3049E-01
652.90	4.3275E-01
653.23	4.3291E-01
653.56	4.3441E-01
653.88	4.3630E-01
654.21	4.3648E-01
654.54	4.3861E-01
654.86	4.4379E-01
655.19	4.3862E-01
655.52	4.4566E-01
655.84	4.4433E-01
656.17	4.4732E-01
656.49	4.5200E-01
656.82	4.4677E-01
657.15	4.5173E-01
657.47	4.5165E-01
657.80	4.5212E-01
658.13	4.5338E-01
658.45	4.5607E-01
658.78	4.5515E-01
659.10	4.6095E-01
659.43	4.6030E-01
659.75	4.5905E-01
660.08	4.5753E-01
660.41	4.6343E-01
660.73	4.6410E-01
661.06	4.6759E-01
661.38	4.6574E-01
661.71	4.6713E-01
662.03	4.6801E-01
662.36	4.7368E-01
662.68	4.7247E-01
663.01	4.6681E-01
663.33	4.7098E-01
663.66	4.7459E-01
663.98	4.7168E-01
664.31	4.7220E-01
664.63	4.8145E-01
664.96	4.7836E-01
665.28	4.8193E-01
665.61	4.8099E-01
665.93	4.8167E-01
666.26	4.8408E-01
666.58	4.8463E-01
666.91	4.8148E-01
667.23	4.8704E-01
667.56	4.8099E-01
667.88	4.8877E-01
668.21	4.8819E-01
668.53	4.8585E-01
668.86	4.9594E-01
669.18	4.8872E-01
669.50	4.9965E-01
669.83	4.9791E-01
670.15	4.9900E-01
670.48	4.9793E-01
670.80	4.9658E-01
671.13	4.9413E-01
671.45	5.0005E-01
671.77	5.0297E-01
672.10	4.9935E-01
672.42	5.0694E-01
672.75	5.0413E-01
673.07	5.0817E-01
673.39	5.0298E-01
673.72	5.0636E-01
674.04	5.0996E-01
674.37	5.1354E-01
674.69	5.1037E-01
675.01	5.1469E-01
675.34	5.1625E-01
675.66	5.1755E-01
675.98	5.1201E-01
676.31	5.2022E-01
676.63	5.2155E-01
676.95	5.1870E-01
677.28	5.2298E-01
677.60	5.2339E-01
677.92	5.2119E-01
678.25	5.2731E-01
678.57	5.2793E-01
678.89	5.2619E-01
679.22	5.3459E-01
679.54	5.3146E-01
679.86	5.3205E-01
680.18	5.3398E-01
680.51	5.3556E-01
680.83	5.4079E-01
681.15	5.3522E-01
681.48	5.3898E-01
681.80	5.4283E-01
682.12	5.3901E-01
682.44	5.4813E-01
682.77	5.4809E-01
683.09	5.5168E-01
683.41	5.4915E-01
683.73	5.5469E-01
684.06	5.5375E-01
684.38	5.5523E-01
684.70	5.5377E-01
685.02	5.5950E-01
685.34	5.6479E-01
685.67	5.6016E-01
685.99	5.6765E-01
686.31	5.6354E-01
686.63	5.7257E-01
686.96	5.6949E-01
687.28	5.7631E-01
687.60	5.6851E-01
687.92	5.7509E-01
688.24	5.8056E-01
688.56	5.8193E-01
688.89	5.8333E-01
689.21	5.8125E-01
689.53	5.8353E-01
689.85	5.9250E-01
690.17	5.8850E-01
690.49	5.9710E-01
690.82	5.9735E-01
691.14	5.9747E-01
691.46	6.0050E-01
691.78	6.0408E-01
692.10	5.9719E-01
692.42	6.0437E-01
692.74	6.0943E-01
693.06	6.1027E-01
693.39	6.2084E-01
693.71	6.2190E-01
694.03	6.2226E-01
694.35	6.2401E-01
694.67	6.2559E-01
694.99	6.3195E-01
695.31	6.3413E-01
695.63	6.3311E-01
695.95	6.3840E-01
696.27	6.3627E-01
696.59	6.4224E-01
696.91	6.5101E-01
697.23	6.5000E-01
697.56	6.4824E-01
697.88	6.5527E-01
698.20	6.5503E-01
698.52	6.6158E-01
698.84	6.6646E-01
699.16	6.7089E-01
699.48	6.6456E-01
699.80	6.7319E-01
700.12	6.7920E-01
700.44	6.8047E-01
700.76	6.8190E-01
701.08	6.8670E-01
701.40	6.8897E-01
701.72	6.9592E-01
702.04	6.9550E-01
702.36	7.0182E-01
702.68	7.0520E-01
703.00	7.0988E-01
703.32	7.1301E-01
703.64	7.1431E-01
703.96	7.0728E-01
704.28	7.1808E-01
704.60	7.2636E-01
704.91	7.2857E-01
705.23	7.2975E-01
705.55	7.3757E-01
705.87	7.3282E-01
706.19	7.3529E-01
706.51	7.4078E-01
706.83	7.4345E-01
707.15	7.6342E-01
707.47	7.4736E-01
707.79	7.6152E-01
708.11	7.6338E-01
708.43	7.6678E-01
708.74	7.7338E-01
709.06	7.8373E-01
709.38	7.7925E-01
709.70	7.7489E-01
710.02	7.8514E-01
710.34	7.8233E-01
710.66	8.0241E-01
710.98	7.9792E-01
711.29	7.9691E-01
711.61	8.1117E-01
711.93	8.1580E-01
712.25	8.0946E-01
712.57	8.2045E-01
712.89	8.2354E-01
713.20	8.2449E-01
713.52	8.3218E-01
713.84	8.4019E-01
714.16	8.3379E-01
714.48	8.3567E-01
714.80	8.5026E-01
715.11	8.4688E-01
715.43	8.5959E-01
715.75	8.6460E-01
716.07	8.7350E-01
716.39	8.5754E-01
716.70	8.6814E-01
717.02	8.6332E-01
717.34	8.8906E-01
717.66	8.8072E-01
717.97	8.9148E-01
718.29	8.9602E-01
718.61	9.0860E-01
718.93	9.0781E-01
719.24	9.1056E-01
719.56	9.3071E-01
719.88	9.2162E-01
720.20	9.3452E-01
720.51	9.4632E-01
720.83	9.4174E-01
721.15	9.6128E-01
721.46	9.5751E-01
721.78	9.6275E-01
722.10	9.7757E-01
722.42	9.8683E-01
722.73	9.9226E-01
723.05	9.8069E-01
723.37	9.9450E-01
723.68	1.0052E00
724.00	1.0045E00
724.32	1.0235E00
724.63	1.0202E00
724.95	1.0151E00
725.27	1.0244E00
725.58	1.0313E00
725.90	1.0302E00
726.22	1.0481E00
726.53	1.0255E00
726.85	1.0403E00
727.16	1.0625E00
727.48	1.0438E00
727.80	1.0553E00
728.11	1.0596E00
728.43	1.0576E00
728.74	1.0523E00
729.06	1.0722E00
729.38	1.0672E00
729.69	1.0739E00
730.01	1.0809E00
730.32	1.0881E00
730.64	1.0875E00
730.96	1.0763E00
731.27	1.1049E00
731.59	1.0810E00
731.90	1.0937E00
732.22	1.1033E00
732.53	1.1006E00
732.85	1.1137E00
733.16	1.1097E00
733.48	1.1172E00
733.80	1.1102E00
734.11	1.1320E00
734.43	1.1293E00
734.74	1.1288E00
735.06	1.1438E00
735.37	1.1525E00
735.69	1.1375E00
736.00	1.1512E00
736.32	1.1530E00
736.63	1.1601E00
736.95	1.1590E00
737.26	1.1799E00
737.58	1.1787E00
737.89	1.1871E00
738.21	1.1756E00
738.52	1.1824E00
738.83	1.1863E00
739.15	1.1857E00
739.46	1.2031E00
739.78	1.1996E00
740.09	1.2136E00
740.41	1.2067E00
740.72	1.2027E00
741.04	1.2038E00
741.35	1.2063E00
741.66	1.2275E00
741.98	1.2200E00
742.29	1.2259E00
742.61	1.2192E00
742.92	1.2234E00
743.23	1.2234E00
743.55	1.2330E00
743.86	1.2225E00
744.18	1.2298E00
744.49	1.2315E00
744.80	1.2290E00
745.12	1.2302E00
745.43	1.2361E00
745.74	1.2338E00
746.06	1.2257E00
746.37	1.2239E00
746.68	1.2333E00
747.00	1.2308E00
747.31	1.2227E00
747.62	1.2140E00
747.94	1.2345E00
748.25	1.2340E00
748.56	1.2354E00
748.88	1.2186E00
749.19	1.2280E00
749.50	1.2312E00
749.82	1.2231E00
750.13	1.2301E00
750.44	1.2316E00
750.75	1.2169E00
751.07	1.2336E00
751.38	1.2416E00
751.69	1.2187E00
752.01	1.2359E00
752.32	1.2334E00
752.63	1.2358E00
752.94	1.2424E00
753.26	1.2481E00
753.57	1.2351E00
753.88	1.2428E00
754.19	1.2453E00
754.51	1.2475E00
754.82	1.2434E00
755.13	1.2580E00
755.44	1.2572E00
755.75	1.2603E00
756.07	1.2604E00
756.38	1.2746E00
756.69	1.2710E00
757.00	1.2784E00
757.31	1.2945E00
757.63	1.3019E00
757.94	1.3036E00
758.25	1.3174E00
758.56	1.2856E00
758.87	1.3301E00
759.18	1.3338E00
759.50	1.3307E00
759.81	1.3258E00
760.12	1.3346E00
760.43	1.3448E00
760.74	1.3410E00
761.05	1.3672E00
761.36	1.3722E00
761.67	1.3820E00
761.99	1.3909E00
762.30	1.3696E00
762.61	1.4033E00
762.92	1.4016E00
763.23	1.4015E00
763.54	1.4163E00
763.85	1.4395E00
764.16	1.4430E00
764.47	1.4607E00
764.78	1.4713E00
765.10	1.4719E00
765.41	1.4741E00
765.72	1.4826E00
766.03	1.5159E00
766.34	1.5277E00
766.65	1.5366E00
766.96	1.5678E00
767.27	1.5561E00
767.58	1.5583E00
767.89	1.5747E00
768.20	1.5997E00
768.51	1.6006E00
768.82	1.6027E00
769.13	1.6328E00
769.44	1.6552E00
769.75	1.6526E00
770.06	1.6575E00
770.37	1.6545E00
770.68	1.6957E00
770.99	1.7087E00
771.30	1.7171E00
771.61	1.7691E00
771.92	1.7308E00
772.23	1.7533E00
772.54	1.7918E00
772.85	1.7745E00
773.16	1.7924E00
773.47	1.8461E00
773.78	1.8309E00
774.09	1.8609E00
774.39	1.8640E00
774.70	1.8693E00
775.01	1.9066E00
775.32	1.9172E00
775.63	1.9382E00
775.94	1.9594E00
776.25	1.9474E00
776.56	1.9654E00
776.87	2.0175E00
777.18	2.0109E00
777.48	2.0316E00
777.79	2.0505E00
778.10	2.0687E00
778.41	2.0849E00
778.72	2.1066E00
779.03	2.1184E00
779.34	2.1630E00
779.65	2.1645E00
779.95	2.2072E00
780.26	2.1868E00
780.57	2.2246E00
780.88	2.2179E00
781.19	2.2596E00
781.50	2.2588E00
781.80	2.2809E00
782.11	2.2869E00
782.42	2.3425E00
782.73	2.2972E00
783.04	2.3889E00
783.34	2.3863E00
783.65	2.4056E00
783.96	2.4136E00
784.27	2.4259E00
784.57	2.4472E00
784.88	2.4760E00
785.19	2.4870E00
785.50	2.5135E00
785.81	2.5481E00
786.11	2.5116E00
786.42	2.5404E00
786.73	2.5658E00
787.04	2.5975E00
787.34	2.6472E00
787.65	2.6581E00
787.96	2.7192E00
788.26	2.6994E00
788.57	2.7542E00
788.88	2.7231E00
789.19	2.8072E00
789.49	2.7785E00
789.80	2.8293E00
790.11	2.8383E00
790.41	2.8664E00
790.72	2.8945E00
791.03	2.9079E00
791.33	2.9369E00
791.64	3.0046E00
791.95	2.9515E00
792.25	3.0467E00
792.56	3.0138E00
792.87	3.0613E00
793.17	3.0781E00
793.48	3.0967E00
793.79	3.1255E00
794.09	3.1856E00
794.40	3.1418E00
794.70	3.1521E00
795.01	3.1643E00
795.32	3.2073E00
795.62	3.2693E00
795.93	3.2759E00
796.23	3.2841E00
796.54	3.3294E00
796.85	3.3147E00
797.15	3.3600E00
797.46	3.3873E00
797.76	3.4714E00
798.07	3.4602E00
798.37	3.4650E00
798.68	3.5216E00
798.99	3.5197E00
799.29	3.5531E00
799.60	3.6124E00
799.90	3.6160E00
800.21	3.6679E00
800.51	3.6957E00
800.82	3.6888E00
801.12	3.7553E00
801.43	3.7478E00
801.73	3.8262E00
802.04	3.8180E00
802.34	3.8150E00
802.65	3.8590E00
802.95	3.9895E00
803.26	3.9553E00
803.56	3.8908E00
803.87	3.9508E00
804.17	3.9804E00
804.48	3.9786E00
804.78	4.0503E00
805.09	4.1177E00
805.39	4.0928E00
805.70	4.1165E00
806.00	4.1777E00
806.30	4.1688E00
806.61	4.2372E00
806.91	4.2559E00
807.22	4.3037E00
807.52	4.3259E00
807.83	4.3443E00
808.13	4.3988E00
808.43	4.3123E00
808.74	4.4299E00
809.04	4.4702E00
809.35	4.4480E00
809.65	4.5512E00
809.95	4.5755E00
810.26	4.6283E00
810.56	4.6480E00
810.86	4.7080E00
811.17	4.7455E00
811.47	4.7401E00
811.77	4.7373E00
812.08	4.7300E00
812.38	4.8761E00
812.69	4.7815E00
812.99	4.9387E00
813.29	4.9627E00
813.59	5.0032E00
813.90	5.0189E00
814.20	5.0221E00
814.50	5.0930E00
814.81	5.0398E00
815.11	5.1544E00
815.41	5.2838E00
815.72	5.2156E00
816.02	5.2526E00
816.32	5.2684E00
816.62	5.2291E00
816.93	5.3292E00
817.23	5.4880E00
817.53	5.3914E00
817.84	5.4994E00
818.14	5.4956E00
818.44	5.4775E00
818.74	5.6351E00
819.04	5.7402E00
819.35	5.6765E00
819.65	5.7172E00
819.95	5.8722E00
820.25	5.8756E00
820.56	5.8643E00
820.86	5.9352E00
821.16	5.9830E00
821.46	5.9839E00
821.76	6.0165E00
822.07	5.9722E00
822.37	6.0754E00
822.67	6.1815E00
822.97	6.2186E00
823.27	6.2043E00
823.57	6.3017E00
823.88	6.2735E00
824.18	6.3786E00
824.48	6.3618E00
824.78	6.4486E00
825.08	6.4199E00
825.38	6.5274E00
825.69	6.5287E00
825.99	6.6278E00
826.29	6.6620E00
826.59	6.6355E00
826.89	6.7567E00
827.19	6.5872E00
827.49	7.0170E00
827.79	6.9173E00
828.09	6.8560E00
828.39	7.0221E00
828.70	6.9939E00
829.00	6.9833E00
829.30	7.1146E00
829.60	7.2249E00
829.90	7.1180E00
830.20	7.0701E00
830.50	7.3888E00
830.80	7.4278E00
831.10	7.2849E00
831.40	7.5483E00
831.70	7.4579E00
832.00	7.5026E00
832.30	7.7191E00
832.60	7.6069E00
832.90	7.7504E00
833.20	7.8976E00
833.50	7.7243E00
833.80	7.8612E00
834.10	7.9426E00
834.40	7.8055E00
834.70	7.9790E00
835.00	8.0270E00
835.30	7.9973E00
835.60	8.1228E00
835.90	8.1867E00
836.20	8.3913E00
836.50	8.3813E00
836.80	8.3838E00
837.10	8.3392E00
837.40	8.4961E00
837.70	8.5452E00
838.00	8.5454E00
838.30	8.5097E00
838.60	8.8543E00
838.90	8.8411E00
839.19	8.7549E00
839.49	9.0852E00
839.79	8.9729E00
840.09	9.0633E00
840.39	8.9250E00
840.69	9.0926E00
840.99	9.6011E00
841.29	9.4477E00
841.59	9.4605E00
841.88	9.5169E00
842.18	9.5847E00
842.48	9.8209E00
842.78	9.7603E00
843.08	9.8794E00
843.38	9.7350E00
843.68	1.0041E01
843.97	1.0073E01
844.27	1.0121E01
844.57	1.0300E01
844.87	1.0353E01
845.17	1.0247E01
845.47	1.0127E01
845.76	1.0418E01
846.06	1.0602E01
846.36	1.0494E01
846.66	1.0726E01
846.96	1.0663E01
847.25	1.0695E01
847.55	1.0773E01
847.85	1.1046E01
848.15	1.0869E01
848.44	1.1206E01
848.74	1.0941E01
849.04	1.1233E01
849.34	1.1302E01
849.63	1.1543E01
849.93	1.1495E01
850.23	1.1965E01
850.53	1.1461E01
850.82	1.1762E01
851.12	1.1749E01
851.42	1.1613E01
851.71	1.1924E01
852.01	1.2180E01
852.31	1.2400E01
852.61	1.2467E01
852.90	1.2472E01
853.20	1.2602E01
853.50	1.2797E01
853.79	1.3123E01
854.09	1.2650E01
854.39	1.2844E01
854.68	1.3548E01
854.98	1.3362E01
855.28	1.3321E01
855.57	1.3466E01
855.87	1.3519E01
856.17	1.3587E01
856.46	1.3568E01
856.76	1.3693E01
857.05	1.3946E01
857.35	1.4060E01
857.65	1.3869E01
857.94	1.4237E01
858.24	1.4196E01
858.53	1.4544E01
858.83	1.4484E01
859.13	1.4750E01
859.42	1.4593E01
859.72	1.5084E01
860.01	1.5630E01
860.31	1.5260E01
860.60	1.5608E01
860.90	1.5575E01
861.20	1.5808E01
861.49	1.5537E01
861.79	1.6239E01
862.08	1.6285E01
862.38	1.6581E01
862.67	1.6520E01
862.97	1.6651E01
863.26	1.6497E01
863.56	1.7413E01
863.85	1.7275E01
864.15	1.7050E01
864.44	1.7661E01
864.74	1.7483E01
865.03	1.7621E01
865.33	1.7755E01
865.62	1.8192E01
865.92	1.7979E01
866.21	1.9177E01
866.51	1.9014E01
866.80	1.8943E01
867.10	1.9355E01
867.39	1.9033E01
867.69	1.9811E01
867.98	1.8999E01
868.27	1.9635E01
868.57	1.9672E01
868.86	2.0883E01
869.16	2.0598E01
869.45	1.9155E01
869.75	1.7938E01
870.04	1.8698E01
870.33	1.8928E01
870.63	1.8623E01
870.92	1.9700E01
871.22	2.0169E01
871.51	1.8202E01
871.80	1.7164E01
872.10	1.7164E01
>>>>>End Processed Spectral Data<<<<<
