SpectraSuite Data File
++++++++++++++++++++++++++++++++++++
Date: Tue May 12 13:15:01 PDT 2015
User: schluterlab
Dark Spectrum Present: Yes
Reference Spectrum Present: No
Number of Sampled Component Spectra: 1
Spectrometers: USB2E3373
Integration Time (usec): 2300000 (USB2E3373)
Spectra Averaged: 3 (USB2E3373)
Boxcar Smoothing: 0 (USB2E3373)
Correct for Electrical Dark: No (USB2E3373)
Strobe/Lamp Enabled: No (USB2E3373)
Correct for Detector Non-linearity: No (USB2E3373)
Correct for Stray Light: No (USB2E3373)
Number of Pixels in Processed Spectrum: 2048
>>>>>Begin Processed Spectral Data<<<<<
178.53	0.0000E00
178.91	0.0000E00
179.29	0.0000E00
179.67	0.0000E00
180.04	0.0000E00
180.42	0.0000E00
180.80	0.0000E00
181.18	0.0000E00
181.56	0.0000E00
181.94	0.0000E00
182.31	0.0000E00
182.69	0.0000E00
183.07	0.0000E00
183.45	0.0000E00
183.83	0.0000E00
184.20	0.0000E00
184.58	0.0000E00
184.96	0.0000E00
185.34	0.0000E00
185.72	0.0000E00
186.09	0.0000E00
186.47	0.0000E00
186.85	0.0000E00
187.23	0.0000E00
187.61	0.0000E00
187.98	0.0000E00
188.36	0.0000E00
188.74	0.0000E00
189.12	0.0000E00
189.49	0.0000E00
189.87	0.0000E00
190.25	0.0000E00
190.63	0.0000E00
191.00	0.0000E00
191.38	0.0000E00
191.76	0.0000E00
192.14	0.0000E00
192.51	0.0000E00
192.89	0.0000E00
193.27	0.0000E00
193.65	0.0000E00
194.02	0.0000E00
194.40	0.0000E00
194.78	0.0000E00
195.15	0.0000E00
195.53	-0.0000E00
195.91	0.0000E00
196.29	0.0000E00
196.66	0.0000E00
197.04	0.0000E00
197.42	0.0000E00
197.79	0.0000E00
198.17	0.0000E00
198.55	0.0000E00
198.92	0.0000E00
199.30	0.0000E00
199.68	0.0000E00
200.05	0.0000E00
200.43	0.0000E00
200.81	0.0000E00
201.18	0.0000E00
201.56	0.0000E00
201.94	0.0000E00
202.31	-0.0000E00
202.69	0.0000E00
203.07	0.0000E00
203.44	0.0000E00
203.82	0.0000E00
204.19	0.0000E00
204.57	0.0000E00
204.95	0.0000E00
205.32	0.0000E00
205.70	0.0000E00
206.08	0.0000E00
206.45	0.0000E00
206.83	0.0000E00
207.20	0.0000E00
207.58	0.0000E00
207.96	0.0000E00
208.33	0.0000E00
208.71	0.0000E00
209.08	0.0000E00
209.46	0.0000E00
209.84	0.0000E00
210.21	0.0000E00
210.59	0.0000E00
210.96	0.0000E00
211.34	0.0000E00
211.71	0.0000E00
212.09	0.0000E00
212.46	0.0000E00
212.84	0.0000E00
213.22	0.0000E00
213.59	0.0000E00
213.97	0.0000E00
214.34	0.0000E00
214.72	0.0000E00
215.09	0.0000E00
215.47	0.0000E00
215.84	0.0000E00
216.22	0.0000E00
216.59	0.0000E00
216.97	0.0000E00
217.34	0.0000E00
217.72	0.0000E00
218.09	0.0000E00
218.47	0.0000E00
218.84	0.0000E00
219.22	0.0000E00
219.59	0.0000E00
219.97	0.0000E00
220.34	0.0000E00
220.72	0.0000E00
221.09	0.0000E00
221.47	0.0000E00
221.84	0.0000E00
222.22	0.0000E00
222.59	0.0000E00
222.97	0.0000E00
223.34	0.0000E00
223.72	0.0000E00
224.09	0.0000E00
224.46	0.0000E00
224.84	0.0000E00
225.21	0.0000E00
225.59	0.0000E00
225.96	0.0000E00
226.34	0.0000E00
226.71	0.0000E00
227.08	0.0000E00
227.46	0.0000E00
227.83	0.0000E00
228.21	0.0000E00
228.58	0.0000E00
228.95	0.0000E00
229.33	0.0000E00
229.70	0.0000E00
230.08	0.0000E00
230.45	0.0000E00
230.82	0.0000E00
231.20	0.0000E00
231.57	0.0000E00
231.95	0.0000E00
232.32	0.0000E00
232.69	0.0000E00
233.07	0.0000E00
233.44	0.0000E00
233.81	0.0000E00
234.19	0.0000E00
234.56	0.0000E00
234.93	0.0000E00
235.31	0.0000E00
235.68	0.0000E00
236.05	0.0000E00
236.43	0.0000E00
236.80	0.0000E00
237.17	0.0000E00
237.55	0.0000E00
237.92	0.0000E00
238.29	0.0000E00
238.67	0.0000E00
239.04	0.0000E00
239.41	0.0000E00
239.79	0.0000E00
240.16	0.0000E00
240.53	0.0000E00
240.91	0.0000E00
241.28	0.0000E00
241.65	0.0000E00
242.02	0.0000E00
242.40	0.0000E00
242.77	0.0000E00
243.14	0.0000E00
243.51	0.0000E00
243.89	0.0000E00
244.26	0.0000E00
244.63	0.0000E00
245.00	0.0000E00
245.38	0.0000E00
245.75	0.0000E00
246.12	0.0000E00
246.49	0.0000E00
246.87	0.0000E00
247.24	0.0000E00
247.61	0.0000E00
247.98	0.0000E00
248.36	0.0000E00
248.73	0.0000E00
249.10	0.0000E00
249.47	0.0000E00
249.84	0.0000E00
250.22	0.0000E00
250.59	0.0000E00
250.96	0.0000E00
251.33	0.0000E00
251.70	0.0000E00
252.08	0.0000E00
252.45	0.0000E00
252.82	0.0000E00
253.19	0.0000E00
253.56	0.0000E00
253.94	0.0000E00
254.31	0.0000E00
254.68	0.0000E00
255.05	0.0000E00
255.42	0.0000E00
255.79	0.0000E00
256.16	0.0000E00
256.54	0.0000E00
256.91	0.0000E00
257.28	0.0000E00
257.65	0.0000E00
258.02	0.0000E00
258.39	0.0000E00
258.76	0.0000E00
259.14	0.0000E00
259.51	0.0000E00
259.88	0.0000E00
260.25	0.0000E00
260.62	0.0000E00
260.99	0.0000E00
261.36	0.0000E00
261.73	0.0000E00
262.10	0.0000E00
262.47	0.0000E00
262.85	0.0000E00
263.22	0.0000E00
263.59	0.0000E00
263.96	0.0000E00
264.33	0.0000E00
264.70	0.0000E00
265.07	0.0000E00
265.44	0.0000E00
265.81	0.0000E00
266.18	0.0000E00
266.55	0.0000E00
266.92	0.0000E00
267.29	0.0000E00
267.66	0.0000E00
268.03	0.0000E00
268.40	0.0000E00
268.77	0.0000E00
269.14	0.0000E00
269.51	0.0000E00
269.88	0.0000E00
270.25	0.0000E00
270.62	0.0000E00
270.99	0.0000E00
271.36	0.0000E00
271.73	0.0000E00
272.10	0.0000E00
272.47	0.0000E00
272.84	0.0000E00
273.21	0.0000E00
273.58	0.0000E00
273.95	0.0000E00
274.32	0.0000E00
274.69	0.0000E00
275.06	0.0000E00
275.43	0.0000E00
275.80	0.0000E00
276.17	0.0000E00
276.54	0.0000E00
276.91	0.0000E00
277.28	0.0000E00
277.65	0.0000E00
278.02	0.0000E00
278.39	0.0000E00
278.76	0.0000E00
279.13	0.0000E00
279.50	0.0000E00
279.87	0.0000E00
280.23	0.0000E00
280.60	0.0000E00
280.97	0.0000E00
281.34	0.0000E00
281.71	0.0000E00
282.08	0.0000E00
282.45	0.0000E00
282.82	0.0000E00
283.19	0.0000E00
283.56	0.0000E00
283.92	0.0000E00
284.29	0.0000E00
284.66	0.0000E00
285.03	0.0000E00
285.40	0.0000E00
285.77	0.0000E00
286.14	0.0000E00
286.51	0.0000E00
286.87	0.0000E00
287.24	0.0000E00
287.61	0.0000E00
287.98	0.0000E00
288.35	0.0000E00
288.72	0.0000E00
289.08	0.0000E00
289.45	0.0000E00
289.82	0.0000E00
290.19	0.0000E00
290.56	0.0000E00
290.93	0.0000E00
291.29	0.0000E00
291.66	0.0000E00
292.03	0.0000E00
292.40	0.0000E00
292.77	0.0000E00
293.13	0.0000E00
293.50	0.0000E00
293.87	0.0000E00
294.24	0.0000E00
294.60	0.0000E00
294.97	0.0000E00
295.34	0.0000E00
295.71	0.0000E00
296.08	0.0000E00
296.44	0.0000E00
296.81	0.0000E00
297.18	0.0000E00
297.55	0.0000E00
297.91	0.0000E00
298.28	0.0000E00
298.65	0.0000E00
299.02	0.0000E00
299.38	0.0000E00
299.75	0.0000E00
300.12	4.1800E-01
300.48	1.0488E00
300.85	4.3067E-01
301.22	1.1304E00
301.59	3.4353E-01
301.95	4.0809E-01
302.32	6.0587E-01
302.69	6.0503E-01
303.05	3.6787E-01
303.42	4.8415E-01
303.79	5.4813E-01
304.15	3.3883E-01
304.52	3.9958E-01
304.89	3.6932E-01
305.25	7.3365E-01
305.62	4.6805E-01
305.99	5.6408E-01
306.35	3.3456E-01
306.72	4.5386E-01
307.09	3.9364E-01
307.45	3.9427E-01
307.82	2.8115E-01
308.19	3.5683E-01
308.55	4.0473E-01
308.92	4.7555E-01
309.29	3.9364E-01
309.65	5.0951E-01
310.02	3.6024E-01
310.38	3.7580E-01
310.75	4.9361E-01
311.12	4.7524E-01
311.48	8.2098E-01
311.85	5.2815E-01
312.22	3.7272E-01
312.58	8.5898E-01
312.95	5.2858E-01
313.31	5.0706E-01
313.68	6.6029E-01
314.05	1.0961E00
314.41	6.1396E-01
314.78	3.6726E-01
315.14	6.9288E-01
315.51	1.2962E00
315.87	5.6530E-01
316.24	8.3848E-01
316.61	7.9226E-01
316.97	5.4438E-01
317.34	9.0850E-01
317.70	7.1952E-01
318.07	7.3387E-01
318.43	8.7782E-01
318.80	6.5493E-01
319.16	8.3971E-01
319.53	5.9632E-01
319.89	1.2269E00
320.26	9.5487E-01
320.62	1.1743E00
320.99	1.0393E00
321.35	6.0095E-01
321.72	8.2189E-01
322.08	1.2954E00
322.45	7.7744E-01
322.81	8.5699E-01
323.18	2.6688E00
323.54	1.4321E00
323.91	1.1007E00
324.27	2.2844E00
324.64	1.7753E00
325.00	1.3443E00
325.37	2.3027E00
325.73	8.8463E-01
326.10	3.1243E00
326.46	1.4517E00
326.83	1.1829E00
327.19	2.5220E00
327.56	9.6970E-01
327.92	1.4040E00
328.29	1.1186E00
328.65	1.4661E00
329.01	1.7367E00
329.38	1.1264E00
329.74	1.0093E00
330.11	1.4753E00
330.47	9.8399E-01
330.84	1.4218E00
331.20	1.4215E00
331.56	1.3216E00
331.93	1.4721E00
332.29	1.3638E00
332.66	9.5275E-01
333.02	1.1537E00
333.38	1.7259E00
333.75	8.0584E-01
334.11	1.2603E00
334.48	1.2568E00
334.84	1.1765E00
335.20	1.4436E00
335.57	2.6782E00
335.93	1.7817E00
336.29	1.3840E00
336.66	1.3338E00
337.02	9.3232E-01
337.38	1.1635E00
337.75	1.1287E00
338.11	9.5619E-01
338.47	1.3322E00
338.84	1.0999E00
339.20	9.1418E-01
339.56	2.6852E00
339.93	8.3879E-01
340.29	9.9776E-01
340.65	1.0889E00
341.02	1.8252E00
341.38	1.2442E00
341.74	1.3388E00
342.11	1.3046E00
342.47	1.3167E00
342.83	7.2385E-01
343.20	1.6716E00
343.56	1.0131E00
343.92	1.4113E00
344.28	9.3900E-01
344.65	1.4892E00
345.01	8.7734E-01
345.37	1.4170E00
345.73	1.2627E00
346.10	1.0835E00
346.46	1.2863E00
346.82	9.8126E-01
347.19	2.2276E00
347.55	9.1756E-01
347.91	9.2492E-01
348.27	1.0381E00
348.63	9.0394E-01
349.00	8.9287E-01
349.36	1.7993E00
349.72	1.1218E00
350.08	1.6332E00
350.45	9.3482E-01
350.81	8.7105E-01
351.17	1.1469E00
351.53	1.2415E00
351.89	1.0128E00
352.26	1.1628E00
352.62	9.6163E-01
352.98	1.1180E00
353.34	9.8777E-01
353.70	1.3055E00
354.07	9.5722E-01
354.43	9.0838E-01
354.79	1.0668E00
355.15	8.5300E-01
355.51	8.1450E-01
355.87	9.2159E-01
356.24	9.6094E-01
356.60	9.2966E-01
356.96	1.0070E00
357.32	9.0478E-01
357.68	8.5017E-01
358.04	7.6717E-01
358.40	8.4709E-01
358.77	7.8859E-01
359.13	9.3381E-01
359.49	9.9190E-01
359.85	9.6464E-01
360.21	7.2564E-01
360.57	8.8547E-01
360.93	8.7989E-01
361.29	9.3326E-01
361.66	7.7447E-01
362.02	7.1353E-01
362.38	9.3073E-01
362.74	8.1057E-01
363.10	8.5511E-01
363.46	9.9500E-01
363.82	8.5034E-01
364.18	1.0183E00
364.54	9.6490E-01
364.90	9.1918E-01
365.26	9.0367E-01
365.62	1.0333E00
365.98	9.0040E-01
366.35	7.2045E-01
366.71	8.7363E-01
367.07	1.1195E00
367.43	7.0812E-01
367.79	1.0116E00
368.15	9.2710E-01
368.51	1.0993E00
368.87	9.6125E-01
369.23	1.0280E00
369.59	8.0837E-01
369.95	8.7485E-01
370.31	8.3443E-01
370.67	9.8723E-01
371.03	8.3377E-01
371.39	8.1497E-01
371.75	8.2281E-01
372.11	8.4918E-01
372.47	7.8075E-01
372.83	7.8824E-01
373.19	6.5835E-01
373.55	8.6286E-01
373.91	8.7981E-01
374.27	9.4968E-01
374.63	9.2574E-01
374.99	8.4072E-01
375.35	8.0833E-01
375.71	8.2444E-01
376.07	8.3105E-01
376.42	8.2276E-01
376.78	7.4552E-01
377.14	8.4505E-01
377.50	9.2337E-01
377.86	7.8586E-01
378.22	7.4158E-01
378.58	7.4202E-01
378.94	7.1946E-01
379.30	7.5598E-01
379.66	7.4468E-01
380.02	7.2915E-01
380.38	7.0818E-01
380.74	7.4257E-01
381.09	7.7928E-01
381.45	7.1835E-01
381.81	6.9433E-01
382.17	7.3197E-01
382.53	7.6093E-01
382.89	6.8106E-01
383.25	7.1658E-01
383.61	7.0859E-01
383.97	6.8792E-01
384.32	6.8572E-01
384.68	6.5475E-01
385.04	7.2692E-01
385.40	7.4904E-01
385.76	7.4628E-01
386.12	7.0164E-01
386.48	7.1287E-01
386.83	6.6534E-01
387.19	6.6400E-01
387.55	7.4255E-01
387.91	7.1762E-01
388.27	6.7138E-01
388.62	7.5456E-01
388.98	6.8400E-01
389.34	7.5885E-01
389.70	6.8851E-01
390.06	7.1061E-01
390.42	7.1680E-01
390.77	6.9970E-01
391.13	7.1386E-01
391.49	7.0016E-01
391.85	7.3860E-01
392.20	6.5204E-01
392.56	6.6117E-01
392.92	6.7037E-01
393.28	6.7295E-01
393.64	7.0317E-01
393.99	7.1738E-01
394.35	7.0506E-01
394.71	6.9722E-01
395.07	6.8257E-01
395.42	6.8546E-01
395.78	6.9737E-01
396.14	6.2937E-01
396.50	6.3207E-01
396.85	6.9489E-01
397.21	6.6948E-01
397.57	6.8808E-01
397.92	6.4323E-01
398.28	6.2227E-01
398.64	7.3998E-01
399.00	5.9655E-01
399.35	6.2043E-01
399.71	6.6527E-01
400.07	6.4862E-01
400.42	6.3384E-01
400.78	6.4976E-01
401.14	6.5253E-01
401.49	6.0493E-01
401.85	6.0100E-01
402.21	6.1083E-01
402.57	6.0710E-01
402.92	6.4040E-01
403.28	6.0921E-01
403.63	6.0580E-01
403.99	6.1968E-01
404.35	6.0191E-01
404.70	5.9088E-01
405.06	6.0020E-01
405.42	6.1358E-01
405.77	5.7063E-01
406.13	5.6991E-01
406.49	5.6645E-01
406.84	5.7305E-01
407.20	5.5914E-01
407.55	6.0310E-01
407.91	6.1405E-01
408.27	5.7546E-01
408.62	5.7900E-01
408.98	5.8553E-01
409.34	5.9605E-01
409.69	5.7005E-01
410.05	6.0057E-01
410.40	5.7375E-01
410.76	5.3050E-01
411.11	5.3527E-01
411.47	5.8004E-01
411.83	5.5025E-01
412.18	5.6065E-01
412.54	5.5000E-01
412.89	5.4595E-01
413.25	5.6646E-01
413.60	5.9149E-01
413.96	5.5440E-01
414.31	5.5784E-01
414.67	5.8858E-01
415.03	5.7681E-01
415.38	5.9112E-01
415.74	5.8429E-01
416.09	5.8084E-01
416.45	5.8852E-01
416.80	5.7754E-01
417.16	5.7211E-01
417.51	5.6938E-01
417.87	5.4796E-01
418.22	5.4161E-01
418.58	5.5369E-01
418.93	5.2994E-01
419.29	5.6777E-01
419.64	5.5137E-01
420.00	5.2096E-01
420.35	5.1180E-01
420.71	5.3728E-01
421.06	5.3918E-01
421.42	5.5284E-01
421.77	5.4439E-01
422.12	5.4360E-01
422.48	5.1490E-01
422.83	5.5024E-01
423.19	5.2000E-01
423.54	5.2030E-01
423.90	5.2651E-01
424.25	4.9717E-01
424.61	5.4837E-01
424.96	5.1335E-01
425.31	5.1021E-01
425.67	4.8891E-01
426.02	5.1081E-01
426.38	5.1081E-01
426.73	4.8341E-01
427.09	5.0642E-01
427.44	4.8500E-01
427.79	4.9053E-01
428.15	5.0592E-01
428.50	5.0230E-01
428.85	5.1405E-01
429.21	4.7444E-01
429.56	4.6431E-01
429.92	4.7323E-01
430.27	4.8923E-01
430.62	4.8841E-01
430.98	4.9455E-01
431.33	4.8356E-01
431.68	4.6782E-01
432.04	4.6390E-01
432.39	4.7048E-01
432.74	4.8794E-01
433.10	4.5736E-01
433.45	4.8389E-01
433.80	4.8159E-01
434.16	4.9176E-01
434.51	4.6858E-01
434.86	4.8720E-01
435.22	4.6998E-01
435.57	5.0220E-01
435.92	4.9222E-01
436.28	4.8998E-01
436.63	4.5411E-01
436.98	4.8582E-01
437.34	4.8295E-01
437.69	4.5921E-01
438.04	4.4652E-01
438.39	4.7806E-01
438.75	4.8952E-01
439.10	4.4184E-01
439.45	4.7972E-01
439.81	4.7473E-01
440.16	4.4616E-01
440.51	4.6628E-01
440.86	4.6446E-01
441.22	4.5440E-01
441.57	4.5844E-01
441.92	4.4509E-01
442.27	4.6730E-01
442.63	4.5760E-01
442.98	4.8821E-01
443.33	4.7805E-01
443.68	4.4469E-01
444.03	4.1961E-01
444.39	4.2132E-01
444.74	4.5796E-01
445.09	4.6446E-01
445.44	4.6506E-01
445.79	4.1052E-01
446.15	4.4133E-01
446.50	4.5615E-01
446.85	4.2864E-01
447.20	4.1741E-01
447.55	4.5130E-01
447.91	4.3428E-01
448.26	4.4512E-01
448.61	4.4116E-01
448.96	4.3232E-01
449.31	4.3908E-01
449.66	4.4276E-01
450.02	4.3610E-01
450.37	4.3635E-01
450.72	4.3048E-01
451.07	4.6447E-01
451.42	4.6115E-01
451.77	4.3558E-01
452.12	4.3549E-01
452.47	4.5557E-01
452.83	4.1889E-01
453.18	4.4286E-01
453.53	4.3778E-01
453.88	4.1245E-01
454.23	4.0734E-01
454.58	4.0742E-01
454.93	4.3731E-01
455.28	4.3458E-01
455.63	4.2183E-01
455.98	4.1252E-01
456.34	4.3444E-01
456.69	4.2077E-01
457.04	4.2469E-01
457.39	3.9821E-01
457.74	4.0646E-01
458.09	3.9585E-01
458.44	3.9496E-01
458.79	3.8664E-01
459.14	3.9987E-01
459.49	4.1603E-01
459.84	3.9340E-01
460.19	4.1804E-01
460.54	4.1544E-01
460.89	3.8315E-01
461.24	4.1910E-01
461.59	4.0094E-01
461.94	4.0647E-01
462.29	3.7995E-01
462.64	4.0186E-01
462.99	4.0563E-01
463.34	4.2925E-01
463.69	4.0206E-01
464.04	3.7522E-01
464.39	3.8970E-01
464.74	3.9529E-01
465.09	4.0605E-01
465.44	3.8237E-01
465.79	3.9437E-01
466.14	3.9592E-01
466.49	3.8935E-01
466.84	3.8597E-01
467.19	3.9940E-01
467.54	4.0058E-01
467.89	3.8102E-01
468.24	3.6139E-01
468.59	3.7343E-01
468.94	3.6602E-01
469.29	3.6762E-01
469.64	3.7994E-01
469.99	3.6622E-01
470.34	3.5445E-01
470.68	3.7755E-01
471.03	3.6423E-01
471.38	3.6518E-01
471.73	3.4775E-01
472.08	3.4349E-01
472.43	3.3155E-01
472.78	3.5001E-01
473.13	3.4627E-01
473.48	3.4060E-01
473.83	3.3404E-01
474.17	3.3915E-01
474.52	3.3540E-01
474.87	3.2141E-01
475.22	3.2846E-01
475.57	3.1225E-01
475.92	3.0431E-01
476.27	3.1352E-01
476.61	3.0499E-01
476.96	2.9719E-01
477.31	2.8817E-01
477.66	2.9365E-01
478.01	2.9208E-01
478.36	2.9025E-01
478.70	2.8615E-01
479.05	2.9067E-01
479.40	2.7735E-01
479.75	2.7423E-01
480.10	2.7614E-01
480.45	2.6966E-01
480.79	2.6825E-01
481.14	2.7201E-01
481.49	2.6552E-01
481.84	2.6077E-01
482.19	2.5909E-01
482.53	2.5829E-01
482.88	2.5624E-01
483.23	2.5186E-01
483.58	2.4661E-01
483.92	2.5281E-01
484.27	2.4483E-01
484.62	2.4326E-01
484.97	2.3825E-01
485.31	2.3695E-01
485.66	2.4191E-01
486.01	2.4202E-01
486.36	2.3060E-01
486.70	2.3680E-01
487.05	2.3541E-01
487.40	2.3557E-01
487.75	2.2856E-01
488.09	2.2889E-01
488.44	2.3078E-01
488.79	2.2747E-01
489.13	2.2480E-01
489.48	2.2746E-01
489.83	2.2803E-01
490.17	2.2194E-01
490.52	2.2210E-01
490.87	2.2285E-01
491.22	2.2598E-01
491.56	2.2280E-01
491.91	2.2566E-01
492.26	2.2300E-01
492.60	2.2310E-01
492.95	2.2534E-01
493.30	2.2475E-01
493.64	2.2196E-01
493.99	2.2323E-01
494.34	2.2028E-01
494.68	2.1812E-01
495.03	2.2370E-01
495.37	2.2143E-01
495.72	2.2381E-01
496.07	2.1893E-01
496.41	2.2032E-01
496.76	2.1875E-01
497.11	2.2101E-01
497.45	2.2000E-01
497.80	2.2033E-01
498.14	2.2017E-01
498.49	2.2056E-01
498.84	2.2128E-01
499.18	2.2075E-01
499.53	2.2063E-01
499.87	2.1842E-01
500.22	2.2117E-01
500.56	2.2064E-01
500.91	2.2019E-01
501.26	2.2007E-01
501.60	2.1981E-01
501.95	2.1798E-01
502.29	2.2072E-01
502.64	2.1688E-01
502.98	2.2030E-01
503.33	2.1845E-01
503.67	2.1899E-01
504.02	2.1831E-01
504.36	2.1792E-01
504.71	2.1871E-01
505.06	2.1677E-01
505.40	2.1684E-01
505.75	2.1827E-01
506.09	2.1831E-01
506.44	2.1808E-01
506.78	2.1588E-01
507.13	2.1709E-01
507.47	2.1540E-01
507.82	2.1537E-01
508.16	2.1727E-01
508.51	2.1526E-01
508.85	2.1268E-01
509.19	2.1526E-01
509.54	2.1515E-01
509.88	2.1543E-01
510.23	2.1215E-01
510.57	2.1319E-01
510.92	2.1258E-01
511.26	2.1278E-01
511.61	2.1258E-01
511.95	2.1274E-01
512.30	2.1146E-01
512.64	2.1301E-01
512.98	2.0934E-01
513.33	2.1104E-01
513.67	2.1135E-01
514.02	2.1058E-01
514.36	2.0884E-01
514.70	2.1002E-01
515.05	2.0788E-01
515.39	2.0947E-01
515.74	2.0736E-01
516.08	2.0631E-01
516.42	2.0811E-01
516.77	2.0862E-01
517.11	2.0873E-01
517.46	2.0980E-01
517.80	2.0682E-01
518.14	2.0799E-01
518.49	2.0617E-01
518.83	2.0695E-01
519.17	2.0692E-01
519.52	2.0726E-01
519.86	2.0617E-01
520.20	2.0540E-01
520.55	2.0600E-01
520.89	2.0486E-01
521.23	2.0679E-01
521.58	2.0645E-01
521.92	2.0807E-01
522.26	2.0890E-01
522.61	2.0577E-01
522.95	2.0750E-01
523.29	2.0457E-01
523.64	2.0479E-01
523.98	2.0576E-01
524.32	2.0622E-01
524.66	2.0786E-01
525.01	2.0788E-01
525.35	2.0869E-01
525.69	2.0925E-01
526.04	2.0860E-01
526.38	2.0546E-01
526.72	2.0968E-01
527.06	2.0844E-01
527.41	2.1022E-01
527.75	2.1202E-01
528.09	2.1046E-01
528.43	2.1374E-01
528.78	2.1121E-01
529.12	2.1325E-01
529.46	2.1491E-01
529.80	2.1401E-01
530.15	2.1473E-01
530.49	2.1458E-01
530.83	2.1580E-01
531.17	2.1588E-01
531.51	2.1521E-01
531.86	2.1708E-01
532.20	2.1806E-01
532.54	2.1762E-01
532.88	2.1896E-01
533.22	2.2094E-01
533.57	2.2195E-01
533.91	2.2135E-01
534.25	2.2327E-01
534.59	2.2188E-01
534.93	2.2392E-01
535.27	2.2289E-01
535.62	2.2703E-01
535.96	2.2633E-01
536.30	2.2673E-01
536.64	2.2715E-01
536.98	2.2894E-01
537.32	2.2833E-01
537.66	2.2830E-01
538.01	2.3073E-01
538.35	2.3261E-01
538.69	2.2980E-01
539.03	2.3534E-01
539.37	2.3328E-01
539.71	2.3479E-01
540.05	2.3532E-01
540.39	2.3596E-01
540.73	2.3491E-01
541.07	2.3554E-01
541.42	2.3613E-01
541.76	2.3629E-01
542.10	2.3740E-01
542.44	2.3842E-01
542.78	2.3883E-01
543.12	2.3809E-01
543.46	2.4340E-01
543.80	2.4027E-01
544.14	2.4006E-01
544.48	2.3936E-01
544.82	2.4181E-01
545.16	2.4247E-01
545.50	2.4087E-01
545.84	2.4332E-01
546.18	2.4171E-01
546.52	2.4441E-01
546.86	2.4235E-01
547.20	2.4572E-01
547.54	2.4854E-01
547.88	2.4413E-01
548.22	2.4488E-01
548.56	2.4571E-01
548.90	2.4422E-01
549.24	2.4635E-01
549.58	2.4698E-01
549.92	2.4550E-01
550.26	2.4952E-01
550.60	2.4610E-01
550.94	2.4473E-01
551.28	2.4822E-01
551.62	2.4659E-01
551.96	2.4907E-01
552.30	2.5000E-01
552.64	2.4886E-01
552.98	2.4909E-01
553.32	2.4960E-01
553.66	2.4810E-01
554.00	2.4876E-01
554.34	2.4963E-01
554.68	2.5048E-01
555.02	2.5078E-01
555.36	2.5166E-01
555.69	2.5074E-01
556.03	2.5066E-01
556.37	2.5171E-01
556.71	2.4962E-01
557.05	2.4920E-01
557.39	2.4978E-01
557.73	2.5007E-01
558.07	2.5201E-01
558.41	2.5076E-01
558.75	2.5112E-01
559.08	2.5147E-01
559.42	2.4909E-01
559.76	2.5294E-01
560.10	2.5247E-01
560.44	2.5238E-01
560.78	2.4998E-01
561.12	2.5160E-01
561.45	2.5103E-01
561.79	2.5207E-01
562.13	2.5216E-01
562.47	2.5247E-01
562.81	2.5259E-01
563.15	2.5264E-01
563.48	2.5309E-01
563.82	2.4988E-01
564.16	2.5227E-01
564.50	2.5238E-01
564.84	2.5295E-01
565.17	2.5315E-01
565.51	2.5276E-01
565.85	2.5476E-01
566.19	2.5171E-01
566.52	2.5512E-01
566.86	2.5214E-01
567.20	2.5467E-01
567.54	2.5365E-01
567.88	2.5409E-01
568.21	2.5384E-01
568.55	2.5513E-01
568.89	2.5543E-01
569.23	2.5519E-01
569.56	2.5471E-01
569.90	2.5569E-01
570.24	2.5734E-01
570.57	2.5719E-01
570.91	2.5763E-01
571.25	2.5414E-01
571.59	2.5736E-01
571.92	2.5714E-01
572.26	2.5781E-01
572.60	2.6014E-01
572.93	2.5882E-01
573.27	2.6107E-01
573.61	2.6153E-01
573.95	2.5767E-01
574.28	2.6216E-01
574.62	2.6231E-01
574.96	2.6263E-01
575.29	2.6193E-01
575.63	2.6605E-01
575.97	2.6520E-01
576.30	2.7135E-01
576.64	2.6800E-01
576.98	2.6778E-01
577.31	2.6887E-01
577.65	2.7171E-01
577.98	2.6967E-01
578.32	2.7193E-01
578.66	2.7318E-01
578.99	2.7394E-01
579.33	2.7480E-01
579.67	2.7318E-01
580.00	2.7671E-01
580.34	2.7598E-01
580.67	2.7724E-01
581.01	2.7967E-01
581.35	2.8104E-01
581.68	2.8194E-01
582.02	2.8083E-01
582.35	2.8301E-01
582.69	2.8300E-01
583.02	2.8733E-01
583.36	2.8456E-01
583.70	2.8419E-01
584.03	2.8615E-01
584.37	2.8432E-01
584.70	2.9036E-01
585.04	2.9021E-01
585.37	2.8875E-01
585.71	2.9345E-01
586.04	2.9245E-01
586.38	2.9034E-01
586.72	2.9433E-01
587.05	2.9574E-01
587.39	2.9683E-01
587.72	2.9476E-01
588.06	2.9732E-01
588.39	2.9701E-01
588.73	3.0013E-01
589.06	2.9802E-01
589.40	3.0251E-01
589.73	3.0382E-01
590.07	3.0489E-01
590.40	3.0494E-01
590.73	3.0831E-01
591.07	3.0550E-01
591.40	3.1202E-01
591.74	3.0513E-01
592.07	3.0918E-01
592.41	3.1086E-01
592.74	3.1160E-01
593.08	3.0967E-01
593.41	3.1144E-01
593.75	3.0942E-01
594.08	3.1407E-01
594.41	3.1281E-01
594.75	3.1408E-01
595.08	3.1382E-01
595.42	3.1024E-01
595.75	3.1532E-01
596.09	3.1524E-01
596.42	3.1365E-01
596.75	3.1765E-01
597.09	3.1903E-01
597.42	3.1578E-01
597.75	3.1944E-01
598.09	3.2036E-01
598.42	3.1770E-01
598.76	3.2004E-01
599.09	3.2402E-01
599.42	3.2387E-01
599.76	3.2250E-01
600.09	3.2156E-01
600.42	3.2620E-01
600.76	3.2001E-01
601.09	3.2381E-01
601.42	3.2704E-01
601.76	3.2329E-01
602.09	3.2233E-01
602.42	3.2468E-01
602.76	3.2363E-01
603.09	3.2273E-01
603.42	3.2869E-01
603.76	3.2489E-01
604.09	3.2490E-01
604.42	3.2760E-01
604.76	3.2486E-01
605.09	3.2991E-01
605.42	3.2678E-01
605.75	3.2828E-01
606.09	3.2660E-01
606.42	3.2768E-01
606.75	3.2929E-01
607.09	3.2984E-01
607.42	3.2986E-01
607.75	3.3040E-01
608.08	3.2992E-01
608.42	3.3233E-01
608.75	3.2865E-01
609.08	3.3293E-01
609.41	3.3217E-01
609.75	3.3040E-01
610.08	3.3204E-01
610.41	3.3419E-01
610.74	3.3335E-01
611.07	3.3345E-01
611.41	3.3267E-01
611.74	3.3422E-01
612.07	3.3576E-01
612.40	3.3067E-01
612.73	3.3462E-01
613.07	3.3645E-01
613.40	3.3288E-01
613.73	3.3169E-01
614.06	3.3487E-01
614.39	3.3579E-01
614.72	3.3693E-01
615.06	3.3657E-01
615.39	3.4030E-01
615.72	3.3480E-01
616.05	3.3835E-01
616.38	3.3934E-01
616.71	3.4010E-01
617.05	3.3808E-01
617.38	3.4002E-01
617.71	3.3777E-01
618.04	3.3981E-01
618.37	3.3752E-01
618.70	3.3875E-01
619.03	3.3979E-01
619.36	3.3451E-01
619.69	3.4139E-01
620.03	3.3770E-01
620.36	3.3868E-01
620.69	3.3694E-01
621.02	3.4016E-01
621.35	3.3910E-01
621.68	3.3603E-01
622.01	3.3496E-01
622.34	3.3704E-01
622.67	3.3611E-01
623.00	3.3728E-01
623.33	3.3808E-01
623.66	3.3569E-01
623.99	3.3677E-01
624.32	3.3553E-01
624.65	3.3674E-01
624.99	3.3661E-01
625.32	3.3773E-01
625.65	3.3702E-01
625.98	3.3193E-01
626.31	3.3643E-01
626.64	3.3712E-01
626.97	3.3759E-01
627.30	3.3499E-01
627.63	3.3670E-01
627.96	3.3387E-01
628.29	3.3365E-01
628.62	3.3700E-01
628.95	3.3681E-01
629.28	3.3157E-01
629.61	3.4200E-01
629.94	3.3710E-01
630.26	3.3767E-01
630.59	3.3954E-01
630.92	3.3756E-01
631.25	3.3938E-01
631.58	3.4310E-01
631.91	3.3838E-01
632.24	3.4540E-01
632.57	3.4187E-01
632.90	3.4256E-01
633.23	3.4305E-01
633.56	3.4498E-01
633.89	3.4506E-01
634.22	3.4631E-01
634.55	3.4764E-01
634.88	3.5159E-01
635.20	3.5054E-01
635.53	3.5311E-01
635.86	3.5331E-01
636.19	3.5734E-01
636.52	3.5830E-01
636.85	3.5549E-01
637.18	3.5997E-01
637.51	3.5671E-01
637.83	3.6081E-01
638.16	3.5723E-01
638.49	3.6792E-01
638.82	3.6668E-01
639.15	3.6876E-01
639.48	3.7163E-01
639.81	3.7377E-01
640.13	3.7023E-01
640.46	3.7602E-01
640.79	3.7553E-01
641.12	3.7923E-01
641.45	3.7857E-01
641.77	3.7614E-01
642.10	3.8500E-01
642.43	3.8616E-01
642.76	3.8768E-01
643.09	3.8548E-01
643.41	3.8867E-01
643.74	3.8904E-01
644.07	3.8879E-01
644.40	3.9201E-01
644.73	3.9622E-01
645.05	3.9753E-01
645.38	4.0046E-01
645.71	4.0173E-01
646.04	4.0171E-01
646.36	4.0092E-01
646.69	4.0736E-01
647.02	4.0748E-01
647.35	4.0509E-01
647.67	4.1012E-01
648.00	4.0917E-01
648.33	4.1380E-01
648.66	4.1176E-01
648.98	4.1713E-01
649.31	4.1618E-01
649.64	4.1800E-01
649.96	4.2213E-01
650.29	4.2443E-01
650.62	4.2448E-01
650.94	4.2372E-01
651.27	4.2374E-01
651.60	4.2438E-01
651.92	4.3184E-01
652.25	4.3267E-01
652.58	4.3187E-01
652.90	4.3384E-01
653.23	4.3437E-01
653.56	4.3595E-01
653.88	4.3736E-01
654.21	4.3792E-01
654.54	4.3975E-01
654.86	4.4525E-01
655.19	4.4036E-01
655.52	4.4709E-01
655.84	4.4579E-01
656.17	4.4845E-01
656.49	4.5337E-01
656.82	4.4816E-01
657.15	4.5333E-01
657.47	4.5294E-01
657.80	4.5298E-01
658.13	4.5502E-01
658.45	4.5788E-01
658.78	4.5648E-01
659.10	4.6202E-01
659.43	4.6161E-01
659.75	4.6052E-01
660.08	4.5872E-01
660.41	4.6463E-01
660.73	4.6515E-01
661.06	4.6893E-01
661.38	4.6699E-01
661.71	4.6854E-01
662.03	4.6919E-01
662.36	4.7520E-01
662.68	4.7403E-01
663.01	4.6798E-01
663.33	4.7261E-01
663.66	4.7586E-01
663.98	4.7303E-01
664.31	4.7343E-01
664.63	4.8299E-01
664.96	4.7972E-01
665.28	4.8335E-01
665.61	4.8203E-01
665.93	4.8308E-01
666.26	4.8576E-01
666.58	4.8610E-01
666.91	4.8294E-01
667.23	4.8860E-01
667.56	4.8253E-01
667.88	4.9046E-01
668.21	4.8954E-01
668.53	4.8783E-01
668.86	4.9736E-01
669.18	4.9037E-01
669.50	5.0099E-01
669.83	4.9916E-01
670.15	5.0060E-01
670.48	4.9987E-01
670.80	4.9812E-01
671.13	4.9572E-01
671.45	5.0152E-01
671.77	5.0445E-01
672.10	5.0086E-01
672.42	5.0861E-01
672.75	5.0527E-01
673.07	5.0962E-01
673.39	5.0490E-01
673.72	5.0759E-01
674.04	5.1160E-01
674.37	5.1546E-01
674.69	5.1227E-01
675.01	5.1612E-01
675.34	5.1741E-01
675.66	5.1907E-01
675.98	5.1365E-01
676.31	5.2171E-01
676.63	5.2313E-01
676.95	5.2014E-01
677.28	5.2466E-01
677.60	5.2479E-01
677.92	5.2273E-01
678.25	5.2909E-01
678.57	5.2967E-01
678.89	5.2778E-01
679.22	5.3621E-01
679.54	5.3367E-01
679.86	5.3376E-01
680.18	5.3537E-01
680.51	5.3723E-01
680.83	5.4243E-01
681.15	5.3689E-01
681.48	5.4047E-01
681.80	5.4433E-01
682.12	5.4064E-01
682.44	5.4960E-01
682.77	5.4976E-01
683.09	5.5306E-01
683.41	5.5081E-01
683.73	5.5656E-01
684.06	5.5528E-01
684.38	5.5682E-01
684.70	5.5579E-01
685.02	5.6110E-01
685.34	5.6724E-01
685.67	5.6196E-01
685.99	5.6942E-01
686.31	5.6515E-01
686.63	5.7475E-01
686.96	5.7122E-01
687.28	5.7806E-01
687.60	5.6989E-01
687.92	5.7648E-01
688.24	5.8267E-01
688.56	5.8364E-01
688.89	5.8520E-01
689.21	5.8281E-01
689.53	5.8535E-01
689.85	5.9419E-01
690.17	5.9008E-01
690.49	5.9932E-01
690.82	5.9900E-01
691.14	5.9938E-01
691.46	6.0248E-01
691.78	6.0643E-01
692.10	5.9937E-01
692.42	6.0621E-01
692.74	6.1133E-01
693.06	6.1233E-01
693.39	6.2283E-01
693.71	6.2308E-01
694.03	6.2387E-01
694.35	6.2574E-01
694.67	6.2781E-01
694.99	6.3359E-01
695.31	6.3583E-01
695.63	6.3492E-01
695.95	6.4022E-01
696.27	6.3842E-01
696.59	6.4424E-01
696.91	6.5298E-01
697.23	6.5203E-01
697.56	6.5043E-01
697.88	6.5771E-01
698.20	6.5673E-01
698.52	6.6318E-01
698.84	6.6854E-01
699.16	6.7333E-01
699.48	6.6646E-01
699.80	6.7535E-01
700.12	6.8143E-01
700.44	6.8254E-01
700.76	6.8396E-01
701.08	6.8860E-01
701.40	6.9100E-01
701.72	6.9790E-01
702.04	6.9767E-01
702.36	7.0352E-01
702.68	7.0703E-01
703.00	7.1190E-01
703.32	7.1579E-01
703.64	7.1623E-01
703.96	7.0960E-01
704.28	7.2019E-01
704.60	7.2901E-01
704.91	7.3078E-01
705.23	7.3171E-01
705.55	7.3999E-01
705.87	7.3479E-01
706.19	7.3752E-01
706.51	7.4257E-01
706.83	7.4564E-01
707.15	7.6619E-01
707.47	7.4962E-01
707.79	7.6423E-01
708.11	7.6569E-01
708.43	7.6904E-01
708.74	7.7579E-01
709.06	7.8665E-01
709.38	7.8167E-01
709.70	7.7697E-01
710.02	7.8759E-01
710.34	7.8470E-01
710.66	8.0477E-01
710.98	8.0041E-01
711.29	7.9947E-01
711.61	8.1370E-01
711.93	8.1855E-01
712.25	8.1177E-01
712.57	8.2287E-01
712.89	8.2611E-01
713.20	8.2698E-01
713.52	8.3470E-01
713.84	8.4267E-01
714.16	8.3589E-01
714.48	8.3835E-01
714.80	8.5203E-01
715.11	8.4959E-01
715.43	8.6227E-01
715.75	8.6759E-01
716.07	8.7599E-01
716.39	8.6043E-01
716.70	8.7047E-01
717.02	8.6578E-01
717.34	8.9183E-01
717.66	8.8308E-01
717.97	8.9441E-01
718.29	8.9920E-01
718.61	9.1198E-01
718.93	9.1111E-01
719.24	9.1323E-01
719.56	9.3297E-01
719.88	9.2425E-01
720.20	9.3638E-01
720.51	9.4804E-01
720.83	9.4443E-01
721.15	9.6369E-01
721.46	9.6007E-01
721.78	9.6600E-01
722.10	9.7952E-01
722.42	9.8964E-01
722.73	9.9518E-01
723.05	9.8358E-01
723.37	9.9794E-01
723.68	1.0076E00
724.00	1.0078E00
724.32	1.0255E00
724.63	1.0232E00
724.95	1.0173E00
725.27	1.0280E00
725.58	1.0338E00
725.90	1.0334E00
726.22	1.0511E00
726.53	1.0289E00
726.85	1.0432E00
727.16	1.0652E00
727.48	1.0474E00
727.80	1.0586E00
728.11	1.0629E00
728.43	1.0608E00
728.74	1.0558E00
729.06	1.0753E00
729.38	1.0705E00
729.69	1.0768E00
730.01	1.0841E00
730.32	1.0912E00
730.64	1.0908E00
730.96	1.0794E00
731.27	1.1089E00
731.59	1.0844E00
731.90	1.0977E00
732.22	1.1061E00
732.53	1.1034E00
732.85	1.1171E00
733.16	1.1131E00
733.48	1.1199E00
733.80	1.1143E00
734.11	1.1344E00
734.43	1.1337E00
734.74	1.1325E00
735.06	1.1466E00
735.37	1.1560E00
735.69	1.1406E00
736.00	1.1540E00
736.32	1.1561E00
736.63	1.1634E00
736.95	1.1616E00
737.26	1.1837E00
737.58	1.1825E00
737.89	1.1910E00
738.21	1.1795E00
738.52	1.1864E00
738.83	1.1900E00
739.15	1.1892E00
739.46	1.2063E00
739.78	1.2035E00
740.09	1.2168E00
740.41	1.2102E00
740.72	1.2064E00
741.04	1.2075E00
741.35	1.2099E00
741.66	1.2302E00
741.98	1.2226E00
742.29	1.2296E00
742.61	1.2236E00
742.92	1.2277E00
743.23	1.2275E00
743.55	1.2362E00
743.86	1.2258E00
744.18	1.2335E00
744.49	1.2353E00
744.80	1.2331E00
745.12	1.2335E00
745.43	1.2387E00
745.74	1.2375E00
746.06	1.2290E00
746.37	1.2273E00
746.68	1.2376E00
747.00	1.2346E00
747.31	1.2251E00
747.62	1.2181E00
747.94	1.2378E00
748.25	1.2372E00
748.56	1.2391E00
748.88	1.2224E00
749.19	1.2315E00
749.50	1.2350E00
749.82	1.2261E00
750.13	1.2337E00
750.44	1.2354E00
750.75	1.2206E00
751.07	1.2375E00
751.38	1.2455E00
751.69	1.2217E00
752.01	1.2394E00
752.32	1.2373E00
752.63	1.2387E00
752.94	1.2462E00
753.26	1.2516E00
753.57	1.2386E00
753.88	1.2461E00
754.19	1.2484E00
754.51	1.2514E00
754.82	1.2466E00
755.13	1.2613E00
755.44	1.2595E00
755.75	1.2635E00
756.07	1.2642E00
756.38	1.2785E00
756.69	1.2744E00
757.00	1.2821E00
757.31	1.2986E00
757.63	1.3057E00
757.94	1.3076E00
758.25	1.3213E00
758.56	1.2896E00
758.87	1.3338E00
759.18	1.3379E00
759.50	1.3344E00
759.81	1.3301E00
760.12	1.3374E00
760.43	1.3495E00
760.74	1.3445E00
761.05	1.3719E00
761.36	1.3756E00
761.67	1.3851E00
761.99	1.3940E00
762.30	1.3743E00
762.61	1.4085E00
762.92	1.4048E00
763.23	1.4068E00
763.54	1.4215E00
763.85	1.4449E00
764.16	1.4470E00
764.47	1.4649E00
764.78	1.4756E00
765.10	1.4766E00
765.41	1.4784E00
765.72	1.4873E00
766.03	1.5205E00
766.34	1.5314E00
766.65	1.5411E00
766.96	1.5725E00
767.27	1.5619E00
767.58	1.5630E00
767.89	1.5799E00
768.20	1.6028E00
768.51	1.6043E00
768.82	1.6085E00
769.13	1.6379E00
769.44	1.6605E00
769.75	1.6575E00
770.06	1.6622E00
770.37	1.6608E00
770.68	1.7005E00
770.99	1.7136E00
771.30	1.7208E00
771.61	1.7750E00
771.92	1.7359E00
772.23	1.7583E00
772.54	1.7969E00
772.85	1.7793E00
773.16	1.7975E00
773.47	1.8525E00
773.78	1.8366E00
774.09	1.8666E00
774.39	1.8706E00
774.70	1.8763E00
775.01	1.9132E00
775.32	1.9227E00
775.63	1.9449E00
775.94	1.9648E00
776.25	1.9519E00
776.56	1.9721E00
776.87	2.0234E00
777.18	2.0174E00
777.48	2.0372E00
777.79	2.0569E00
778.10	2.0746E00
778.41	2.0900E00
778.72	2.1139E00
779.03	2.1252E00
779.34	2.1703E00
779.65	2.1705E00
779.95	2.2129E00
780.26	2.1928E00
780.57	2.2315E00
780.88	2.2259E00
781.19	2.2651E00
781.50	2.2680E00
781.80	2.2886E00
782.11	2.2948E00
782.42	2.3494E00
782.73	2.3051E00
783.04	2.3943E00
783.34	2.3931E00
783.65	2.4124E00
783.96	2.4207E00
784.27	2.4331E00
784.57	2.4544E00
784.88	2.4831E00
785.19	2.4954E00
785.50	2.5224E00
785.81	2.5560E00
786.11	2.5184E00
786.42	2.5485E00
786.73	2.5731E00
787.04	2.6063E00
787.34	2.6557E00
787.65	2.6671E00
787.96	2.7289E00
788.26	2.7076E00
788.57	2.7637E00
788.88	2.7316E00
789.19	2.8154E00
789.49	2.7888E00
789.80	2.8401E00
790.11	2.8459E00
790.41	2.8776E00
790.72	2.9025E00
791.03	2.9155E00
791.33	2.9458E00
791.64	3.0131E00
791.95	2.9576E00
792.25	3.0554E00
792.56	3.0235E00
792.87	3.0700E00
793.17	3.0904E00
793.48	3.1037E00
793.79	3.1342E00
794.09	3.1961E00
794.40	3.1511E00
794.70	3.1611E00
795.01	3.1755E00
795.32	3.2162E00
795.62	3.2812E00
795.93	3.2858E00
796.23	3.2957E00
796.54	3.3375E00
796.85	3.3253E00
797.15	3.3675E00
797.46	3.3970E00
797.76	3.4825E00
798.07	3.4685E00
798.37	3.4752E00
798.68	3.5317E00
798.99	3.5291E00
799.29	3.5651E00
799.60	3.6252E00
799.90	3.6263E00
800.21	3.6787E00
800.51	3.7066E00
800.82	3.6996E00
801.12	3.7670E00
801.43	3.7594E00
801.73	3.8421E00
802.04	3.8295E00
802.34	3.8243E00
802.65	3.8686E00
802.95	4.0009E00
803.26	3.9686E00
803.56	3.9008E00
803.87	3.9655E00
804.17	3.9917E00
804.48	3.9862E00
804.78	4.0619E00
805.09	4.1295E00
805.39	4.1069E00
805.70	4.1268E00
806.00	4.1882E00
806.30	4.1826E00
806.61	4.2489E00
806.91	4.2732E00
807.22	4.3183E00
807.52	4.3379E00
807.83	4.3593E00
808.13	4.4090E00
808.43	4.3205E00
808.74	4.4463E00
809.04	4.4860E00
809.35	4.4611E00
809.65	4.5670E00
809.95	4.5882E00
810.26	4.6407E00
810.56	4.6613E00
810.86	4.7198E00
811.17	4.7587E00
811.47	4.7511E00
811.77	4.7500E00
812.08	4.7464E00
812.38	4.8913E00
812.69	4.7956E00
812.99	4.9532E00
813.29	4.9760E00
813.59	5.0214E00
813.90	5.0336E00
814.20	5.0390E00
814.50	5.1093E00
814.81	5.0498E00
815.11	5.1709E00
815.41	5.2984E00
815.72	5.2327E00
816.02	5.2676E00
816.32	5.2816E00
816.62	5.2450E00
816.93	5.3457E00
817.23	5.5061E00
817.53	5.4077E00
817.84	5.5199E00
818.14	5.5080E00
818.44	5.4974E00
818.74	5.6512E00
819.04	5.7556E00
819.35	5.6942E00
819.65	5.7369E00
819.95	5.8899E00
820.25	5.8933E00
820.56	5.8805E00
820.86	5.9511E00
821.16	6.0057E00
821.46	5.9994E00
821.76	6.0341E00
822.07	5.9918E00
822.37	6.0949E00
822.67	6.1981E00
822.97	6.2342E00
823.27	6.2225E00
823.57	6.3208E00
823.88	6.2941E00
824.18	6.4007E00
824.48	6.3827E00
824.78	6.4664E00
825.08	6.4432E00
825.38	6.5494E00
825.69	6.5485E00
825.99	6.6462E00
826.29	6.6827E00
826.59	6.6527E00
826.89	6.7760E00
827.19	6.6043E00
827.49	7.0376E00
827.79	6.9370E00
828.09	6.8827E00
828.39	7.0440E00
828.70	7.0217E00
829.00	7.0141E00
829.30	7.1392E00
829.60	7.2424E00
829.90	7.1408E00
830.20	7.0927E00
830.50	7.4073E00
830.80	7.4567E00
831.10	7.3051E00
831.40	7.5653E00
831.70	7.4811E00
832.00	7.5233E00
832.30	7.7485E00
832.60	7.6286E00
832.90	7.7759E00
833.20	7.9201E00
833.50	7.7497E00
833.80	7.8877E00
834.10	7.9611E00
834.40	7.8318E00
834.70	8.0032E00
835.00	8.0513E00
835.30	8.0208E00
835.60	8.1495E00
835.90	8.2129E00
836.20	8.4174E00
836.50	8.4038E00
836.80	8.4135E00
837.10	8.3616E00
837.40	8.5204E00
837.70	8.5711E00
838.00	8.5713E00
838.30	8.5406E00
838.60	8.8757E00
838.90	8.8625E00
839.19	8.7806E00
839.49	9.1127E00
839.79	8.9946E00
840.09	9.0907E00
840.39	8.9520E00
840.69	9.1193E00
840.99	9.6201E00
841.29	9.4853E00
841.59	9.4941E00
841.88	9.5457E00
842.18	9.6071E00
842.48	9.8472E00
842.78	9.7882E00
843.08	9.9033E00
843.38	9.7687E00
843.68	1.0069E01
843.97	1.0103E01
844.27	1.0148E01
844.57	1.0331E01
844.87	1.0383E01
845.17	1.0278E01
845.47	1.0154E01
845.76	1.0453E01
846.06	1.0631E01
846.36	1.0527E01
846.66	1.0760E01
846.96	1.0692E01
847.25	1.0724E01
847.55	1.0804E01
847.85	1.1080E01
848.15	1.0896E01
848.44	1.1248E01
848.74	1.0971E01
849.04	1.1271E01
849.34	1.1340E01
849.63	1.1581E01
849.93	1.1533E01
850.23	1.1994E01
850.53	1.1500E01
850.82	1.1793E01
851.12	1.1785E01
851.42	1.1658E01
851.71	1.1962E01
852.01	1.2213E01
852.31	1.2435E01
852.61	1.2499E01
852.90	1.2517E01
853.20	1.2637E01
853.50	1.2835E01
853.79	1.3160E01
854.09	1.2690E01
854.39	1.2888E01
854.68	1.3573E01
854.98	1.3406E01
855.28	1.3369E01
855.57	1.3512E01
855.87	1.3553E01
856.17	1.3627E01
856.46	1.3616E01
856.76	1.3724E01
857.05	1.3987E01
857.35	1.4084E01
857.65	1.3916E01
857.94	1.4274E01
858.24	1.4232E01
858.53	1.4589E01
858.83	1.4528E01
859.13	1.4788E01
859.42	1.4632E01
859.72	1.5134E01
860.01	1.5685E01
860.31	1.5300E01
860.60	1.5651E01
860.90	1.5629E01
861.20	1.5853E01
861.49	1.5576E01
861.79	1.6294E01
862.08	1.6345E01
862.38	1.6644E01
862.67	1.6578E01
862.97	1.6697E01
863.26	1.6541E01
863.56	1.7452E01
863.85	1.7326E01
864.15	1.7108E01
864.44	1.7713E01
864.74	1.7527E01
865.03	1.7661E01
865.33	1.7808E01
865.62	1.8250E01
865.92	1.8043E01
866.21	1.9238E01
866.51	1.9076E01
866.80	1.8990E01
867.10	1.9403E01
867.39	1.9091E01
867.69	1.9859E01
867.98	1.9056E01
868.27	1.9710E01
868.57	1.9735E01
868.86	2.0899E01
869.16	2.0581E01
869.45	2.0713E01
869.75	2.0175E01
870.04	2.1033E01
870.33	2.1253E01
870.63	2.1042E01
870.92	2.2056E01
871.22	2.2331E01
871.51	2.1945E01
871.80	2.2244E01
872.10	2.2244E01
>>>>>End Processed Spectral Data<<<<<
