SpectraSuite Data File
++++++++++++++++++++++++++++++++++++
Date: Sat May 16 11:43:18 PDT 2015
User: schluterlab
Dark Spectrum Present: Yes
Reference Spectrum Present: Yes
Number of Sampled Component Spectra: 1
Spectrometers: USB2E3373
Integration Time (usec): 3000 (USB2E3373)
Spectra Averaged: 3 (USB2E3373)
Boxcar Smoothing: 0 (USB2E3373)
Correct for Electrical Dark: No (USB2E3373)
Strobe/Lamp Enabled: No (USB2E3373)
Correct for Detector Non-linearity: No (USB2E3373)
Correct for Stray Light: No (USB2E3373)
Number of Pixels in Processed Spectrum: 2048
>>>>>Begin Processed Spectral Data<<<<<
178.53	0.000
178.91	113.333
179.29	833.333
179.67	-1700.000
180.04	61.538
180.42	1000.000
180.80	625.000
181.18	475.000
181.56	-75.000
181.94	1600.000
182.31	450.000
182.69	-23.077
183.07	-533.333
183.45	900.000
183.83	300.000
184.20	-300.000
184.58	-262.500
184.96	-550.000
185.34	131.250
185.72	-525.000
186.09	350.000
186.47	-237.500
186.85	-287.500
187.23	-62.500
187.61	-325.000
187.98	-250.000
188.36	-137.500
188.74	-137.500
189.12	2100.000
189.49	385.714
189.87	-83.333
190.25	400.000
190.63	21.429
191.00	-222.222
191.38	440.000
191.76	-13.333
192.14	580.000
192.51	-320.000
192.89	-300.000
193.27	0.000
193.65	-188.889
194.02	-100.000
194.40	400.000
194.78	-170.000
195.15	-1700.000
195.53	-190.909
195.91	-366.667
196.29	420.000
196.66	-633.333
197.04	2100.000
197.42	-300.000
197.79	-13.333
198.17	-400.000
198.55	-250.000
198.92	-1200.000
199.30	287.500
199.68	-650.000
200.05	-88.889
200.43	-166.667
200.81	-800.000
201.18	-83.333
201.56	300.000
201.94	-40.000
202.31	-36.364
202.69	-80.000
203.07	-50.000
203.44	900.000
203.82	-350.000
204.19	-200.000
204.57	-50.000
204.95	-1500.000
205.32	-81.250
205.70	700.000
206.08	-1900.000
206.45	-33.333
206.83	-700.000
207.20	-200.000
207.58	-833.333
207.96	-933.333
208.33	-100.000
208.71	-144.444
209.08	190.000
209.46	-114.286
209.84	1250.000
210.21	0.000
210.59	20.000
210.96	1300.000
211.34	-333.333
211.71	-533.333
212.09	300.000
212.46	700.000
212.84	-2600.000
213.22	633.333
213.59	133.333
213.97	-100.000
214.34	180.000
214.72	-90.000
215.09	-533.333
215.47	-216.667
215.84	-80.000
216.22	-160.000
216.59	-60.000
216.97	-625.000
217.34	950.000
217.72	-185.714
218.09	-266.667
218.47	-171.429
218.84	185.714
219.22	-171.429
219.59	0.000
219.97	257.143
220.34	300.000
220.72	212.500
221.09	-100.000
221.47	0.000
221.84	833.333
222.22	-200.000
222.59	1300.000
222.97	-275.000
223.34	-850.000
223.72	-666.667
224.09	-35.714
224.46	-550.000
224.84	-64.286
225.21	-228.571
225.59	0.000
225.96	-162.500
226.34	0.000
226.71	-166.667
227.08	15.000
227.46	1500.000
227.83	-214.286
228.21	-225.000
228.58	700.000
228.95	-62.500
229.33	-2500.000
229.70	-300.000
230.08	-1100.000
230.45	-33.333
230.82	-133.333
231.20	-700.000
231.57	-600.000
231.95	1400.000
232.32	33.333
232.69	-188.889
233.07	-285.714
233.44	-1000.000
233.81	-53.333
234.19	-111.111
234.56	-75.000
234.93	15.625
235.31	-271.429
235.68	-164.286
236.05	-35.294
236.43	-68.182
236.80	-25.806
237.17	-87.500
237.55	-42.857
237.92	-104.545
238.29	-25.714
238.67	11.765
239.04	-5.556
239.41	-64.516
239.79	-30.769
240.16	-38.095
240.53	-30.909
240.91	-38.462
241.28	-7.273
241.65	9.231
242.02	-21.311
242.40	-27.869
242.77	-16.667
243.14	-37.288
243.51	-30.000
243.89	-26.582
244.26	-16.854
244.63	-3.158
245.00	-17.895
245.38	4.237
245.75	-10.619
246.12	-1.600
246.49	2.362
246.87	-15.447
247.24	-13.559
247.61	-21.186
247.98	-7.746
248.36	-11.888
248.73	-12.025
249.10	-5.732
249.47	-4.678
249.84	-5.682
250.22	-16.667
250.59	-6.215
250.96	-2.618
251.33	-3.318
251.70	-1.923
252.08	1.422
252.45	-3.318
252.82	-10.476
253.19	-2.128
253.56	-7.258
253.94	-5.485
254.31	-7.296
254.68	-3.659
255.05	-0.403
255.42	-3.571
255.79	-7.885
256.16	-5.490
256.54	-2.206
256.91	-4.167
257.28	-4.396
257.65	-4.255
258.02	-2.516
258.39	-3.010
258.76	-3.716
259.14	-5.247
259.51	-1.639
259.88	-0.610
260.25	-2.484
260.62	-6.109
260.99	-5.341
261.36	-1.829
261.73	-5.780
262.10	-1.111
262.47	-1.709
262.85	-0.286
263.22	-6.304
263.59	-7.692
263.96	-3.188
264.33	-2.981
264.70	-0.829
265.07	0.549
265.44	-2.584
265.81	-2.584
266.18	-4.557
266.55	-4.412
266.92	-0.252
267.29	-0.242
267.66	-1.975
268.03	-1.449
268.40	-1.643
268.77	-3.373
269.14	-2.784
269.51	-1.609
269.88	-4.358
270.25	-4.662
270.62	-2.975
270.99	-2.027
271.36	-1.399
271.73	-3.363
272.10	-2.288
272.47	-5.111
272.84	0.667
273.21	-1.147
273.58	-4.396
273.95	-1.974
274.32	-1.131
274.69	0.438
275.06	-0.409
275.43	-4.688
275.80	-1.833
276.17	-0.209
276.54	-0.815
276.91	-2.675
277.28	-2.231
277.65	-3.099
278.02	-3.758
278.39	-0.589
278.76	-3.187
279.13	-0.791
279.50	-1.789
279.87	-2.114
280.23	-0.405
280.60	-1.988
280.97	-1.748
281.34	-2.901
281.71	0.000
282.08	-1.815
282.45	-5.703
282.82	-2.132
283.19	-0.364
283.56	2.015
283.92	0.177
284.29	-1.487
284.66	-0.180
285.03	1.604
285.40	-2.214
285.77	-1.053
286.14	-0.542
286.51	-3.375
286.87	0.544
287.24	-1.706
287.61	-1.653
287.98	-2.946
288.35	-1.983
288.72	-1.188
289.08	-3.729
289.45	-2.357
289.82	-2.249
290.19	0.657
290.56	-2.975
290.93	-2.385
291.29	-2.431
291.66	-2.415
292.03	0.628
292.40	0.452
292.77	-1.087
293.13	-1.789
293.50	0.149
293.87	-1.687
294.24	-0.302
294.60	-2.879
294.97	0.303
295.34	-1.185
295.71	-1.935
296.08	-2.611
296.44	-1.288
296.81	-0.997
297.18	-0.845
297.55	-0.424
297.91	-1.116
298.28	-0.274
298.65	-2.510
299.02	1.070
299.38	-1.738
299.75	0.951
300.12	0.385
300.48	-0.512
300.85	-1.966
301.22	0.259
301.59	-0.130
301.95	0.378
302.32	-2.086
302.69	-0.245
303.05	-0.977
303.42	-1.125
303.79	0.239
304.15	0.000
304.52	-1.167
304.89	-0.472
305.25	-1.099
305.62	-0.823
305.99	1.531
306.35	0.999
306.72	-1.595
307.09	0.341
307.45	-1.249
307.82	-0.670
308.19	-0.224
308.55	-0.545
308.92	-2.041
309.29	-0.865
309.65	0.106
310.02	-0.432
310.38	-1.081
310.75	-0.307
311.12	0.620
311.48	-0.209
311.85	0.000
312.22	-0.927
312.58	0.305
312.95	0.510
313.31	1.798
313.68	0.503
314.05	1.780
314.41	-1.610
314.78	-1.099
315.14	0.197
315.51	0.304
315.87	0.387
316.24	0.097
316.61	1.152
316.97	0.398
317.34	0.000
317.70	-0.093
318.07	1.213
318.43	-0.281
318.80	1.033
319.16	0.094
319.53	0.188
319.89	-0.188
320.26	0.000
320.62	-0.096
320.99	0.697
321.35	-1.281
321.72	-1.638
322.08	1.484
322.45	-0.891
322.81	0.961
323.18	-0.480
323.54	0.647
323.91	0.556
324.27	-0.285
324.64	-0.274
325.00	0.349
325.37	1.176
325.73	0.962
326.10	-0.886
326.46	0.263
326.83	-0.255
327.19	0.083
327.56	1.618
327.92	-0.085
328.29	0.952
328.65	-0.727
329.01	0.177
329.38	0.178
329.74	0.824
330.11	0.363
330.47	0.182
330.84	1.467
331.20	-0.090
331.56	-0.365
331.93	0.266
332.29	0.457
332.66	0.790
333.02	1.267
333.38	0.358
333.75	0.980
334.11	-0.267
334.48	0.000
334.84	1.137
335.20	0.532
335.57	0.632
335.93	0.806
336.29	0.177
336.66	-0.441
337.02	0.360
337.38	0.178
337.75	0.351
338.11	0.358
338.47	0.623
338.84	-0.635
339.20	0.176
339.56	0.713
339.93	0.088
340.29	-0.354
340.65	0.350
341.02	0.675
341.38	1.011
341.74	0.762
342.11	0.512
342.47	0.086
342.83	0.420
343.20	-0.085
343.56	-0.408
343.92	1.753
344.28	1.093
344.65	-0.330
345.01	1.008
345.37	1.080
345.73	0.327
346.10	-0.164
346.46	-0.650
346.82	1.283
347.19	0.000
347.55	-0.401
347.91	1.024
348.27	0.000
348.63	1.050
349.00	1.273
349.36	-0.078
349.72	0.637
350.08	0.160
350.45	0.946
350.81	0.876
351.17	-0.161
351.53	-0.398
351.89	0.485
352.26	0.465
352.62	1.459
352.98	0.237
353.34	0.799
353.70	-0.541
354.07	0.236
354.43	1.186
354.79	0.555
355.15	0.399
355.51	0.078
355.87	-0.791
356.24	0.000
356.60	0.161
356.96	0.385
357.32	0.000
357.68	0.536
358.04	1.078
358.40	0.155
358.77	0.000
359.13	0.153
359.49	0.302
359.85	0.229
360.21	0.761
360.57	0.904
360.93	0.667
361.29	0.075
361.66	-0.076
362.02	0.000
362.38	0.880
362.74	0.220
363.10	-0.143
363.46	1.638
363.82	0.802
364.18	1.085
364.54	1.501
364.90	-0.070
365.26	0.000
365.62	0.428
365.98	1.351
366.35	0.775
366.71	0.423
367.07	1.129
367.43	1.167
367.79	1.375
368.15	-0.213
368.51	0.909
368.87	1.923
369.23	0.842
369.59	1.597
369.95	1.128
370.31	1.125
370.67	-0.506
371.03	0.583
371.39	1.273
371.75	1.359
372.11	0.574
372.47	0.578
372.83	1.669
373.19	1.071
373.55	1.126
373.91	0.142
374.27	0.274
374.63	1.173
374.99	1.043
375.35	0.538
375.71	1.621
376.07	0.411
376.42	-0.199
376.78	1.111
377.14	0.339
377.50	0.967
377.86	1.560
378.22	0.440
378.58	0.618
378.94	0.740
379.30	0.731
379.66	1.396
380.02	1.664
380.38	1.148
380.74	0.821
381.09	1.699
381.45	0.776
381.81	1.210
382.17	1.441
382.53	1.398
382.89	1.555
383.25	1.505
383.61	1.415
383.97	2.327
384.32	1.252
384.68	1.572
385.04	1.329
385.40	1.035
385.76	1.585
386.12	1.874
386.48	2.290
386.83	1.656
387.19	1.614
387.55	2.302
387.91	1.423
388.27	1.086
388.62	1.142
388.98	1.393
389.34	1.591
389.70	1.583
390.06	1.243
390.42	1.859
390.77	1.199
391.13	1.491
391.49	1.185
391.85	1.995
392.20	1.456
392.56	1.405
392.92	1.426
393.28	2.009
393.64	1.383
393.99	2.400
394.35	2.129
394.71	1.729
395.07	1.569
395.42	1.430
395.78	1.320
396.14	2.243
396.50	1.223
396.85	1.912
397.21	1.458
397.57	1.824
397.92	2.342
398.28	2.333
398.64	1.844
399.00	1.798
399.35	1.466
399.71	2.149
400.07	2.149
400.42	1.825
400.78	1.491
401.14	1.796
401.49	1.061
401.85	1.159
402.21	1.609
402.57	2.245
402.92	2.517
403.28	2.022
403.63	1.318
403.99	1.740
404.35	0.906
404.70	2.048
405.06	2.134
405.42	0.984
405.77	1.357
406.13	1.533
406.49	1.618
406.84	1.200
407.20	1.885
407.55	1.837
407.91	1.036
408.27	2.083
408.62	1.563
408.98	1.637
409.34	1.402
409.69	2.457
410.05	1.698
410.40	1.533
410.76	1.956
411.11	1.122
411.47	1.598
411.83	2.384
412.18	0.928
412.54	1.647
412.89	1.762
413.25	0.826
413.60	1.276
413.96	0.863
414.31	1.223
414.67	0.889
415.03	1.294
415.38	1.171
415.74	1.611
416.09	0.831
416.45	0.397
416.80	1.625
417.16	0.664
417.51	2.101
417.87	0.971
418.22	1.454
418.58	1.926
418.93	2.330
419.29	0.941
419.64	1.382
420.00	2.673
420.35	1.124
420.71	1.741
421.06	2.130
421.42	1.112
421.77	2.233
422.12	1.903
422.48	1.764
422.83	2.563
423.19	1.559
423.54	1.902
423.90	2.082
424.25	1.867
424.61	2.533
424.96	1.814
425.31	2.180
425.67	1.777
426.02	1.492
426.38	2.178
426.73	1.987
427.09	1.900
427.44	2.045
427.79	1.221
428.15	2.454
428.50	2.815
428.85	2.398
429.21	1.992
429.56	2.396
429.92	2.605
430.27	2.542
430.62	2.194
430.98	2.405
431.33	2.028
431.68	2.627
432.04	2.518
432.39	2.393
432.74	2.518
433.10	1.745
433.45	1.900
433.80	1.680
434.16	2.633
434.51	2.301
434.86	2.929
435.22	2.227
435.57	1.958
435.92	2.286
436.28	2.789
436.63	1.752
436.98	1.604
437.34	3.190
437.69	2.275
438.04	2.326
438.39	3.129
438.75	2.154
439.10	3.109
439.45	1.931
439.81	2.771
440.16	2.669
440.51	1.941
440.86	2.082
441.22	1.824
441.57	2.684
441.92	2.251
442.27	3.030
442.63	2.682
442.98	1.524
443.33	2.361
443.68	2.501
444.03	2.701
444.39	3.084
444.74	2.258
445.09	2.412
445.44	2.420
445.79	2.244
446.15	2.519
446.50	1.905
446.85	2.360
447.20	2.758
447.55	2.873
447.91	2.190
448.26	2.346
448.61	2.547
448.96	2.969
449.31	1.747
449.66	2.748
450.02	2.161
450.37	2.145
450.72	2.712
451.07	2.200
451.42	2.478
451.77	2.813
452.12	2.384
452.47	2.582
452.83	2.271
453.18	2.404
453.53	3.420
453.88	2.811
454.23	2.237
454.58	3.045
454.93	2.519
455.28	2.549
455.63	2.518
455.98	3.133
456.34	2.351
456.69	2.814
457.04	3.012
457.39	2.333
457.74	2.481
458.09	2.784
458.44	3.118
458.79	2.635
459.14	2.681
459.49	2.191
459.84	2.642
460.19	2.566
460.54	3.146
460.89	3.027
461.24	2.914
461.59	3.283
461.94	2.355
462.29	2.978
462.64	2.569
462.99	3.146
463.34	2.566
463.69	2.226
464.04	2.460
464.39	2.688
464.74	3.191
465.09	2.766
465.44	2.876
465.79	3.215
466.14	2.589
466.49	3.109
466.84	2.881
467.19	2.930
467.54	2.215
467.89	2.713
468.24	2.850
468.59	2.186
468.94	2.444
469.29	2.599
469.64	2.898
469.99	2.768
470.34	2.472
470.68	3.561
471.03	3.372
471.38	2.222
471.73	2.517
472.08	3.079
472.43	2.059
472.78	2.467
473.13	1.590
473.48	3.957
473.83	2.481
474.17	2.611
474.52	3.069
474.87	3.263
475.22	2.596
475.57	3.111
475.92	3.078
476.27	2.400
476.61	2.704
476.96	2.851
477.31	2.583
477.66	2.490
478.01	2.917
478.36	3.457
478.70	2.349
479.05	3.624
479.40	3.161
479.75	2.752
480.10	3.075
480.45	2.515
480.79	3.159
481.14	3.161
481.49	3.388
481.84	2.913
482.19	3.655
482.53	3.125
482.88	2.895
483.23	3.146
483.58	3.099
483.92	3.392
484.27	2.437
484.62	2.765
484.97	2.962
485.31	3.040
485.66	2.889
486.01	3.346
486.36	3.229
486.70	3.431
487.05	3.114
487.40	3.125
487.75	3.200
488.09	2.532
488.44	3.011
488.79	3.042
489.13	3.119
489.48	3.385
489.83	3.100
490.17	3.178
490.52	3.351
490.87	2.587
491.22	2.849
491.56	3.704
491.91	2.910
492.26	3.113
492.60	3.140
492.95	2.999
493.30	3.525
493.64	2.774
493.99	2.390
494.34	2.619
494.68	3.792
495.03	2.677
495.37	2.606
495.72	3.291
496.07	4.036
496.41	3.242
496.76	3.607
497.11	2.873
497.45	3.161
497.80	2.401
498.14	2.849
498.49	2.461
498.84	2.864
499.18	3.119
499.53	2.825
499.87	2.606
500.22	3.137
500.56	3.452
500.91	3.005
501.26	3.688
501.60	2.648
501.95	3.527
502.29	3.543
502.64	4.149
502.98	2.875
503.33	3.242
503.67	2.874
504.02	2.656
504.36	3.186
504.71	2.736
505.06	2.396
505.40	3.743
505.75	2.744
506.09	3.640
506.44	3.158
506.78	3.462
507.13	3.193
507.47	3.912
507.82	2.943
508.16	3.523
508.51	3.040
508.85	3.106
509.19	2.355
509.54	3.330
509.88	3.830
510.23	3.302
510.57	3.862
510.92	3.545
511.26	2.871
511.61	3.834
511.95	3.502
512.30	3.683
512.64	2.782
512.98	2.915
513.33	2.856
513.67	3.350
514.02	3.300
514.36	3.324
514.70	2.773
515.05	3.545
515.39	3.172
515.74	4.130
516.08	2.997
516.42	3.853
516.77	3.293
517.11	3.432
517.46	3.409
517.80	3.430
518.14	2.899
518.49	2.989
518.83	3.442
519.17	3.316
519.52	3.586
519.86	3.883
520.20	3.667
520.55	3.077
520.89	2.693
521.23	4.029
521.58	2.571
521.92	3.103
522.26	3.238
522.61	3.295
522.95	2.808
523.29	3.636
523.64	3.873
523.98	3.310
524.32	3.583
524.66	2.795
525.01	3.083
525.35	3.157
525.69	3.448
526.04	3.590
526.38	3.692
526.72	3.001
527.06	3.125
527.41	2.772
527.75	3.036
528.09	3.177
528.43	3.475
528.78	3.706
529.12	3.905
529.46	3.351
529.80	3.357
530.15	3.799
530.49	3.558
530.83	3.536
531.17	2.761
531.51	2.947
531.86	3.687
532.20	3.104
532.54	3.610
532.88	3.096
533.22	3.075
533.57	3.329
533.91	3.745
534.25	3.457
534.59	2.686
534.93	2.302
535.27	3.839
535.62	4.348
535.96	3.814
536.30	2.291
536.64	4.050
536.98	4.025
537.32	2.903
537.66	3.666
538.01	3.093
538.35	3.784
538.69	3.075
539.03	3.318
539.37	3.393
539.71	3.402
540.05	3.084
540.39	3.393
540.73	3.455
541.07	3.415
541.42	2.633
541.76	2.392
542.10	4.119
542.44	3.398
542.78	3.935
543.12	3.802
543.46	2.603
543.80	3.010
544.14	2.351
544.48	3.740
544.82	3.180
545.16	3.555
545.50	2.490
545.84	2.990
546.18	3.606
546.52	3.343
546.86	2.849
547.20	2.813
547.54	3.306
547.88	3.318
548.22	2.425
548.56	2.939
548.90	3.032
549.24	2.242
549.58	2.470
549.92	2.473
550.26	3.757
550.60	2.987
550.94	3.431
551.28	3.085
551.62	2.585
551.96	2.822
552.30	3.066
552.64	4.082
552.98	2.663
553.32	2.453
553.66	3.100
554.00	3.198
554.34	2.383
554.68	3.436
555.02	4.124
555.36	2.876
555.69	1.862
556.03	3.439
556.37	2.774
556.71	3.651
557.05	2.143
557.39	2.895
557.73	3.720
558.07	3.466
558.41	1.945
558.75	2.205
559.08	1.634
559.42	3.905
559.76	2.454
560.10	2.759
560.44	3.829
560.78	3.897
561.12	2.622
561.45	3.630
561.79	3.484
562.13	3.226
562.47	3.221
562.81	2.405
563.15	2.869
563.48	2.557
563.82	2.434
564.16	3.381
564.50	2.419
564.84	3.373
565.17	2.918
565.51	3.390
565.85	3.448
566.19	3.426
566.52	2.544
566.86	2.402
567.20	3.814
567.54	4.194
567.88	3.183
568.21	2.852
568.55	3.075
568.89	2.982
569.23	2.962
569.56	3.741
569.90	3.777
570.24	2.969
570.57	2.953
570.91	3.298
571.25	3.372
571.59	3.466
571.92	3.274
572.26	3.295
572.60	3.506
572.93	2.973
573.27	3.354
573.61	3.069
573.95	3.353
574.28	3.211
574.62	3.279
574.96	3.141
575.29	3.201
575.63	3.292
575.97	3.101
576.30	3.289
576.64	3.368
576.98	3.085
577.31	3.194
577.65	3.623
577.98	3.197
578.32	3.305
578.66	3.316
578.99	3.033
579.33	3.165
579.67	3.069
580.00	3.373
580.34	3.131
580.67	3.383
581.01	2.994
581.35	3.324
581.68	3.244
582.02	3.562
582.35	3.211
582.69	3.280
583.02	3.625
583.36	3.480
583.70	3.226
584.03	3.610
584.37	2.923
584.70	3.013
585.04	3.544
585.37	3.174
585.71	3.556
586.04	3.495
586.38	3.261
586.72	3.608
587.05	3.682
587.39	3.606
587.72	3.770
588.06	3.466
588.39	3.218
588.73	3.591
589.06	3.165
589.40	3.882
589.73	3.506
590.07	3.350
590.40	3.764
590.73	3.239
591.07	3.115
591.40	3.033
591.74	3.519
592.07	3.243
592.41	3.439
592.74	3.766
593.08	3.913
593.41	3.257
593.75	2.934
594.08	3.235
594.41	3.253
594.75	3.473
595.08	3.083
595.42	3.613
595.75	3.197
596.09	3.066
596.42	3.273
596.75	3.062
597.09	3.473
597.42	3.186
597.75	3.499
598.09	3.254
598.42	3.005
598.76	3.613
599.09	3.078
599.42	2.807
599.76	3.398
600.09	3.626
600.42	3.684
600.76	3.126
601.09	3.076
601.42	3.047
601.76	3.972
602.09	3.027
602.42	3.374
602.76	2.784
603.09	2.782
603.42	3.465
603.76	3.391
604.09	3.524
604.42	3.455
604.76	3.402
605.09	3.345
605.42	3.901
605.75	3.019
606.09	3.362
606.42	3.310
606.75	3.821
607.09	3.044
607.42	3.521
607.75	2.914
608.08	3.254
608.42	3.264
608.75	3.037
609.08	2.582
609.41	2.790
609.75	2.779
610.08	3.382
610.41	3.373
610.74	3.530
611.07	2.941
611.41	3.379
611.74	3.753
612.07	3.491
612.40	3.358
612.73	3.231
613.07	3.027
613.40	3.612
613.73	2.997
614.06	2.910
614.39	2.537
614.72	2.793
615.06	3.098
615.39	2.387
615.72	2.933
616.05	2.209
616.38	2.902
616.71	2.943
617.05	3.559
617.38	3.406
617.71	2.334
618.04	2.795
618.37	2.767
618.70	3.129
619.03	2.844
619.36	3.594
619.69	3.661
620.03	3.512
620.36	2.391
620.69	2.441
621.02	2.740
621.35	2.097
621.68	2.951
622.01	1.699
622.34	3.261
622.67	1.953
623.00	2.448
623.33	2.910
623.66	2.363
623.99	3.158
624.32	2.827
624.65	2.649
624.99	2.315
625.32	2.620
625.65	2.642
625.98	2.426
626.31	3.100
626.64	2.678
626.97	2.397
627.30	2.809
627.63	1.727
627.96	2.785
628.29	1.195
628.62	1.910
628.95	3.150
629.28	2.256
629.61	2.061
629.94	2.552
630.26	1.690
630.59	2.412
630.92	2.503
631.25	4.335
631.58	2.011
631.91	1.383
632.24	1.556
632.57	2.556
632.90	1.724
633.23	1.519
633.56	1.170
633.89	2.005
634.22	2.007
634.55	1.442
634.88	1.814
635.20	1.248
635.53	3.181
635.86	1.259
636.19	2.198
636.52	2.867
636.85	0.963
637.18	0.000
637.51	3.098
637.83	0.533
638.16	1.711
638.49	0.138
638.82	2.059
639.15	2.205
639.48	1.167
639.81	2.075
640.13	0.946
640.46	3.704
640.79	0.980
641.12	2.257
641.45	1.578
641.77	0.000
642.10	2.266
642.43	3.035
642.76	1.417
643.09	0.794
643.41	0.476
643.74	2.544
644.07	1.872
644.40	1.621
644.73	1.485
645.05	1.002
645.38	1.987
645.71	1.546
646.04	1.513
646.36	-0.349
646.69	0.865
647.02	0.000
647.35	0.722
647.67	0.000
648.00	2.460
648.33	3.204
648.66	0.161
648.98	1.592
649.31	2.154
649.64	-0.312
649.96	2.198
650.29	-1.148
650.62	0.172
650.94	2.361
651.27	1.386
651.60	1.384
651.92	1.712
652.25	1.836
652.58	-0.341
652.90	0.803
653.23	1.129
653.56	1.003
653.88	0.820
654.21	1.678
654.54	2.159
654.86	1.124
655.19	0.716
655.52	2.948
655.84	3.290
656.17	3.324
656.49	4.846
656.82	5.085
657.15	3.729
657.47	2.731
657.80	2.106
658.13	2.326
658.45	3.206
658.78	2.625
659.10	2.939
659.43	2.603
659.75	2.400
660.08	2.344
660.41	2.337
660.73	1.760
661.06	3.043
661.38	1.429
661.71	-1.338
662.03	1.613
662.36	-0.213
662.68	-0.211
663.01	1.274
663.33	-0.907
663.66	1.073
663.98	0.670
664.31	-1.342
664.63	1.327
664.96	0.434
665.28	-1.085
665.61	-1.480
665.93	3.086
666.26	1.012
666.58	1.871
666.91	-1.114
667.23	2.632
667.56	-1.587
667.88	3.394
668.21	2.074
668.53	-1.402
668.86	0.231
669.18	0.228
669.50	1.168
669.83	0.730
670.15	-1.345
670.48	-1.168
670.80	-1.139
671.13	-3.160
671.45	-2.252
671.77	2.141
672.10	1.578
672.42	3.875
672.75	-1.273
673.07	-1.261
673.39	2.732
673.72	0.000
674.04	-0.425
674.37	-1.031
674.69	4.098
675.01	-0.213
675.34	0.651
675.66	2.376
675.98	0.220
676.31	1.584
676.63	2.069
676.95	0.442
677.28	-1.160
677.60	0.905
677.92	2.643
678.25	-0.438
678.57	1.440
678.89	-1.677
679.22	-1.258
679.54	2.959
679.86	-2.200
680.18	-0.380
680.51	0.186
680.83	1.143
681.15	-0.578
681.48	1.014
681.80	0.000
682.12	0.000
682.44	2.554
682.77	-3.030
683.09	1.468
683.41	-1.327
683.73	0.457
684.06	1.075
684.38	0.628
684.70	-1.440
685.02	0.984
685.34	-0.780
685.67	-1.326
685.99	-3.403
686.31	1.975
686.63	0.887
686.96	0.924
687.28	-0.193
687.60	-1.367
687.92	-2.335
688.24	-0.984
688.56	-1.002
688.89	-0.855
689.21	1.313
689.53	1.379
689.85	0.668
690.17	0.224
690.49	1.386
690.82	-1.446
691.14	-0.472
691.46	0.665
691.78	1.982
692.10	1.271
692.42	-2.444
692.74	0.429
693.06	-0.449
693.39	-0.895
693.71	-0.226
694.03	3.672
694.35	0.226
694.67	-1.418
694.99	-3.325
695.31	-2.041
695.63	-3.571
695.95	0.248
696.27	2.743
696.59	-0.535
696.91	-1.404
697.23	2.344
697.56	-1.923
697.88	0.000
698.20	0.000
698.52	-0.897
698.84	0.485
699.16	0.238
699.48	-2.000
699.80	-1.253
700.12	2.519
700.44	-2.514
700.76	-1.749
701.08	-1.453
701.40	-1.511
701.72	0.000
702.04	-1.603
702.36	1.506
702.68	-5.090
703.00	-1.449
703.32	-4.585
703.64	2.647
703.96	1.453
704.28	-2.071
704.60	-3.165
704.91	-0.952
705.23	0.000
705.55	-2.365
705.87	0.341
706.19	-1.736
706.51	-2.431
706.83	0.656
707.15	-2.229
707.47	3.581
707.79	0.515
708.11	-0.763
708.43	1.496
708.74	3.117
709.06	-2.228
709.38	-2.011
709.70	-2.500
710.02	3.988
710.34	-2.640
710.66	1.905
710.98	-0.946
711.29	-4.839
711.61	-4.473
711.93	-2.623
712.25	0.332
712.57	-4.181
712.89	1.439
713.20	-0.344
713.52	-4.478
713.84	-3.559
714.16	-4.590
714.48	-2.540
714.80	-2.462
715.11	1.153
715.43	3.916
715.75	0.935
716.07	-2.951
716.39	-2.007
716.70	4.181
717.02	-2.593
717.34	-4.198
717.66	-4.149
717.97	-9.016
718.29	-3.361
718.61	-3.175
718.93	-2.151
719.24	-5.515
719.56	-6.038
719.88	0.364
720.20	-4.494
720.51	0.000
720.83	-7.229
721.15	-5.328
721.46	-0.392
721.78	-1.916
722.10	1.600
722.42	-1.653
722.73	-5.976
723.05	-4.016
723.37	0.000
723.68	-1.619
724.00	2.846
724.32	-0.412
724.63	-5.394
724.95	-5.785
725.27	-5.263
725.58	-4.741
725.90	0.794
726.22	1.845
726.53	-1.521
726.85	-5.490
727.16	-1.880
727.48	-6.923
727.80	-5.328
728.11	-7.143
728.43	-5.372
728.74	-4.297
729.06	-0.379
729.38	-3.502
729.69	-5.512
730.01	-4.724
730.32	-1.992
730.64	-4.396
730.96	-2.985
731.27	-2.143
731.59	1.286
731.90	1.227
732.22	-1.534
732.53	1.325
732.85	-5.369
733.16	-3.986
733.48	-2.091
733.80	-5.338
734.11	-1.379
734.43	0.000
734.74	1.780
735.06	-1.881
735.37	0.612
735.69	-5.484
736.00	-3.367
736.32	-2.980
736.63	-4.828
736.95	-2.174
737.26	0.993
737.58	-5.396
737.89	2.151
738.21	-4.511
738.52	-3.462
738.83	1.953
739.15	-4.274
739.46	-1.613
739.78	0.000
740.09	-1.748
740.41	-4.196
740.72	-2.555
741.04	-4.365
741.35	-8.658
741.66	-1.852
741.98	-1.429
742.29	0.939
742.61	-10.160
742.92	-0.467
743.23	-7.895
743.55	-4.054
743.86	0.889
744.18	-6.190
744.49	-2.956
744.80	-2.538
745.12	-2.062
745.43	-5.528
745.74	-3.883
746.06	-0.488
746.37	3.084
746.68	-1.990
747.00	-0.524
747.31	-5.769
747.62	-0.922
747.94	-2.620
748.25	-0.930
748.56	-2.857
748.88	-13.043
749.19	-2.817
749.50	0.980
749.82	3.111
750.13	1.762
750.44	-0.407
750.75	-4.000
751.07	1.071
751.38	-1.107
751.69	-6.489
752.01	-2.308
752.32	-5.058
752.63	-6.538
752.94	-5.556
753.26	0.870
753.57	-0.446
753.88	-5.603
754.19	-2.075
754.51	-1.563
754.82	-3.162
755.13	-2.881
755.44	-4.132
755.75	0.412
756.07	-7.631
756.38	-1.953
756.69	-2.888
757.00	-0.697
757.31	-2.685
757.63	-1.869
757.94	-4.046
758.25	-0.872
758.56	1.348
758.87	-2.273
759.18	-2.667
759.50	2.135
759.81	-7.299
760.12	-7.095
760.43	3.560
760.74	-1.875
761.05	-1.966
761.36	-0.299
761.67	-1.479
761.99	-0.323
762.30	-1.449
762.61	-2.264
762.92	1.794
763.23	-3.791
763.54	-3.111
763.85	3.376
764.16	-7.347
764.47	-2.119
764.78	-2.247
765.10	-0.719
765.41	-2.258
765.72	0.000
766.03	-8.481
766.34	-3.383
766.65	-7.287
766.96	-8.500
767.27	-2.604
767.58	-4.070
767.89	0.000
768.20	2.454
768.51	-3.825
768.82	-8.649
769.13	-6.500
769.44	-8.772
769.75	-1.732
770.06	-4.587
770.37	-6.103
770.68	-6.771
770.99	-8.416
771.30	-7.767
771.61	-5.556
771.92	-3.896
772.23	-3.271
772.54	-9.574
772.85	-13.609
773.16	-6.707
773.47	-3.012
773.78	-0.549
774.09	-10.667
774.39	-6.790
774.70	-2.013
775.01	-11.594
775.32	-13.433
775.63	-22.314
775.94	-4.511
776.25	2.857
776.56	-9.016
776.87	-6.195
777.18	-13.274
777.48	-11.818
777.79	-15.652
778.10	-14.679
778.41	-17.797
778.72	-7.438
779.03	-0.746
779.34	-4.511
779.65	-5.229
779.95	-1.449
780.26	-6.122
780.57	-19.828
780.88	-10.185
781.19	-13.131
781.50	-13.600
781.80	-11.111
782.11	-5.769
782.42	-8.434
782.73	-13.869
783.04	-6.081
783.34	-10.606
783.65	-14.729
783.96	-4.878
784.27	-9.402
784.57	-15.447
784.88	-3.252
785.19	-0.877
785.50	-20.619
785.81	-9.524
786.11	-21.569
786.42	-10.000
786.73	-13.514
787.04	3.960
787.34	-10.476
787.65	-12.381
787.96	-9.804
788.26	-9.009
788.57	0.806
788.88	-17.969
789.19	-17.094
789.49	-5.042
789.80	-6.838
790.11	-7.965
790.41	-9.091
790.72	-0.943
791.03	-19.444
791.33	-9.211
791.64	-6.452
791.95	-10.667
792.25	-18.571
792.56	-7.317
792.87	7.143
793.17	-21.053
793.48	-17.568
793.79	-15.493
794.09	-18.987
794.40	-21.277
794.70	-1.869
795.01	-19.298
795.32	-7.273
795.62	-9.821
795.93	-15.464
796.23	-21.978
796.54	4.211
796.85	-13.699
797.15	-18.056
797.46	-13.699
797.76	-11.268
798.07	-7.500
798.37	-16.176
798.68	-4.286
798.99	4.286
799.29	1.316
799.60	-28.333
799.90	-22.222
800.21	-9.375
800.51	-28.571
800.82	-9.836
801.12	-19.298
801.43	-21.127
801.73	-23.729
802.04	-19.672
802.34	-20.000
802.65	-21.154
802.95	-22.222
803.26	-47.500
803.56	-19.231
803.87	-47.368
804.17	-12.903
804.48	-12.308
804.78	-48.718
805.09	-30.233
805.39	-53.125
805.70	-32.075
806.00	7.018
806.30	-2.703
806.61	-7.353
806.91	-13.580
807.22	-8.000
807.52	-10.448
807.83	-30.645
808.13	-12.698
808.43	-43.636
808.74	-13.636
809.04	-13.208
809.35	-15.068
809.65	-24.561
809.95	-1.471
810.26	-23.529
810.56	-30.000
810.86	-20.408
811.17	-25.714
811.47	-11.538
811.77	-67.742
812.08	-89.474
812.38	-33.333
812.69	-41.304
812.99	-35.484
813.29	-4.762
813.59	-114.815
813.90	-21.277
814.20	-48.837
814.50	-12.500
814.81	-11.667
815.11	-36.585
815.41	-46.667
815.72	-11.429
816.02	-38.889
816.32	-15.385
816.62	-27.027
816.93	-64.706
817.23	-21.739
817.53	-55.882
817.84	-29.412
818.14	-62.500
818.44	-24.138
818.74	-80.645
819.04	-48.148
819.35	-30.000
819.65	-32.000
819.95	-40.000
820.25	-60.000
820.56	-50.000
820.86	-57.500
821.16	6.383
821.46	0.000
821.76	-71.795
822.07	-65.000
822.37	-32.558
822.67	-53.333
822.97	-27.027
823.27	-10.811
823.57	-44.000
823.88	-35.135
824.18	-133.333
824.48	-76.923
824.78	-146.154
825.08	-43.478
825.38	-87.500
825.69	-58.333
825.99	-115.000
826.29	-27.027
826.59	-58.824
826.89	-56.000
827.19	-28.571
827.49	15.789
827.79	-53.125
828.09	-50.000
828.39	-13.043
828.70	-72.414
829.00	-55.172
829.30	-27.778
829.60	-6.250
829.90	-50.000
830.20	-53.846
830.50	-104.762
830.80	-42.857
831.10	-5.128
831.40	-180.952
831.70	-41.176
832.00	-45.833
832.30	-63.158
832.60	-62.500
832.90	-150.000
833.20	-194.118
833.50	-46.667
833.80	-113.333
834.10	-60.000
834.40	-79.167
834.70	-22.222
835.00	-30.769
835.30	-125.000
835.60	-51.724
835.90	-133.333
836.20	-272.727
836.50	-175.000
836.80	-20.000
837.10	31.429
837.40	-47.059
837.70	-236.364
838.00	-79.167
838.30	-143.750
838.60	-47.619
838.90	-30.000
839.19	-60.870
839.49	-47.826
839.79	-94.444
840.09	-86.957
840.39	-54.545
840.69	-75.000
840.99	-47.368
841.29	-112.500
841.59	-100.000
841.88	-133.333
842.18	-16.667
842.48	-88.235
842.78	-41.379
843.08	-100.000
843.38	-30.769
843.68	-144.444
843.97	-53.846
844.27	-118.182
844.57	-340.000
844.87	-24.000
845.17	-160.000
845.47	-164.286
845.76	-288.889
846.06	0.000
846.36	-550.000
846.66	-200.000
846.96	-57.895
847.25	-41.667
847.55	-166.667
847.85	-80.000
848.15	-80.000
848.44	-26.923
848.74	42.105
849.04	966.667
849.34	-44.444
849.63	-147.368
849.93	0.000
850.23	-105.000
850.53	-61.905
850.82	-48.000
851.12	-26.316
851.42	-1100.000
851.71	-50.000
852.01	-125.000
852.31	-70.588
852.61	-33.333
852.90	-66.667
853.20	-283.333
853.50	-44.444
853.79	-26.316
854.09	-100.000
854.39	-53.571
854.68	-34.783
854.98	-308.333
855.28	-62.069
855.57	-106.250
855.87	-25.000
856.17	-53.333
856.46	-13.793
856.76	-120.000
857.05	-117.647
857.35	-138.462
857.65	-90.909
857.94	-37.037
858.24	-157.143
858.53	-107.143
858.83	-108.333
859.13	-222.222
859.42	-38.095
859.72	-100.000
860.01	-733.333
860.31	-175.000
860.60	-540.000
860.90	-233.333
861.20	-50.000
861.49	-271.429
861.79	-5.882
862.08	-1150.000
862.38	-125.000
862.67	-76.923
862.97	-35.294
863.26	-35.000
863.56	-135.294
863.85	500.000
864.15	-200.000
864.44	-107.692
864.74	-25.000
865.03	-312.500
865.33	-150.000
865.62	-111.765
865.92	-750.000
866.21	-71.429
866.51	-150.000
866.80	-800.000
867.10	-366.667
867.39	-5.882
867.69	-13.043
867.98	-257.143
868.27	-500.000
868.57	-125.000
868.86	-218.182
869.16	-58.824
869.45	-283.333
869.75	-228.571
870.04	2200.000
870.33	-100.000
870.63	-100.000
870.92	-100.000
871.22	-183.333
871.51	-145.455
871.80	-91.667
872.10	-130.000
>>>>>End Processed Spectral Data<<<<<
