SpectraSuite Data File
++++++++++++++++++++++++++++++++++++
Date: Sat May 16 11:21:43 PDT 2015
User: schluterlab
Dark Spectrum Present: Yes
Reference Spectrum Present: Yes
Number of Sampled Component Spectra: 1
Spectrometers: USB2E3373
Integration Time (usec): 3000 (USB2E3373)
Spectra Averaged: 3 (USB2E3373)
Boxcar Smoothing: 0 (USB2E3373)
Correct for Electrical Dark: No (USB2E3373)
Strobe/Lamp Enabled: No (USB2E3373)
Correct for Detector Non-linearity: No (USB2E3373)
Correct for Stray Light: No (USB2E3373)
Number of Pixels in Processed Spectrum: 2048
>>>>>Begin Processed Spectral Data<<<<<
178.53	0.000
178.91	46.667
179.29	700.000
179.67	-1400.000
180.04	-61.538
180.42	800.000
180.80	450.000
181.18	575.000
181.56	25.000
181.94	2000.000
182.31	475.000
182.69	-15.385
183.07	-433.333
183.45	1150.000
183.83	633.333
184.20	-314.286
184.58	-137.500
184.96	-350.000
185.34	68.750
185.72	-500.000
186.09	266.667
186.47	-150.000
186.85	-62.500
187.23	-62.500
187.61	-300.000
187.98	-337.500
188.36	-125.000
188.74	-200.000
189.12	2700.000
189.49	228.571
189.87	8.333
190.25	325.000
190.63	14.286
191.00	-233.333
191.38	480.000
191.76	-6.667
192.14	420.000
192.51	-120.000
192.89	-300.000
193.27	0.000
193.65	-200.000
194.02	-200.000
194.40	433.333
194.78	-170.000
195.15	-900.000
195.53	-127.273
195.91	-383.333
196.29	240.000
196.66	-533.333
197.04	1200.000
197.42	-275.000
197.79	-40.000
198.17	-633.333
198.55	-650.000
198.92	-1000.000
199.30	212.500
199.68	-300.000
200.05	-122.222
200.43	-322.222
200.81	-1800.000
201.18	-50.000
201.56	171.429
201.94	-80.000
202.31	9.091
202.69	40.000
203.07	-140.000
203.44	333.333
203.82	-316.667
204.19	-375.000
204.57	-75.000
204.95	-1000.000
205.32	31.250
205.70	-100.000
206.08	-1800.000
206.45	-50.000
206.83	-400.000
207.20	-700.000
207.58	-533.333
207.96	-333.333
208.33	-187.500
208.71	-100.000
209.08	180.000
209.46	-200.000
209.84	750.000
210.21	0.000
210.59	45.000
210.96	800.000
211.34	-333.333
211.71	-433.333
212.09	50.000
212.46	850.000
212.84	-2200.000
213.22	566.667
213.59	158.333
213.97	-111.111
214.34	170.000
214.72	-20.000
215.09	-333.333
215.47	-333.333
215.84	-60.000
216.22	-10.000
216.59	6.667
216.97	-325.000
217.34	400.000
217.72	-57.143
218.09	-133.333
218.47	-300.000
218.84	114.286
219.22	0.000
219.59	0.000
219.97	200.000
220.34	575.000
220.72	212.500
221.09	0.000
221.47	0.000
221.84	333.333
222.22	-500.000
222.59	1000.000
222.97	-150.000
223.34	-550.000
223.72	-500.000
224.09	-57.143
224.46	-250.000
224.84	-35.714
225.21	-257.143
225.59	-154.545
225.96	-150.000
226.34	-257.143
226.71	-77.778
227.08	-30.000
227.46	2200.000
227.83	-85.714
228.21	-175.000
228.58	800.000
228.95	-25.000
229.33	-1400.000
229.70	-300.000
230.08	-1050.000
230.45	58.333
230.82	-183.333
231.20	-700.000
231.57	-450.000
231.95	1200.000
232.32	4.762
232.69	-55.556
233.07	-157.143
233.44	-1200.000
233.81	-140.000
234.19	-88.889
234.56	-37.500
234.93	-21.875
235.31	-185.714
235.68	-178.571
236.05	-35.294
236.43	-72.727
236.80	-25.806
237.17	-16.667
237.55	-61.905
237.92	-86.364
238.29	-34.286
238.67	-11.765
239.04	-33.333
239.41	-38.710
239.79	-38.462
240.16	-50.000
240.53	-40.000
240.91	-20.513
241.28	-14.545
241.65	12.308
242.02	-4.918
242.40	-22.951
242.77	-13.636
243.14	-20.339
243.51	-27.143
243.89	-13.924
244.26	-4.494
244.63	-5.263
245.00	-8.421
245.38	6.780
245.75	1.770
246.12	-4.800
246.49	0.787
246.87	-13.008
247.24	-16.949
247.61	-11.017
247.98	-11.972
248.36	-9.091
248.73	-3.165
249.10	-3.822
249.47	-4.678
249.84	-0.568
250.22	-10.714
250.59	-1.695
250.96	-4.188
251.33	7.583
251.70	0.481
252.08	0.000
252.45	-4.739
252.82	-8.571
253.19	2.979
253.56	-3.629
253.94	-3.797
254.31	-6.009
254.68	2.033
255.05	-8.871
255.42	0.794
255.79	-2.509
256.16	0.784
256.54	-1.471
256.91	-4.924
257.28	-6.227
257.65	-1.418
258.02	1.258
258.39	-2.007
258.76	-3.716
259.14	-2.160
259.51	-0.328
259.88	-0.915
260.25	2.174
260.62	-1.608
260.99	-5.341
261.36	1.220
261.73	-0.867
262.10	4.722
262.47	0.570
262.85	1.143
263.22	-1.146
263.59	-3.692
263.96	-1.739
264.33	-0.813
264.70	-0.552
265.07	-0.275
265.44	-0.775
265.81	0.517
266.18	-1.013
266.55	-1.225
266.92	-2.267
267.29	2.421
267.66	-1.481
268.03	0.966
268.40	0.939
268.77	1.446
269.14	-0.464
269.51	0.230
269.88	-1.606
270.25	-1.865
270.62	-0.458
270.99	0.676
271.36	0.466
271.73	0.224
272.10	-0.458
272.47	-1.111
272.84	1.556
273.21	0.917
273.58	-2.198
273.95	-2.193
274.32	-1.357
274.69	2.407
275.06	1.636
275.43	-0.893
275.80	1.426
276.17	0.209
276.54	1.629
276.91	0.206
277.28	0.811
277.65	0.207
278.02	0.209
278.39	0.786
278.76	0.000
279.13	0.395
279.50	0.994
279.87	-2.326
280.23	0.607
280.60	0.000
280.97	-0.388
281.34	0.193
281.71	3.077
282.08	0.000
282.45	-2.240
282.82	1.744
283.19	0.545
283.56	2.198
283.92	2.120
284.29	-0.929
284.66	0.899
285.03	1.961
285.40	0.738
285.77	1.228
286.14	-0.903
286.51	0.710
286.87	1.270
287.24	1.877
287.61	2.314
287.98	0.000
288.35	-0.661
288.72	0.340
289.08	-0.678
289.45	1.515
289.82	0.173
290.19	1.970
290.56	-1.983
290.93	1.272
291.29	-1.783
291.66	-0.161
292.03	1.256
292.40	0.753
292.77	0.155
293.13	0.163
293.50	1.932
293.87	0.767
294.24	0.754
294.60	-1.515
294.97	0.455
295.34	0.889
295.71	0.595
296.08	-1.690
296.44	-0.715
296.81	0.712
297.18	0.423
297.55	-0.282
297.91	2.929
298.28	-1.096
298.65	-0.558
299.02	2.540
299.38	0.000
299.75	0.679
300.12	1.282
300.48	0.767
300.85	0.917
301.22	0.000
301.59	0.650
301.95	1.889
302.32	-0.782
302.69	0.245
303.05	0.000
303.42	0.625
303.79	0.718
304.15	0.355
304.52	0.350
304.89	0.945
305.25	0.977
305.62	0.823
305.99	1.767
306.35	1.665
306.72	-0.342
307.09	2.043
307.45	0.568
307.82	-0.559
308.19	0.559
308.55	0.871
308.92	-0.107
309.29	0.757
309.65	1.060
310.02	0.648
310.38	-0.108
310.75	0.615
311.12	1.136
311.48	1.148
311.85	0.721
312.22	1.030
312.58	0.610
312.95	1.325
313.31	1.698
313.68	1.206
314.05	2.473
314.41	0.503
314.78	0.999
315.14	1.283
315.51	0.912
315.87	0.968
316.24	1.166
316.61	2.687
316.97	1.891
317.34	1.734
317.70	1.206
318.07	2.332
318.43	0.281
318.80	2.535
319.16	1.126
319.53	1.316
319.89	1.693
320.26	1.765
320.62	1.635
320.99	2.090
321.35	0.985
321.72	0.921
322.08	2.077
322.45	0.693
322.81	2.305
323.18	2.113
323.54	2.588
323.91	1.483
324.27	2.091
324.64	2.102
325.00	2.443
325.37	2.172
325.73	3.150
326.10	0.443
326.46	2.802
326.83	2.894
327.19	2.669
327.56	3.833
327.92	3.059
328.29	2.338
328.65	1.545
329.01	2.915
329.38	2.855
329.74	4.212
330.11	3.717
330.47	3.633
330.84	4.308
331.20	1.986
331.56	2.552
331.93	2.842
332.29	3.014
332.66	3.951
333.02	3.167
333.38	3.584
333.75	4.096
334.11	3.644
334.48	2.913
334.84	4.549
335.20	3.546
335.57	2.437
335.93	3.850
336.29	3.189
336.66	2.467
337.02	3.694
337.38	3.030
337.75	4.039
338.11	2.773
338.47	3.915
338.84	3.176
339.20	4.130
339.56	4.813
339.93	3.616
340.29	3.543
340.65	3.059
341.02	3.879
341.38	4.044
341.74	4.826
342.11	2.816
342.47	2.918
342.83	2.687
343.20	2.647
343.56	2.776
343.92	4.007
344.28	4.037
344.65	3.795
345.01	4.370
345.37	4.900
345.73	3.764
346.10	3.598
346.46	4.468
346.82	3.689
347.19	3.533
347.55	4.013
347.91	2.992
348.27	3.182
348.63	4.685
349.00	3.580
349.36	2.498
349.72	3.742
350.08	4.250
350.45	3.231
350.81	3.901
351.17	2.814
351.53	2.625
351.89	3.153
352.26	4.031
352.62	4.608
352.98	2.769
353.34	3.118
353.70	3.320
354.07	3.855
354.43	3.953
354.79	3.724
355.15	3.035
355.51	2.578
355.87	2.688
356.24	3.336
356.60	3.868
356.96	3.849
357.32	3.484
357.68	3.218
358.04	4.696
358.40	3.867
358.77	3.632
359.13	3.213
359.49	4.686
359.85	3.735
360.21	3.805
360.57	4.142
360.93	4.222
361.29	3.812
361.66	2.591
362.02	3.550
362.38	4.182
362.74	2.930
363.10	3.443
363.46	4.060
363.82	3.499
364.18	3.473
364.54	5.504
364.90	4.752
365.26	3.210
365.62	4.989
365.98	3.983
366.35	3.803
366.71	3.594
367.07	3.881
367.43	4.255
367.79	3.711
368.15	2.703
368.51	4.895
368.87	5.014
369.23	4.070
369.59	3.194
369.95	4.510
370.31	4.923
370.67	3.109
371.03	4.009
371.39	3.324
371.75	4.435
372.11	4.089
372.47	3.760
372.83	4.451
373.19	4.000
373.55	4.504
373.91	4.267
374.27	4.449
374.63	3.934
374.99	4.798
375.35	4.307
375.71	5.604
376.07	3.970
376.42	3.245
376.78	3.922
377.14	3.186
377.50	4.126
377.86	4.421
378.22	4.585
378.58	3.582
378.94	4.316
379.30	4.570
379.66	4.432
380.02	4.040
380.38	3.565
380.74	4.631
381.09	4.511
381.45	4.117
381.81	4.598
382.17	4.073
382.53	4.195
382.89	4.605
383.25	4.816
383.61	4.540
383.97	4.654
384.32	4.318
384.68	4.716
385.04	3.804
385.40	4.808
385.76	4.268
386.12	4.372
386.48	4.889
386.83	4.049
387.19	4.483
387.55	4.300
387.91	4.268
388.27	3.739
388.62	4.507
388.98	3.513
389.34	4.774
389.70	4.689
390.06	4.413
390.42	4.615
390.77	4.227
391.13	4.472
391.49	4.180
391.85	4.863
392.20	4.369
392.56	4.459
392.92	4.107
393.28	5.511
393.64	4.330
393.99	4.800
394.35	4.562
394.71	4.447
395.07	4.080
395.42	4.172
395.78	3.897
396.14	4.611
396.50	3.731
396.85	4.812
397.21	4.982
397.57	4.498
397.92	5.738
398.28	4.556
398.64	4.581
399.00	5.787
399.35	4.228
399.71	4.878
400.07	4.119
400.42	4.988
400.78	4.770
401.14	4.072
401.49	4.245
401.85	4.576
402.21	5.304
402.57	4.672
402.92	4.594
403.28	4.596
403.63	3.775
403.99	4.475
404.35	4.529
404.70	5.617
405.06	5.709
405.42	4.674
405.77	4.468
406.13	4.373
406.49	4.673
406.84	4.379
407.20	5.183
407.55	4.560
407.91	4.339
408.27	5.515
408.62	5.111
408.98	5.337
409.34	5.363
409.69	5.545
410.05	5.155
410.40	5.579
410.76	5.157
411.11	4.489
411.47	4.923
411.83	5.562
412.18	4.146
412.54	5.064
412.89	4.921
413.25	4.486
413.60	4.617
413.96	4.313
414.31	4.526
414.67	3.746
415.03	5.563
415.38	5.205
415.74	4.768
416.09	4.668
416.45	4.563
416.80	5.852
417.16	4.252
417.51	5.450
417.87	4.790
418.22	5.499
418.58	5.969
418.93	5.457
419.29	5.772
419.64	4.585
420.00	5.529
420.35	4.376
420.71	5.102
421.06	5.444
421.42	5.094
421.77	5.918
422.12	5.596
422.48	4.917
422.83	5.581
423.19	6.403
423.54	5.476
423.90	5.263
424.25	5.769
424.61	5.127
424.96	6.144
425.31	5.813
425.67	4.756
426.02	4.590
426.38	5.687
426.73	5.494
427.09	4.902
427.44	5.284
427.79	4.651
428.15	5.566
428.50	6.217
428.85	5.875
429.21	5.423
429.56	5.469
429.92	5.762
430.27	5.733
430.62	5.852
430.98	5.489
431.33	5.816
431.68	6.327
432.04	5.876
432.39	6.325
432.74	5.576
433.10	5.796
433.45	5.527
433.80	5.767
434.16	5.911
434.51	6.027
434.86	6.913
435.22	6.125
435.57	6.365
435.92	6.624
436.28	6.409
436.63	5.992
436.98	5.727
437.34	6.675
437.69	5.718
438.04	5.956
438.39	5.716
438.75	6.228
439.10	6.052
439.45	5.552
439.81	6.506
440.16	5.906
440.51	6.824
440.86	6.536
441.22	5.196
441.57	6.474
441.92	6.036
442.27	6.331
442.63	6.062
442.98	5.474
443.33	5.876
443.68	5.888
444.03	6.041
444.39	6.314
444.74	6.167
445.09	6.031
445.44	6.359
445.79	5.609
446.15	6.846
446.50	5.661
446.85	6.721
447.20	6.180
447.55	6.575
447.91	6.794
448.26	6.480
448.61	5.659
448.96	6.050
449.31	5.299
449.66	6.239
450.02	6.205
450.37	5.913
450.72	6.723
451.07	6.537
451.42	6.010
451.77	5.625
452.12	5.781
452.47	6.045
452.83	6.407
453.18	6.515
453.53	6.095
453.88	6.818
454.23	6.409
454.58	6.712
454.93	6.423
455.28	6.310
455.63	6.265
455.98	6.325
456.34	5.146
456.69	7.567
457.04	6.515
457.39	6.878
457.74	7.029
458.09	6.729
458.44	7.217
458.79	6.222
459.14	6.731
459.49	6.572
459.84	6.633
460.19	6.205
460.54	6.110
460.89	6.110
461.24	6.740
461.59	6.506
461.94	6.429
462.29	7.088
462.64	6.126
462.99	7.095
463.34	6.144
463.69	5.980
464.04	6.444
464.39	6.332
464.74	6.619
465.09	6.194
465.44	6.486
465.79	7.219
466.14	7.192
466.49	5.930
466.84	7.383
467.19	7.170
467.54	6.329
467.89	6.412
468.24	7.542
468.59	6.558
468.94	6.302
469.29	6.433
469.64	6.739
469.99	7.360
470.34	6.146
470.68	6.759
471.03	6.469
471.38	5.833
471.73	6.434
472.08	5.288
472.43	7.014
472.78	6.133
473.13	5.368
473.48	6.509
473.83	6.328
474.17	5.605
474.52	7.097
474.87	6.643
475.22	6.431
475.57	5.444
475.92	6.857
476.27	6.400
476.61	6.197
476.96	6.205
477.31	6.297
477.66	6.530
478.01	6.483
478.36	6.705
478.70	7.208
479.05	6.436
479.40	6.995
479.75	6.677
480.10	6.647
480.45	6.044
480.79	6.614
481.14	6.874
481.49	6.244
481.84	6.565
482.19	7.218
482.53	6.250
482.88	6.312
483.23	6.385
483.58	6.707
483.92	6.163
484.27	6.469
484.62	6.609
484.97	6.937
485.31	6.240
485.66	6.992
486.01	7.335
486.36	7.950
486.70	7.909
487.05	7.127
487.40	7.345
487.75	7.187
488.09	6.918
488.44	7.104
488.79	7.287
489.13	7.075
489.48	6.117
489.83	6.288
490.17	7.053
490.52	6.114
490.87	5.912
491.22	5.932
491.56	6.204
491.91	6.298
492.26	6.321
492.60	5.709
492.95	6.806
493.30	5.860
493.64	6.394
493.99	5.736
494.34	6.381
494.68	7.116
495.03	6.453
495.37	5.851
495.72	6.287
496.07	6.147
496.41	6.994
496.76	5.799
497.11	6.453
497.45	6.322
497.80	6.653
498.14	6.090
498.49	5.525
498.84	6.165
499.18	7.018
499.53	5.991
499.87	5.743
500.22	5.931
500.56	6.003
500.91	5.911
501.26	6.114
501.60	5.778
501.95	6.039
502.29	5.810
502.64	6.601
502.98	5.558
503.33	6.297
503.67	5.891
504.02	6.277
504.36	6.127
504.71	5.572
505.06	5.192
505.40	6.287
505.75	5.437
506.09	6.016
506.44	6.115
506.78	6.222
507.13	5.510
507.47	5.373
507.82	5.937
508.16	5.699
508.51	5.255
508.85	5.280
509.19	4.971
509.54	5.338
509.88	5.266
510.23	5.608
510.57	6.032
510.92	6.015
511.26	5.423
511.61	5.562
511.95	5.496
512.30	5.937
512.64	4.897
512.98	5.776
513.33	5.766
513.67	4.467
514.02	4.810
514.36	5.928
514.70	5.263
515.05	5.260
515.39	5.421
515.74	5.236
516.08	5.360
516.42	5.666
516.77	5.315
517.11	5.606
517.46	5.443
517.80	5.475
518.14	4.287
518.49	5.260
518.83	4.748
519.17	5.684
519.52	4.627
519.86	4.839
520.20	4.890
520.55	5.477
520.89	3.632
521.23	6.044
521.58	4.765
521.92	5.636
522.26	4.571
522.61	4.943
522.95	3.893
523.29	5.329
523.64	4.809
523.98	5.156
524.32	5.783
524.66	4.410
525.01	3.982
525.35	5.412
525.69	5.140
526.04	4.961
526.38	5.220
526.72	4.662
527.06	4.883
527.41	4.224
527.75	4.488
528.09	5.228
528.43	5.115
528.78	4.774
529.12	5.762
529.46	4.575
529.80	3.873
530.15	5.087
530.49	5.563
530.83	5.370
531.17	4.848
531.51	4.689
531.86	4.806
532.20	4.453
532.54	4.813
532.88	4.414
533.22	3.944
533.57	4.634
533.91	4.744
534.25	4.337
534.59	4.247
534.93	4.543
535.27	5.349
535.62	6.010
535.96	5.947
536.30	4.581
536.64	5.445
536.98	4.732
537.32	4.630
537.66	5.092
538.01	4.880
538.35	4.730
538.69	4.746
539.03	5.552
539.37	4.591
539.71	5.470
540.05	5.209
540.39	5.817
540.73	5.390
541.07	5.533
541.42	5.537
541.76	4.983
542.10	6.617
542.44	6.262
542.78	7.463
543.12	8.215
543.46	7.123
543.80	6.288
544.14	6.649
544.48	8.202
544.82	7.442
545.16	8.384
545.50	6.528
545.84	8.136
546.18	8.391
546.52	7.752
546.86	7.194
547.20	7.454
547.54	6.336
547.88	6.171
548.22	5.242
548.56	5.611
548.90	6.065
549.24	4.975
549.58	6.281
549.92	5.583
550.26	5.997
550.60	4.836
550.94	5.620
551.28	5.643
551.62	4.653
551.96	5.789
552.30	5.505
552.64	4.645
552.98	6.167
553.32	3.968
553.66	5.047
554.00	5.188
554.34	4.693
554.68	4.240
555.02	5.644
555.36	4.242
555.69	4.298
556.03	4.702
556.37	4.908
556.71	4.510
557.05	3.917
557.39	4.009
557.73	4.085
558.07	4.220
558.41	4.114
558.75	4.335
559.08	2.957
559.42	4.441
559.76	4.294
560.10	4.996
560.44	5.202
560.78	5.150
561.12	5.038
561.45	5.548
561.79	4.599
562.13	5.049
562.47	4.972
562.81	4.738
563.15	4.269
563.48	5.390
563.82	4.395
564.16	5.544
564.50	4.503
564.84	4.696
565.17	3.846
565.51	5.215
565.85	4.665
566.19	4.743
566.52	4.175
566.86	3.603
567.20	5.872
567.54	5.907
567.88	5.193
568.21	5.145
568.55	4.984
568.89	4.523
569.23	5.460
569.56	5.212
569.90	5.940
570.24	6.539
570.57	5.659
570.91	5.950
571.25	6.388
571.59	6.213
571.92	6.548
572.26	6.201
572.60	6.050
572.93	6.039
573.27	5.701
573.61	5.621
573.95	6.493
574.28	6.266
574.62	6.151
574.96	6.057
575.29	6.123
575.63	6.212
575.97	5.879
576.30	6.056
576.64	6.371
576.98	6.395
577.31	6.555
577.65	6.576
577.98	6.519
578.32	5.999
578.66	6.301
578.99	6.281
579.33	6.029
579.67	6.315
580.00	5.878
580.34	6.311
580.67	6.276
581.01	6.284
581.35	6.543
581.68	6.756
582.02	6.958
582.35	6.572
582.69	6.581
583.02	6.565
583.36	6.459
583.70	6.400
584.03	6.600
584.37	6.225
584.70	6.371
585.04	6.380
585.37	6.253
585.71	6.386
586.04	6.180
586.38	5.961
586.72	6.229
587.05	6.231
587.39	6.337
587.72	6.716
588.06	6.217
588.39	6.067
588.73	6.578
589.06	6.618
589.40	6.183
589.73	6.409
590.07	5.936
590.40	6.531
590.73	5.878
591.07	5.861
591.40	6.109
591.74	5.908
592.07	5.270
592.41	6.200
592.74	6.188
593.08	6.728
593.41	6.283
593.75	5.902
594.08	5.859
594.41	6.506
594.75	6.078
595.08	5.752
595.42	6.286
595.75	6.137
596.09	5.355
596.42	6.137
596.75	5.649
597.09	6.011
597.42	5.718
597.75	5.757
598.09	5.694
598.42	5.921
598.76	5.606
599.09	5.367
599.42	6.036
599.76	6.002
600.09	6.489
600.42	6.494
600.76	5.876
601.09	6.153
601.42	5.342
601.76	6.231
602.09	5.440
602.42	5.926
602.76	5.401
603.09	5.766
603.42	6.326
603.76	6.063
604.09	6.127
604.42	5.079
604.76	5.539
605.09	5.787
605.42	6.161
605.75	5.132
606.09	6.019
606.42	5.698
606.75	5.496
607.09	5.999
607.42	5.722
607.75	6.137
608.08	5.377
608.42	5.345
608.75	5.561
609.08	6.040
609.41	5.481
609.75	5.656
610.08	5.784
610.41	6.024
610.74	6.141
611.07	6.846
611.41	6.404
611.74	7.404
612.07	7.734
612.40	6.450
612.73	7.216
613.07	6.714
613.40	7.553
613.73	6.049
614.06	6.425
614.39	6.595
614.72	5.587
615.06	5.543
615.39	5.534
615.72	5.703
616.05	5.687
616.38	5.630
616.71	5.165
617.05	5.730
617.38	5.944
617.71	4.730
618.04	5.528
618.37	4.969
618.70	5.867
619.03	4.807
619.36	6.202
619.69	6.389
620.03	5.510
620.36	4.571
620.69	4.882
621.02	5.860
621.35	5.000
621.68	4.344
622.01	5.016
622.34	5.357
622.67	4.375
623.00	5.126
623.33	5.746
623.66	5.391
623.99	5.038
624.32	5.357
624.65	5.298
624.99	4.257
625.32	4.566
625.65	5.051
625.98	4.225
626.31	5.383
626.64	5.356
626.97	5.479
627.30	4.766
627.63	3.627
627.96	4.700
628.29	3.952
628.62	3.534
628.95	4.823
629.28	4.417
629.61	2.846
629.94	4.253
630.26	2.982
630.59	5.126
630.92	3.704
631.25	5.847
631.58	5.291
631.91	2.128
632.24	2.778
632.57	3.778
632.90	3.793
633.23	3.154
633.56	3.158
633.89	3.420
634.22	3.542
634.55	3.245
634.88	3.265
635.20	3.496
635.53	2.545
635.86	1.889
636.19	3.419
636.52	4.062
636.85	1.925
637.18	1.500
637.51	3.965
637.83	2.530
638.16	1.711
638.49	2.207
638.82	0.644
639.15	4.150
639.48	2.853
639.81	3.458
640.13	3.378
640.46	2.849
640.79	4.482
641.12	3.103
641.45	2.726
641.77	1.647
642.10	1.360
642.43	3.338
642.76	1.575
643.09	0.952
643.41	4.603
643.74	3.498
644.07	4.368
644.40	1.459
644.73	3.135
645.05	1.002
645.38	2.980
645.71	4.467
646.04	3.361
646.36	-1.396
646.69	1.903
647.02	3.069
647.35	3.430
647.67	1.095
648.00	2.285
648.33	3.035
648.66	1.129
648.98	2.707
649.31	3.846
649.64	2.187
649.96	2.669
650.29	2.787
650.62	2.754
650.94	2.698
651.27	1.040
651.60	2.076
651.92	3.767
652.25	1.503
652.58	0.341
652.90	4.173
653.23	1.774
653.56	2.174
653.88	3.443
654.21	3.188
654.54	2.990
654.86	3.050
655.19	4.871
655.52	6.198
655.84	6.818
656.17	7.822
656.49	11.070
656.82	11.334
657.15	8.246
657.47	5.787
657.80	4.555
658.13	5.241
658.45	6.865
658.78	6.509
659.10	6.401
659.43	5.971
659.75	5.468
660.08	4.896
660.41	4.456
660.73	2.310
661.06	4.638
661.38	2.500
661.71	1.721
662.03	1.613
662.36	1.279
662.68	0.844
663.01	1.486
663.33	-0.454
663.66	4.292
663.98	0.000
664.31	-3.132
664.63	4.425
664.96	-1.518
665.28	3.037
665.61	2.537
665.93	3.498
666.26	2.024
666.58	2.911
666.91	0.891
667.23	3.509
667.56	0.907
667.88	2.715
668.21	1.152
668.53	-1.168
668.86	1.386
669.18	3.425
669.50	-1.636
669.83	-1.946
670.15	4.036
670.48	0.234
670.80	0.683
671.13	0.903
671.45	1.577
671.77	0.857
672.10	1.183
672.42	2.399
672.75	1.636
673.07	0.721
673.39	3.279
673.72	2.362
674.04	1.911
674.37	1.237
674.69	3.689
675.01	0.000
675.34	2.386
675.66	3.888
675.98	1.762
676.31	2.941
676.63	0.690
676.95	1.991
677.28	0.928
677.60	3.846
677.92	1.982
678.25	0.656
678.57	3.292
678.89	1.468
679.22	0.000
679.54	2.170
679.86	-0.600
680.18	2.852
680.51	2.607
680.83	3.810
681.15	3.276
681.48	4.260
681.80	2.419
682.12	1.006
682.44	1.572
682.77	-1.732
683.09	4.403
683.41	5.310
683.73	-0.913
684.06	0.645
684.38	2.929
684.70	1.235
685.02	4.134
685.34	1.365
685.67	0.189
685.99	1.134
686.31	1.257
686.63	5.851
686.96	1.848
687.28	3.276
687.60	3.125
687.92	0.000
688.24	1.378
688.56	0.802
688.89	0.641
689.21	3.720
689.53	2.989
689.85	0.668
690.17	2.018
690.49	3.464
690.82	-0.723
691.14	1.887
691.46	2.439
691.78	1.982
692.10	5.720
692.42	1.333
692.74	4.077
693.06	2.022
693.39	3.579
693.71	2.257
694.03	3.456
694.35	3.386
694.67	2.837
694.99	-0.256
695.31	0.255
695.63	-1.786
695.95	-0.993
696.27	3.990
696.59	-1.337
696.91	2.247
697.23	2.344
697.56	0.240
697.88	2.027
698.20	2.355
698.52	-1.121
698.84	4.369
699.16	1.905
699.48	1.750
699.80	0.000
700.12	4.786
700.44	-1.676
700.76	0.292
701.08	1.163
701.40	1.813
701.72	0.617
702.04	2.244
702.36	5.120
702.68	3.593
703.00	-1.739
703.32	0.000
703.64	4.118
703.96	4.070
704.28	3.254
704.60	-1.899
704.91	-2.540
705.23	1.294
705.55	-3.041
705.87	1.024
706.19	2.431
706.51	0.694
706.83	1.967
707.15	4.140
707.47	4.132
707.79	1.289
708.11	-0.254
708.43	4.239
708.74	0.519
709.06	-4.457
709.38	-0.862
709.70	-2.188
710.02	6.442
710.34	0.330
710.66	0.000
710.98	5.047
711.29	-1.935
711.61	1.597
711.93	0.984
712.25	3.654
712.57	0.348
712.89	0.719
713.20	2.749
713.52	-2.239
713.84	1.068
714.16	2.295
714.48	0.317
714.80	3.077
715.11	6.052
715.43	5.422
715.75	3.115
716.07	0.000
716.39	6.020
716.70	1.045
717.02	-1.111
717.34	-2.290
717.66	1.660
717.97	-3.689
718.29	-1.261
718.61	5.952
718.93	1.792
719.24	-1.103
719.56	-2.264
719.88	-0.364
720.20	-1.498
720.51	5.639
720.83	0.402
721.15	1.230
721.46	-2.745
721.78	2.682
722.10	2.400
722.42	-2.066
722.73	-1.992
723.05	-1.205
723.37	1.961
723.68	0.000
724.00	0.813
724.32	1.235
724.63	-2.490
724.95	4.959
725.27	-2.193
725.58	-4.310
725.90	-3.175
726.22	5.535
726.53	3.802
726.85	-4.706
727.16	0.376
727.48	0.000
727.80	-5.328
728.11	5.462
728.43	-0.413
728.74	1.172
729.06	0.758
729.38	-1.946
729.69	-1.181
730.01	2.756
730.32	1.195
730.64	2.564
730.96	1.866
731.27	1.786
731.59	2.894
731.90	4.908
732.22	5.215
732.53	2.318
732.85	0.671
733.16	-0.362
733.48	0.348
733.80	-0.356
734.11	2.069
734.43	1.701
734.74	5.935
735.06	2.821
735.37	4.893
735.69	0.645
736.00	2.020
736.32	4.305
736.63	0.000
736.95	-1.449
737.26	0.993
737.58	-0.719
737.89	3.226
738.21	-2.256
738.52	0.000
738.83	2.734
739.15	5.556
739.46	3.629
739.78	1.748
740.09	1.748
740.41	1.399
740.72	4.015
741.04	4.365
741.35	-4.762
741.66	1.852
741.98	-0.952
742.29	0.469
742.61	-1.604
742.92	-1.402
743.23	-2.193
743.55	0.000
743.86	4.444
744.18	2.857
744.49	4.433
744.80	0.508
745.12	0.000
745.43	-2.010
745.74	-0.485
746.06	-4.390
746.37	4.846
746.68	0.498
747.00	-2.618
747.31	1.442
747.62	0.000
747.94	2.183
748.25	-0.465
748.56	1.429
748.88	-9.783
749.19	2.817
749.50	2.451
749.82	5.778
750.13	2.643
750.44	-0.407
750.75	0.000
751.07	5.714
751.38	4.428
751.69	-0.382
752.01	-1.154
752.32	-2.335
752.63	-4.615
752.94	0.000
753.26	1.739
753.57	4.911
753.88	1.724
754.19	-2.490
754.51	1.953
754.82	0.791
755.13	2.469
755.44	-4.132
755.75	2.469
756.07	-3.213
756.38	-5.469
756.69	4.693
757.00	0.348
757.31	2.685
757.63	4.050
757.94	3.179
758.25	0.291
758.56	9.973
758.87	3.125
759.18	0.333
759.50	3.559
759.81	-1.460
760.12	-1.014
760.43	2.589
760.74	5.938
761.05	5.337
761.36	4.192
761.67	2.959
761.99	3.548
762.30	2.174
762.61	4.528
762.92	-1.345
763.23	-7.109
763.54	1.778
763.85	3.797
764.16	3.673
764.47	4.237
764.78	-1.498
765.10	2.878
765.41	-0.645
765.72	4.088
766.03	-0.353
766.34	-1.880
766.65	-2.024
766.96	-2.000
767.27	3.125
767.58	-9.302
767.89	-4.516
768.20	-1.227
768.51	-7.650
768.82	-0.541
769.13	-4.500
769.44	1.754
769.75	1.299
770.06	5.046
770.37	0.469
770.68	-4.687
770.99	1.485
771.30	1.456
771.61	0.000
771.92	3.030
772.23	1.869
772.54	-4.255
772.85	-5.325
773.16	6.098
773.47	1.807
773.78	11.538
774.09	1.333
774.39	6.173
774.70	-3.356
775.01	-2.174
775.32	-1.493
775.63	-14.050
775.94	3.008
776.25	-4.286
776.56	-0.820
776.87	-7.965
777.18	7.965
777.48	-14.545
777.79	-5.217
778.10	-4.587
778.41	-1.695
778.72	-8.264
779.03	3.731
779.34	-3.759
779.65	0.654
779.95	7.246
780.26	0.000
780.57	-17.241
780.88	2.778
781.19	-17.172
781.50	-16.800
781.80	-0.654
782.11	5.769
782.42	-1.807
782.73	-8.029
783.04	1.351
783.34	2.273
783.65	-3.101
783.96	-1.626
784.27	-3.419
784.57	-10.569
784.88	-12.195
785.19	-5.263
785.50	-14.433
785.81	-2.857
786.11	-15.686
786.42	-15.455
786.73	-2.703
787.04	0.000
787.34	-1.905
787.65	-9.524
787.96	-13.725
788.26	-0.901
788.57	4.839
788.88	-7.031
789.19	-7.692
789.49	-6.723
789.80	-6.838
790.11	-3.540
790.41	-14.141
790.72	13.208
791.03	-34.722
791.33	-11.842
791.64	-1.075
791.95	-6.667
792.25	-35.714
792.56	-10.976
792.87	-3.061
793.17	-35.526
793.48	-14.865
793.79	-15.493
794.09	-12.658
794.40	-6.383
794.70	-16.822
795.01	-8.772
795.32	-20.000
795.62	-6.250
795.93	-13.402
796.23	-9.890
796.54	3.158
796.85	-8.219
797.15	-34.722
797.46	2.740
797.76	-2.817
798.07	-2.500
798.37	-29.412
798.68	-7.143
798.99	5.714
799.29	9.211
799.60	-21.667
799.90	-20.833
800.21	0.000
800.51	-28.571
800.82	-31.148
801.12	-7.018
801.43	-5.634
801.73	-15.254
802.04	-4.918
802.34	-27.273
802.65	-5.769
802.95	-14.815
803.26	-65.000
803.56	-25.000
803.87	-68.421
804.17	-4.839
804.48	-12.308
804.78	-41.026
805.09	-23.256
805.39	-65.625
805.70	-32.075
806.00	-5.263
806.30	16.216
806.61	7.353
806.91	-1.235
807.22	-10.667
807.52	-1.493
807.83	-4.839
808.13	-33.333
808.43	-9.091
808.74	-24.242
809.04	-22.642
809.35	6.849
809.65	10.526
809.95	-7.353
810.26	-5.882
810.56	-24.000
810.86	-28.571
811.17	-37.143
811.47	-21.154
811.77	-3.226
812.08	-76.316
812.38	9.524
812.69	-28.261
812.99	-3.226
813.29	-42.857
813.59	-96.296
813.90	-21.277
814.20	-25.581
814.50	-20.833
814.81	-23.333
815.11	-26.829
815.41	-33.333
815.72	-14.286
816.02	-41.667
816.32	-5.128
816.62	-10.811
816.93	-79.412
817.23	-19.565
817.53	-29.412
817.84	-64.706
818.14	-53.125
818.44	-3.448
818.74	-58.065
819.04	-48.148
819.35	-46.667
819.65	-48.000
819.95	-30.000
820.25	-36.000
820.56	-31.579
820.86	-42.500
821.16	-21.277
821.46	5.172
821.76	-23.077
822.07	-42.500
822.37	-25.581
822.67	-70.000
822.97	-13.514
823.27	-13.514
823.57	8.000
823.88	2.703
824.18	-33.333
824.48	-57.692
824.78	-130.769
825.08	-17.391
825.38	-83.333
825.69	-12.500
825.99	-55.000
826.29	-40.541
826.59	-23.529
826.89	-56.000
827.19	-17.143
827.49	-18.421
827.79	-43.750
828.09	-6.667
828.39	-13.043
828.70	-44.828
829.00	-48.276
829.30	-8.333
829.60	3.125
829.90	-11.111
830.20	-65.385
830.50	-38.095
830.80	-100.000
831.10	-7.692
831.40	-47.619
831.70	-14.706
832.00	-45.833
832.30	-105.263
832.60	-93.750
832.90	-125.000
833.20	-147.059
833.50	-160.000
833.80	-100.000
834.10	-70.000
834.40	-91.667
834.70	-5.556
835.00	-19.231
835.30	-50.000
835.60	-10.345
835.90	-72.222
836.20	-227.273
836.50	-100.000
836.80	-20.000
837.10	31.429
837.40	-58.824
837.70	-154.545
838.00	-12.500
838.30	-68.750
838.60	-28.571
838.90	-40.000
839.19	-34.783
839.49	-34.783
839.79	-83.333
840.09	-39.130
840.39	-90.909
840.69	-50.000
840.99	-47.368
841.29	-125.000
841.59	-142.857
841.88	-44.444
842.18	-54.167
842.48	-105.882
842.78	-37.931
843.08	-14.286
843.38	-61.538
843.68	-211.111
843.97	-123.077
844.27	-36.364
844.57	-360.000
844.87	8.000
845.17	-220.000
845.47	-85.714
845.76	-188.889
846.06	0.000
846.36	-675.000
846.66	-140.000
846.96	-42.105
847.25	-50.000
847.55	-166.667
847.85	-26.667
848.15	-90.000
848.44	15.385
848.74	-94.737
849.04	966.667
849.34	-288.889
849.63	-89.474
849.93	0.000
850.23	-55.000
850.53	-28.571
850.82	-20.000
851.12	-68.421
851.42	-850.000
851.71	-71.429
852.01	-83.333
852.31	-47.059
852.61	-60.000
852.90	-52.381
853.20	-316.667
853.50	-33.333
853.79	-84.211
854.09	-53.333
854.39	-25.000
854.68	-43.478
854.98	-166.667
855.28	3.448
855.57	-106.250
855.87	-20.000
856.17	-93.333
856.46	-44.828
856.76	-60.000
857.05	-135.294
857.35	-200.000
857.65	-36.364
857.94	0.000
858.24	-92.857
858.53	-42.857
858.83	-141.667
859.13	-255.556
859.42	-19.048
859.72	-125.000
860.01	-566.667
860.31	-137.500
860.60	-460.000
860.90	-177.778
861.20	-212.500
861.49	-242.857
861.79	-5.882
862.08	-1500.000
862.38	-150.000
862.67	-123.077
862.97	-29.412
863.26	-10.000
863.56	-70.588
863.85	433.333
864.15	-190.000
864.44	7.692
864.74	-15.000
865.03	-287.500
865.33	-350.000
865.62	-23.529
865.92	-450.000
866.21	-85.714
866.51	-183.333
866.80	-200.000
867.10	-233.333
867.39	-47.059
867.69	8.696
867.98	-185.714
868.27	-260.000
868.57	-125.000
868.86	-145.455
869.16	-23.529
869.45	-216.667
869.75	-285.714
870.04	600.000
870.33	-100.000
870.63	-400.000
870.92	-88.889
871.22	-58.333
871.51	-118.182
871.80	-41.667
872.10	-50.000
>>>>>End Processed Spectral Data<<<<<
