SpectraSuite Data File
++++++++++++++++++++++++++++++++++++
Date: Sat May 16 09:00:48 PDT 2015
User: schluterlab
Dark Spectrum Present: Yes
Reference Spectrum Present: No
Number of Sampled Component Spectra: 1
Spectrometers: USB2E3373
Integration Time (usec): 2300000 (USB2E3373)
Spectra Averaged: 3 (USB2E3373)
Boxcar Smoothing: 0 (USB2E3373)
Correct for Electrical Dark: No (USB2E3373)
Strobe/Lamp Enabled: No (USB2E3373)
Correct for Detector Non-linearity: No (USB2E3373)
Correct for Stray Light: No (USB2E3373)
Number of Pixels in Processed Spectrum: 2048
>>>>>Begin Processed Spectral Data<<<<<
178.53	0.0000E00
178.91	0.0000E00
179.29	0.0000E00
179.67	0.0000E00
180.04	0.0000E00
180.42	0.0000E00
180.80	0.0000E00
181.18	0.0000E00
181.56	0.0000E00
181.94	0.0000E00
182.31	0.0000E00
182.69	0.0000E00
183.07	0.0000E00
183.45	0.0000E00
183.83	0.0000E00
184.20	0.0000E00
184.58	0.0000E00
184.96	0.0000E00
185.34	0.0000E00
185.72	0.0000E00
186.09	0.0000E00
186.47	0.0000E00
186.85	0.0000E00
187.23	0.0000E00
187.61	0.0000E00
187.98	0.0000E00
188.36	0.0000E00
188.74	0.0000E00
189.12	0.0000E00
189.49	0.0000E00
189.87	0.0000E00
190.25	0.0000E00
190.63	0.0000E00
191.00	0.0000E00
191.38	0.0000E00
191.76	0.0000E00
192.14	0.0000E00
192.51	0.0000E00
192.89	0.0000E00
193.27	0.0000E00
193.65	0.0000E00
194.02	0.0000E00
194.40	0.0000E00
194.78	0.0000E00
195.15	0.0000E00
195.53	0.0000E00
195.91	0.0000E00
196.29	0.0000E00
196.66	0.0000E00
197.04	0.0000E00
197.42	0.0000E00
197.79	0.0000E00
198.17	0.0000E00
198.55	0.0000E00
198.92	0.0000E00
199.30	0.0000E00
199.68	0.0000E00
200.05	0.0000E00
200.43	0.0000E00
200.81	0.0000E00
201.18	0.0000E00
201.56	0.0000E00
201.94	0.0000E00
202.31	0.0000E00
202.69	0.0000E00
203.07	0.0000E00
203.44	0.0000E00
203.82	0.0000E00
204.19	0.0000E00
204.57	0.0000E00
204.95	0.0000E00
205.32	0.0000E00
205.70	0.0000E00
206.08	0.0000E00
206.45	0.0000E00
206.83	0.0000E00
207.20	0.0000E00
207.58	0.0000E00
207.96	0.0000E00
208.33	0.0000E00
208.71	0.0000E00
209.08	0.0000E00
209.46	0.0000E00
209.84	0.0000E00
210.21	0.0000E00
210.59	0.0000E00
210.96	0.0000E00
211.34	0.0000E00
211.71	0.0000E00
212.09	0.0000E00
212.46	0.0000E00
212.84	0.0000E00
213.22	-0.0000E00
213.59	0.0000E00
213.97	0.0000E00
214.34	0.0000E00
214.72	0.0000E00
215.09	0.0000E00
215.47	0.0000E00
215.84	0.0000E00
216.22	0.0000E00
216.59	0.0000E00
216.97	0.0000E00
217.34	0.0000E00
217.72	0.0000E00
218.09	0.0000E00
218.47	0.0000E00
218.84	-0.0000E00
219.22	0.0000E00
219.59	0.0000E00
219.97	0.0000E00
220.34	0.0000E00
220.72	0.0000E00
221.09	0.0000E00
221.47	0.0000E00
221.84	0.0000E00
222.22	0.0000E00
222.59	0.0000E00
222.97	0.0000E00
223.34	0.0000E00
223.72	0.0000E00
224.09	0.0000E00
224.46	0.0000E00
224.84	0.0000E00
225.21	0.0000E00
225.59	0.0000E00
225.96	0.0000E00
226.34	0.0000E00
226.71	0.0000E00
227.08	0.0000E00
227.46	0.0000E00
227.83	0.0000E00
228.21	0.0000E00
228.58	0.0000E00
228.95	0.0000E00
229.33	0.0000E00
229.70	0.0000E00
230.08	0.0000E00
230.45	0.0000E00
230.82	0.0000E00
231.20	0.0000E00
231.57	0.0000E00
231.95	0.0000E00
232.32	0.0000E00
232.69	0.0000E00
233.07	0.0000E00
233.44	0.0000E00
233.81	0.0000E00
234.19	0.0000E00
234.56	0.0000E00
234.93	0.0000E00
235.31	0.0000E00
235.68	0.0000E00
236.05	0.0000E00
236.43	0.0000E00
236.80	0.0000E00
237.17	0.0000E00
237.55	0.0000E00
237.92	0.0000E00
238.29	0.0000E00
238.67	0.0000E00
239.04	0.0000E00
239.41	0.0000E00
239.79	0.0000E00
240.16	0.0000E00
240.53	0.0000E00
240.91	0.0000E00
241.28	0.0000E00
241.65	0.0000E00
242.02	0.0000E00
242.40	0.0000E00
242.77	0.0000E00
243.14	0.0000E00
243.51	0.0000E00
243.89	0.0000E00
244.26	0.0000E00
244.63	0.0000E00
245.00	0.0000E00
245.38	0.0000E00
245.75	0.0000E00
246.12	0.0000E00
246.49	0.0000E00
246.87	0.0000E00
247.24	0.0000E00
247.61	0.0000E00
247.98	0.0000E00
248.36	0.0000E00
248.73	0.0000E00
249.10	0.0000E00
249.47	0.0000E00
249.84	0.0000E00
250.22	0.0000E00
250.59	0.0000E00
250.96	0.0000E00
251.33	0.0000E00
251.70	0.0000E00
252.08	0.0000E00
252.45	0.0000E00
252.82	0.0000E00
253.19	0.0000E00
253.56	0.0000E00
253.94	0.0000E00
254.31	0.0000E00
254.68	0.0000E00
255.05	0.0000E00
255.42	0.0000E00
255.79	0.0000E00
256.16	0.0000E00
256.54	0.0000E00
256.91	0.0000E00
257.28	0.0000E00
257.65	0.0000E00
258.02	0.0000E00
258.39	0.0000E00
258.76	0.0000E00
259.14	0.0000E00
259.51	0.0000E00
259.88	0.0000E00
260.25	0.0000E00
260.62	0.0000E00
260.99	0.0000E00
261.36	0.0000E00
261.73	0.0000E00
262.10	0.0000E00
262.47	0.0000E00
262.85	0.0000E00
263.22	0.0000E00
263.59	0.0000E00
263.96	0.0000E00
264.33	0.0000E00
264.70	0.0000E00
265.07	0.0000E00
265.44	0.0000E00
265.81	0.0000E00
266.18	0.0000E00
266.55	0.0000E00
266.92	0.0000E00
267.29	0.0000E00
267.66	0.0000E00
268.03	0.0000E00
268.40	0.0000E00
268.77	0.0000E00
269.14	0.0000E00
269.51	0.0000E00
269.88	0.0000E00
270.25	0.0000E00
270.62	0.0000E00
270.99	0.0000E00
271.36	0.0000E00
271.73	0.0000E00
272.10	0.0000E00
272.47	0.0000E00
272.84	0.0000E00
273.21	0.0000E00
273.58	0.0000E00
273.95	0.0000E00
274.32	0.0000E00
274.69	0.0000E00
275.06	0.0000E00
275.43	0.0000E00
275.80	0.0000E00
276.17	0.0000E00
276.54	0.0000E00
276.91	0.0000E00
277.28	0.0000E00
277.65	0.0000E00
278.02	0.0000E00
278.39	0.0000E00
278.76	0.0000E00
279.13	0.0000E00
279.50	0.0000E00
279.87	0.0000E00
280.23	0.0000E00
280.60	0.0000E00
280.97	0.0000E00
281.34	0.0000E00
281.71	0.0000E00
282.08	0.0000E00
282.45	0.0000E00
282.82	0.0000E00
283.19	0.0000E00
283.56	0.0000E00
283.92	0.0000E00
284.29	0.0000E00
284.66	0.0000E00
285.03	0.0000E00
285.40	0.0000E00
285.77	0.0000E00
286.14	0.0000E00
286.51	0.0000E00
286.87	0.0000E00
287.24	0.0000E00
287.61	0.0000E00
287.98	0.0000E00
288.35	0.0000E00
288.72	0.0000E00
289.08	0.0000E00
289.45	0.0000E00
289.82	0.0000E00
290.19	0.0000E00
290.56	0.0000E00
290.93	0.0000E00
291.29	0.0000E00
291.66	0.0000E00
292.03	0.0000E00
292.40	0.0000E00
292.77	0.0000E00
293.13	0.0000E00
293.50	0.0000E00
293.87	0.0000E00
294.24	0.0000E00
294.60	0.0000E00
294.97	0.0000E00
295.34	0.0000E00
295.71	0.0000E00
296.08	0.0000E00
296.44	0.0000E00
296.81	0.0000E00
297.18	0.0000E00
297.55	0.0000E00
297.91	0.0000E00
298.28	0.0000E00
298.65	0.0000E00
299.02	0.0000E00
299.38	0.0000E00
299.75	0.0000E00
300.12	2.9052E00
300.48	5.7465E-01
300.85	9.2906E-01
301.22	8.6006E-01
301.59	8.7905E-01
301.95	1.2564E00
302.32	1.5672E00
302.69	5.3799E-01
303.05	5.6078E-01
303.42	9.9631E-01
303.79	8.3438E-01
304.15	1.5931E00
304.52	1.4118E00
304.89	1.5602E00
305.25	1.0163E00
305.62	1.0361E00
305.99	3.6724E00
306.35	1.0879E00
306.72	1.5068E00
307.09	1.2756E00
307.45	1.1559E00
307.82	1.3476E00
308.19	1.2830E00
308.55	1.4894E00
308.92	3.0095E00
309.29	2.0705E00
309.65	1.2269E00
310.02	1.2703E00
310.38	9.1433E-01
310.75	2.7330E00
311.12	8.8831E-01
311.48	1.6483E00
311.85	1.2712E00
312.22	7.5343E-01
312.58	9.5211E-01
312.95	1.4550E00
313.31	1.4625E00
313.68	1.1255E00
314.05	1.4175E00
314.41	2.0129E00
314.78	9.5591E-01
315.14	1.1561E00
315.51	2.3248E00
315.87	1.1715E00
316.24	1.1813E00
316.61	2.1007E00
316.97	1.8005E00
317.34	1.3450E00
317.70	2.4403E00
318.07	1.8447E00
318.43	1.4324E00
318.80	2.2088E00
319.16	1.8931E00
319.53	2.5491E00
319.89	1.4268E00
320.26	1.2140E00
320.62	2.7994E00
320.99	1.0405E00
321.35	1.6617E00
321.72	1.3386E00
322.08	1.5575E00
322.45	1.0761E00
322.81	2.9417E00
323.18	1.8057E00
323.54	1.2667E00
323.91	1.3163E00
324.27	1.0103E00
324.64	1.9424E00
325.00	1.6549E00
325.37	1.0560E00
325.73	1.6747E00
326.10	1.5085E00
326.46	1.3743E00
326.83	3.1573E00
327.19	2.3381E00
327.56	1.4375E00
327.92	1.9469E00
328.29	1.9514E00
328.65	1.5014E00
329.01	1.5038E00
329.38	1.6742E00
329.74	1.6766E00
330.11	1.1322E00
330.47	1.7437E00
330.84	2.2664E00
331.20	2.6667E00
331.56	1.9696E00
331.93	1.8065E00
332.29	2.5078E00
332.66	1.0012E00
333.02	2.1403E00
333.38	1.2806E00
333.75	1.3993E00
334.11	1.7165E00
334.48	1.3917E00
334.84	1.5336E00
335.20	1.5290E00
335.57	1.6386E00
335.93	4.0163E00
336.29	3.3924E00
336.66	1.4697E00
337.02	2.7505E00
337.38	1.1276E00
337.75	1.3342E00
338.11	1.5714E00
338.47	1.1596E00
338.84	1.2987E00
339.20	1.3026E00
339.56	1.4324E00
339.93	1.3502E00
340.29	1.7219E00
340.65	1.1550E00
341.02	2.1573E00
341.38	1.6272E00
341.74	2.2956E00
342.11	1.5945E00
342.47	1.2951E00
342.83	1.7429E00
343.20	1.2490E00
343.56	1.1399E00
343.92	1.6107E00
344.28	1.4361E00
344.65	1.9701E00
345.01	1.2432E00
345.37	2.0927E00
345.73	1.3722E00
346.10	1.1122E00
346.46	1.3588E00
346.82	1.5808E00
347.19	1.6441E00
347.55	1.3968E00
347.91	1.4090E00
348.27	1.5416E00
348.63	1.7558E00
349.00	1.1434E00
349.36	1.0834E00
349.72	1.2092E00
350.08	1.8661E00
350.45	1.4818E00
350.81	1.5295E00
351.17	1.0733E00
351.53	1.3952E00
351.89	1.5110E00
352.26	1.2543E00
352.62	1.4127E00
352.98	1.1622E00
353.34	1.0241E00
353.70	1.3026E00
354.07	1.0883E00
354.43	1.0921E00
354.79	1.2089E00
355.15	9.2762E-01
355.51	1.3861E00
355.87	1.3023E00
356.24	9.6926E-01
356.60	1.3712E00
356.96	1.1893E00
357.32	1.2196E00
357.68	1.1557E00
358.04	1.1623E00
358.40	1.0678E00
358.77	1.2477E00
359.13	1.1633E00
359.49	1.4716E00
359.85	1.3849E00
360.21	1.0366E00
360.57	1.0127E00
360.93	1.1091E00
361.29	1.0831E00
361.66	1.2360E00
362.02	9.9101E-01
362.38	1.1159E00
362.74	1.0596E00
363.10	1.1792E00
363.46	1.2138E00
363.82	1.2719E00
364.18	1.1090E00
364.54	1.1580E00
364.90	9.3454E-01
365.26	9.8296E-01
365.62	1.0943E00
365.98	1.0335E00
366.35	1.0309E00
366.71	8.3344E-01
367.07	1.3910E00
367.43	1.2141E00
367.79	1.0526E00
368.15	1.0264E00
368.51	1.1514E00
368.87	1.0624E00
369.23	1.2482E00
369.59	9.8725E-01
369.95	1.3975E00
370.31	1.1099E00
370.67	1.1646E00
371.03	1.0050E00
371.39	9.8228E-01
371.75	1.2496E00
372.11	1.1103E00
372.47	9.6872E-01
372.83	1.1186E00
373.19	1.1692E00
373.55	1.0511E00
373.91	1.1634E00
374.27	8.9432E-01
374.63	1.0243E00
374.99	9.6319E-01
375.35	1.0646E00
375.71	1.0416E00
376.07	9.7084E-01
376.42	1.0703E00
376.78	9.8808E-01
377.14	9.3521E-01
377.50	1.0562E00
377.86	9.8772E-01
378.22	1.1561E00
378.58	9.2745E-01
378.94	1.0228E00
379.30	8.3738E-01
379.66	9.3743E-01
380.02	1.0237E00
380.38	8.7350E-01
380.74	9.6330E-01
381.09	9.6415E-01
381.45	8.9159E-01
381.81	9.0026E-01
382.17	8.8877E-01
382.53	8.4171E-01
382.89	7.9874E-01
383.25	9.2920E-01
383.61	9.2441E-01
383.97	9.7608E-01
384.32	9.8525E-01
384.68	9.2333E-01
385.04	9.0613E-01
385.40	9.2071E-01
385.76	7.3647E-01
386.12	9.1284E-01
386.48	8.1551E-01
386.83	8.9935E-01
387.19	8.7291E-01
387.55	9.4884E-01
387.91	9.1917E-01
388.27	8.3377E-01
388.62	8.3570E-01
388.98	8.5468E-01
389.34	8.8335E-01
389.70	8.6515E-01
390.06	8.5758E-01
390.42	8.4084E-01
390.77	8.2037E-01
391.13	8.7568E-01
391.49	8.4842E-01
391.85	9.2401E-01
392.20	8.4520E-01
392.56	8.7695E-01
392.92	8.3735E-01
393.28	8.3642E-01
393.64	8.6086E-01
393.99	8.8317E-01
394.35	8.1480E-01
394.71	9.2333E-01
395.07	8.5867E-01
395.42	8.2404E-01
395.78	8.1414E-01
396.14	8.2091E-01
396.50	7.6995E-01
396.85	8.9201E-01
397.21	9.2402E-01
397.57	8.3390E-01
397.92	8.5363E-01
398.28	7.6516E-01
398.64	8.1387E-01
399.00	7.7775E-01
399.35	7.6824E-01
399.71	8.1624E-01
400.07	8.0939E-01
400.42	8.1301E-01
400.78	7.8211E-01
401.14	7.7659E-01
401.49	7.8293E-01
401.85	7.8312E-01
402.21	7.1126E-01
402.57	7.4317E-01
402.92	8.0118E-01
403.28	7.9845E-01
403.63	7.8319E-01
403.99	8.0884E-01
404.35	7.4868E-01
404.70	7.5450E-01
405.06	7.4299E-01
405.42	7.9679E-01
405.77	7.2816E-01
406.13	7.0781E-01
406.49	6.7864E-01
406.84	6.9972E-01
407.20	7.4500E-01
407.55	7.6814E-01
407.91	7.7805E-01
408.27	7.0810E-01
408.62	6.9318E-01
408.98	7.2324E-01
409.34	7.0945E-01
409.69	7.4738E-01
410.05	6.9830E-01
410.40	7.0460E-01
410.76	6.7879E-01
411.11	7.0477E-01
411.47	7.2200E-01
411.83	6.8716E-01
412.18	6.8563E-01
412.54	6.8209E-01
412.89	6.9872E-01
413.25	6.5136E-01
413.60	6.7255E-01
413.96	7.1624E-01
414.31	6.7517E-01
414.67	7.0422E-01
415.03	7.1247E-01
415.38	7.4240E-01
415.74	7.1097E-01
416.09	7.0290E-01
416.45	7.2695E-01
416.80	6.9822E-01
417.16	6.9799E-01
417.51	6.8943E-01
417.87	7.0943E-01
418.22	6.6421E-01
418.58	6.8571E-01
418.93	6.4305E-01
419.29	6.7961E-01
419.64	6.4776E-01
420.00	6.6734E-01
420.35	6.5982E-01
420.71	6.3599E-01
421.06	6.6052E-01
421.42	6.9387E-01
421.77	6.5230E-01
422.12	6.6590E-01
422.48	6.4155E-01
422.83	6.7170E-01
423.19	6.3551E-01
423.54	6.5931E-01
423.90	6.4208E-01
424.25	6.3061E-01
424.61	6.6068E-01
424.96	6.3086E-01
425.31	6.1148E-01
425.67	6.0616E-01
426.02	6.1834E-01
426.38	6.1886E-01
426.73	6.1001E-01
427.09	6.1927E-01
427.44	5.8911E-01
427.79	6.0411E-01
428.15	6.0738E-01
428.50	6.1542E-01
428.85	6.3299E-01
429.21	5.7292E-01
429.56	5.8209E-01
429.92	5.7521E-01
430.27	5.9124E-01
430.62	6.0969E-01
430.98	6.1632E-01
431.33	5.9851E-01
431.68	5.8568E-01
432.04	5.7823E-01
432.39	5.7772E-01
432.74	6.0217E-01
433.10	5.5683E-01
433.45	5.9581E-01
433.80	5.8455E-01
434.16	5.7831E-01
434.51	5.7211E-01
434.86	5.9052E-01
435.22	5.6299E-01
435.57	6.1389E-01
435.92	5.9010E-01
436.28	5.5499E-01
436.63	5.6109E-01
436.98	5.6437E-01
437.34	5.8642E-01
437.69	5.6390E-01
438.04	5.4417E-01
438.39	5.8482E-01
438.75	5.6891E-01
439.10	5.5359E-01
439.45	5.8013E-01
439.81	5.8184E-01
440.16	5.4826E-01
440.51	5.6077E-01
440.86	5.8844E-01
441.22	5.6395E-01
441.57	5.4305E-01
441.92	5.4216E-01
442.27	5.5932E-01
442.63	5.5090E-01
442.98	5.8047E-01
443.33	5.7059E-01
443.68	5.3573E-01
444.03	5.2816E-01
444.39	5.2167E-01
444.74	5.6568E-01
445.09	5.6963E-01
445.44	5.6019E-01
445.79	5.1155E-01
446.15	5.4571E-01
446.50	5.5113E-01
446.85	5.1965E-01
447.20	5.1726E-01
447.55	5.4396E-01
447.91	5.3962E-01
448.26	5.4957E-01
448.61	5.3734E-01
448.96	5.1932E-01
449.31	5.3030E-01
449.66	5.3747E-01
450.02	5.3401E-01
450.37	5.3586E-01
450.72	5.2347E-01
451.07	5.6557E-01
451.42	5.6892E-01
451.77	5.3833E-01
452.12	5.2883E-01
452.47	5.6375E-01
452.83	5.2259E-01
453.18	5.3777E-01
453.53	5.3317E-01
453.88	4.9677E-01
454.23	5.0702E-01
454.58	5.0207E-01
454.93	5.1496E-01
455.28	5.1492E-01
455.63	5.0521E-01
455.98	4.9846E-01
456.34	5.2459E-01
456.69	5.1422E-01
457.04	5.1454E-01
457.39	4.8657E-01
457.74	4.9179E-01
458.09	4.9315E-01
458.44	4.8562E-01
458.79	4.7472E-01
459.14	4.7712E-01
459.49	5.0319E-01
459.84	4.8267E-01
460.19	5.0723E-01
460.54	5.1894E-01
460.89	4.7121E-01
461.24	5.0767E-01
461.59	4.9038E-01
461.94	5.0203E-01
462.29	4.6207E-01
462.64	4.9465E-01
462.99	5.0216E-01
463.34	5.2166E-01
463.69	4.8081E-01
464.04	4.6093E-01
464.39	4.6735E-01
464.74	4.8437E-01
465.09	4.9867E-01
465.44	4.6401E-01
465.79	4.7932E-01
466.14	4.7748E-01
466.49	4.7389E-01
466.84	4.7229E-01
467.19	4.7777E-01
467.54	4.7652E-01
467.89	4.6362E-01
468.24	4.4413E-01
468.59	4.5156E-01
468.94	4.5195E-01
469.29	4.4936E-01
469.64	4.6100E-01
469.99	4.5260E-01
470.34	4.3219E-01
470.68	4.6590E-01
471.03	4.4194E-01
471.38	4.3764E-01
471.73	4.2771E-01
472.08	4.2072E-01
472.43	4.0716E-01
472.78	4.3184E-01
473.13	4.2858E-01
473.48	4.1779E-01
473.83	4.0742E-01
474.17	4.2394E-01
474.52	4.1070E-01
474.87	3.9599E-01
475.22	4.0316E-01
475.57	3.8220E-01
475.92	3.6834E-01
476.27	3.9128E-01
476.61	3.7519E-01
476.96	3.7035E-01
477.31	3.4900E-01
477.66	3.6140E-01
478.01	3.5421E-01
478.36	3.5457E-01
478.70	3.4714E-01
479.05	3.4950E-01
479.40	3.4131E-01
479.75	3.4228E-01
480.10	3.3457E-01
480.45	3.2975E-01
480.79	3.2755E-01
481.14	3.3332E-01
481.49	3.2795E-01
481.84	3.1836E-01
482.19	3.1148E-01
482.53	3.1761E-01
482.88	3.1165E-01
483.23	3.0779E-01
483.58	3.0375E-01
483.92	3.1092E-01
484.27	2.9810E-01
484.62	2.9839E-01
484.97	2.9233E-01
485.31	2.8850E-01
485.66	2.9374E-01
486.01	2.9452E-01
486.36	2.8420E-01
486.70	2.8882E-01
487.05	2.8787E-01
487.40	2.8459E-01
487.75	2.7950E-01
488.09	2.7921E-01
488.44	2.8259E-01
488.79	2.8037E-01
489.13	2.7612E-01
489.48	2.7643E-01
489.83	2.7929E-01
490.17	2.7084E-01
490.52	2.7034E-01
490.87	2.7107E-01
491.22	2.7465E-01
491.56	2.7357E-01
491.91	2.7595E-01
492.26	2.7346E-01
492.60	2.7256E-01
492.95	2.7471E-01
493.30	2.7390E-01
493.64	2.7056E-01
493.99	2.7533E-01
494.34	2.7099E-01
494.68	2.6694E-01
495.03	2.7217E-01
495.37	2.6848E-01
495.72	2.7260E-01
496.07	2.6594E-01
496.41	2.6936E-01
496.76	2.6890E-01
497.11	2.7021E-01
497.45	2.6984E-01
497.80	2.7083E-01
498.14	2.6734E-01
498.49	2.7165E-01
498.84	2.6954E-01
499.18	2.7041E-01
499.53	2.6952E-01
499.87	2.6505E-01
500.22	2.7241E-01
500.56	2.6926E-01
500.91	2.7032E-01
501.26	2.6788E-01
501.60	2.6974E-01
501.95	2.6744E-01
502.29	2.6884E-01
502.64	2.6696E-01
502.98	2.7092E-01
503.33	2.6654E-01
503.67	2.6956E-01
504.02	2.6800E-01
504.36	2.6703E-01
504.71	2.6853E-01
505.06	2.6674E-01
505.40	2.6502E-01
505.75	2.6592E-01
506.09	2.6565E-01
506.44	2.6524E-01
506.78	2.6692E-01
507.13	2.6751E-01
507.47	2.6494E-01
507.82	2.6446E-01
508.16	2.6503E-01
508.51	2.6401E-01
508.85	2.6085E-01
509.19	2.6183E-01
509.54	2.6381E-01
509.88	2.6324E-01
510.23	2.5873E-01
510.57	2.5940E-01
510.92	2.6134E-01
511.26	2.6090E-01
511.61	2.6126E-01
511.95	2.5908E-01
512.30	2.5879E-01
512.64	2.5977E-01
512.98	2.5868E-01
513.33	2.5944E-01
513.67	2.5754E-01
514.02	2.5871E-01
514.36	2.5577E-01
514.70	2.5654E-01
515.05	2.5532E-01
515.39	2.5590E-01
515.74	2.5649E-01
516.08	2.5734E-01
516.42	2.5411E-01
516.77	2.5586E-01
517.11	2.5370E-01
517.46	2.5451E-01
517.80	2.5389E-01
518.14	2.5331E-01
518.49	2.5273E-01
518.83	2.5208E-01
519.17	2.5551E-01
519.52	2.5326E-01
519.86	2.5389E-01
520.20	2.5161E-01
520.55	2.5295E-01
520.89	2.5155E-01
521.23	2.5282E-01
521.58	2.5405E-01
521.92	2.5301E-01
522.26	2.5637E-01
522.61	2.5233E-01
522.95	2.5403E-01
523.29	2.5091E-01
523.64	2.5222E-01
523.98	2.5423E-01
524.32	2.5422E-01
524.66	2.5443E-01
525.01	2.5456E-01
525.35	2.5613E-01
525.69	2.5597E-01
526.04	2.5769E-01
526.38	2.5218E-01
526.72	2.5849E-01
527.06	2.5550E-01
527.41	2.5881E-01
527.75	2.5958E-01
528.09	2.5675E-01
528.43	2.6106E-01
528.78	2.5928E-01
529.12	2.6374E-01
529.46	2.6199E-01
529.80	2.6269E-01
530.15	2.6251E-01
530.49	2.6378E-01
530.83	2.6628E-01
531.17	2.6541E-01
531.51	2.6729E-01
531.86	2.6536E-01
532.20	2.6879E-01
532.54	2.6835E-01
532.88	2.7011E-01
533.22	2.7232E-01
533.57	2.7627E-01
533.91	2.7160E-01
534.25	2.7309E-01
534.59	2.7364E-01
534.93	2.7301E-01
535.27	2.7352E-01
535.62	2.7902E-01
535.96	2.7792E-01
536.30	2.7719E-01
536.64	2.7892E-01
536.98	2.8283E-01
537.32	2.7972E-01
537.66	2.8282E-01
538.01	2.8217E-01
538.35	2.8561E-01
538.69	2.8437E-01
539.03	2.8841E-01
539.37	2.8644E-01
539.71	2.8846E-01
540.05	2.8716E-01
540.39	2.8772E-01
540.73	2.8898E-01
541.07	2.8795E-01
541.42	2.8816E-01
541.76	2.8976E-01
542.10	2.9190E-01
542.44	2.9204E-01
542.78	2.9479E-01
543.12	2.8959E-01
543.46	2.9587E-01
543.80	2.9133E-01
544.14	2.9337E-01
544.48	2.9125E-01
544.82	2.9601E-01
545.16	2.9498E-01
545.50	2.9450E-01
545.84	2.9928E-01
546.18	2.9588E-01
546.52	2.9709E-01
546.86	2.9573E-01
547.20	3.0132E-01
547.54	3.0347E-01
547.88	2.9875E-01
548.22	2.9937E-01
548.56	3.0236E-01
548.90	3.0248E-01
549.24	3.0231E-01
549.58	3.0326E-01
549.92	3.0329E-01
550.26	3.0447E-01
550.60	3.0368E-01
550.94	3.0235E-01
551.28	3.0692E-01
551.62	3.0302E-01
551.96	3.0536E-01
552.30	3.0688E-01
552.64	3.0676E-01
552.98	3.0673E-01
553.32	3.0735E-01
553.66	3.0762E-01
554.00	3.0408E-01
554.34	3.0658E-01
554.68	3.0661E-01
555.02	3.0543E-01
555.36	3.0927E-01
555.69	3.1097E-01
556.03	3.0647E-01
556.37	3.0929E-01
556.71	3.0686E-01
557.05	3.0700E-01
557.39	3.0911E-01
557.73	3.0689E-01
558.07	3.0934E-01
558.41	3.0931E-01
558.75	3.1054E-01
559.08	3.0868E-01
559.42	3.0770E-01
559.76	3.1011E-01
560.10	3.1099E-01
560.44	3.1113E-01
560.78	3.0739E-01
561.12	3.1176E-01
561.45	3.1209E-01
561.79	3.1023E-01
562.13	3.0963E-01
562.47	3.1026E-01
562.81	3.1191E-01
563.15	3.1235E-01
563.48	3.1260E-01
563.82	3.0877E-01
564.16	3.1153E-01
564.50	3.1425E-01
564.84	3.1035E-01
565.17	3.1120E-01
565.51	3.0969E-01
565.85	3.1359E-01
566.19	3.0975E-01
566.52	3.1397E-01
566.86	3.1152E-01
567.20	3.1573E-01
567.54	3.1423E-01
567.88	3.1446E-01
568.21	3.1520E-01
568.55	3.1435E-01
568.89	3.1505E-01
569.23	3.1517E-01
569.56	3.1424E-01
569.90	3.1436E-01
570.24	3.1830E-01
570.57	3.1569E-01
570.91	3.1752E-01
571.25	3.1628E-01
571.59	3.1681E-01
571.92	3.1764E-01
572.26	3.1793E-01
572.60	3.1980E-01
572.93	3.1817E-01
573.27	3.2374E-01
573.61	3.2343E-01
573.95	3.1593E-01
574.28	3.2388E-01
574.62	3.2350E-01
574.96	3.2622E-01
575.29	3.2517E-01
575.63	3.2918E-01
575.97	3.2693E-01
576.30	3.3228E-01
576.64	3.2829E-01
576.98	3.3082E-01
577.31	3.3232E-01
577.65	3.3528E-01
577.98	3.2962E-01
578.32	3.3656E-01
578.66	3.3900E-01
578.99	3.3765E-01
579.33	3.4008E-01
579.67	3.3906E-01
580.00	3.4045E-01
580.34	3.4075E-01
580.67	3.4368E-01
581.01	3.4217E-01
581.35	3.4461E-01
581.68	3.4553E-01
582.02	3.4726E-01
582.35	3.4587E-01
582.69	3.4852E-01
583.02	3.5388E-01
583.36	3.5360E-01
583.70	3.5294E-01
584.03	3.5341E-01
584.37	3.5306E-01
584.70	3.5624E-01
585.04	3.5924E-01
585.37	3.5747E-01
585.71	3.6151E-01
586.04	3.6159E-01
586.38	3.5889E-01
586.72	3.6702E-01
587.05	3.6171E-01
587.39	3.6536E-01
587.72	3.6311E-01
588.06	3.6829E-01
588.39	3.6330E-01
588.73	3.7079E-01
589.06	3.6886E-01
589.40	3.7198E-01
589.73	3.7438E-01
590.07	3.7445E-01
590.40	3.7649E-01
590.73	3.7885E-01
591.07	3.7770E-01
591.40	3.8084E-01
591.74	3.7479E-01
592.07	3.8112E-01
592.41	3.8254E-01
592.74	3.8349E-01
593.08	3.7979E-01
593.41	3.8257E-01
593.75	3.8473E-01
594.08	3.8884E-01
594.41	3.8767E-01
594.75	3.8932E-01
595.08	3.8743E-01
595.42	3.8427E-01
595.75	3.8731E-01
596.09	3.9093E-01
596.42	3.8865E-01
596.75	3.8961E-01
597.09	3.9541E-01
597.42	3.8827E-01
597.75	3.9683E-01
598.09	3.9539E-01
598.42	3.9321E-01
598.76	3.9316E-01
599.09	3.9720E-01
599.42	3.9848E-01
599.76	3.9641E-01
600.09	3.9875E-01
600.42	4.0239E-01
600.76	3.9344E-01
601.09	3.9658E-01
601.42	4.0612E-01
601.76	4.0281E-01
602.09	4.0115E-01
602.42	3.9997E-01
602.76	3.9998E-01
603.09	4.0084E-01
603.42	4.0400E-01
603.76	4.0111E-01
604.09	4.0327E-01
604.42	4.0310E-01
604.76	4.0065E-01
605.09	4.0625E-01
605.42	4.0268E-01
605.75	4.0467E-01
606.09	4.0742E-01
606.42	4.0620E-01
606.75	4.0922E-01
607.09	4.0630E-01
607.42	4.0532E-01
607.75	4.0691E-01
608.08	4.0817E-01
608.42	4.1062E-01
608.75	4.0796E-01
609.08	4.1171E-01
609.41	4.0991E-01
609.75	4.0779E-01
610.08	4.1157E-01
610.41	4.1159E-01
610.74	4.1174E-01
611.07	4.1232E-01
611.41	4.0785E-01
611.74	4.1172E-01
612.07	4.1096E-01
612.40	4.0816E-01
612.73	4.1213E-01
613.07	4.1714E-01
613.40	4.1073E-01
613.73	4.1037E-01
614.06	4.1521E-01
614.39	4.1232E-01
614.72	4.1726E-01
615.06	4.1526E-01
615.39	4.1938E-01
615.72	4.1523E-01
616.05	4.2037E-01
616.38	4.2065E-01
616.71	4.1880E-01
617.05	4.1611E-01
617.38	4.2047E-01
617.71	4.1977E-01
618.04	4.1938E-01
618.37	4.1528E-01
618.70	4.1937E-01
619.03	4.1965E-01
619.36	4.1260E-01
619.69	4.2120E-01
620.03	4.1813E-01
620.36	4.1874E-01
620.69	4.1799E-01
621.02	4.1648E-01
621.35	4.1714E-01
621.68	4.1528E-01
622.01	4.1833E-01
622.34	4.1740E-01
622.67	4.1735E-01
623.00	4.1734E-01
623.33	4.1593E-01
623.66	4.1794E-01
623.99	4.1945E-01
624.32	4.1324E-01
624.65	4.1607E-01
624.99	4.1579E-01
625.32	4.2070E-01
625.65	4.1788E-01
625.98	4.1373E-01
626.31	4.1666E-01
626.64	4.2051E-01
626.97	4.1890E-01
627.30	4.1507E-01
627.63	4.1416E-01
627.96	4.1342E-01
628.29	4.1471E-01
628.62	4.1786E-01
628.95	4.1705E-01
629.28	4.1282E-01
629.61	4.2266E-01
629.94	4.1947E-01
630.26	4.2148E-01
630.59	4.2165E-01
630.92	4.1999E-01
631.25	4.1997E-01
631.58	4.2768E-01
631.91	4.2200E-01
632.24	4.2675E-01
632.57	4.2571E-01
632.90	4.2703E-01
633.23	4.2487E-01
633.56	4.2831E-01
633.89	4.2773E-01
634.22	4.2937E-01
634.55	4.3000E-01
634.88	4.3357E-01
635.20	4.3435E-01
635.53	4.3935E-01
635.86	4.3613E-01
636.19	4.4249E-01
636.52	4.4262E-01
636.85	4.4290E-01
637.18	4.4691E-01
637.51	4.4613E-01
637.83	4.4993E-01
638.16	4.4786E-01
638.49	4.5552E-01
638.82	4.5023E-01
639.15	4.5783E-01
639.48	4.5756E-01
639.81	4.6449E-01
640.13	4.5981E-01
640.46	4.6826E-01
640.79	4.6498E-01
641.12	4.7062E-01
641.45	4.6675E-01
641.77	4.6708E-01
642.10	4.7885E-01
642.43	4.8036E-01
642.76	4.8405E-01
643.09	4.7956E-01
643.41	4.8363E-01
643.74	4.8319E-01
644.07	4.8627E-01
644.40	4.8595E-01
644.73	4.9346E-01
645.05	4.9376E-01
645.38	4.9228E-01
645.71	4.9999E-01
646.04	4.9850E-01
646.36	4.9855E-01
646.69	5.0732E-01
647.02	5.0925E-01
647.35	5.0393E-01
647.67	5.1194E-01
648.00	5.0981E-01
648.33	5.1437E-01
648.66	5.1215E-01
648.98	5.1862E-01
649.31	5.1622E-01
649.64	5.1864E-01
649.96	5.2237E-01
650.29	5.2996E-01
650.62	5.2605E-01
650.94	5.2620E-01
651.27	5.2923E-01
651.60	5.2602E-01
651.92	5.3717E-01
652.25	5.4050E-01
652.58	5.3881E-01
652.90	5.3775E-01
653.23	5.3874E-01
653.56	5.4196E-01
653.88	5.4549E-01
654.21	5.4414E-01
654.54	5.4812E-01
654.86	5.5428E-01
655.19	5.5109E-01
655.52	5.5672E-01
655.84	5.5084E-01
656.17	5.5890E-01
656.49	5.5814E-01
656.82	5.5509E-01
657.15	5.6158E-01
657.47	5.6353E-01
657.80	5.6541E-01
658.13	5.6404E-01
658.45	5.6693E-01
658.78	5.6754E-01
659.10	5.7271E-01
659.43	5.7006E-01
659.75	5.7241E-01
660.08	5.7078E-01
660.41	5.8225E-01
660.73	5.7842E-01
661.06	5.7821E-01
661.38	5.8201E-01
661.71	5.8573E-01
662.03	5.8215E-01
662.36	5.8966E-01
662.68	5.8583E-01
663.01	5.8109E-01
663.33	5.8934E-01
663.66	5.9171E-01
663.98	5.9019E-01
664.31	5.9153E-01
664.63	6.0407E-01
664.96	5.8978E-01
665.28	5.9710E-01
665.61	5.9899E-01
665.93	5.9921E-01
666.26	5.9882E-01
666.58	6.0358E-01
666.91	6.0502E-01
667.23	6.1101E-01
667.56	6.0533E-01
667.88	6.0826E-01
668.21	6.1252E-01
668.53	6.0944E-01
668.86	6.1768E-01
669.18	6.1200E-01
669.50	6.2139E-01
669.83	6.1526E-01
670.15	6.2004E-01
670.48	6.2164E-01
670.80	6.2035E-01
671.13	6.2069E-01
671.45	6.2441E-01
671.77	6.2410E-01
672.10	6.2150E-01
672.42	6.3667E-01
672.75	6.3032E-01
673.07	6.3487E-01
673.39	6.2910E-01
673.72	6.3274E-01
674.04	6.3765E-01
674.37	6.3730E-01
674.69	6.3613E-01
675.01	6.3989E-01
675.34	6.4679E-01
675.66	6.4508E-01
675.98	6.3959E-01
676.31	6.4941E-01
676.63	6.4683E-01
676.95	6.4866E-01
677.28	6.5561E-01
677.60	6.5654E-01
677.92	6.5107E-01
678.25	6.5937E-01
678.57	6.6009E-01
678.89	6.5563E-01
679.22	6.6592E-01
679.54	6.6298E-01
679.86	6.6531E-01
680.18	6.7031E-01
680.51	6.6314E-01
680.83	6.7920E-01
681.15	6.7085E-01
681.48	6.7462E-01
681.80	6.7522E-01
682.12	6.7209E-01
682.44	6.8484E-01
682.77	6.8688E-01
683.09	6.8983E-01
683.41	6.8480E-01
683.73	6.9331E-01
684.06	6.8982E-01
684.38	6.9286E-01
684.70	6.9604E-01
685.02	6.9795E-01
685.34	7.0402E-01
685.67	7.0063E-01
685.99	7.1574E-01
686.31	7.0501E-01
686.63	7.1446E-01
686.96	7.1832E-01
687.28	7.2222E-01
687.60	7.0975E-01
687.92	7.1738E-01
688.24	7.2710E-01
688.56	7.3366E-01
688.89	7.2623E-01
689.21	7.3554E-01
689.53	7.3147E-01
689.85	7.4031E-01
690.17	7.3562E-01
690.49	7.4876E-01
690.82	7.4821E-01
691.14	7.4760E-01
691.46	7.5080E-01
691.78	7.5451E-01
692.10	7.5172E-01
692.42	7.6146E-01
692.74	7.6778E-01
693.06	7.6485E-01
693.39	7.7509E-01
693.71	7.7929E-01
694.03	7.8069E-01
694.35	7.8421E-01
694.67	7.8495E-01
694.99	7.9733E-01
695.31	7.9161E-01
695.63	7.9665E-01
695.95	8.0254E-01
696.27	8.0265E-01
696.59	8.0458E-01
696.91	8.1345E-01
697.23	8.1951E-01
697.56	8.2018E-01
697.88	8.1895E-01
698.20	8.2392E-01
698.52	8.2901E-01
698.84	8.3602E-01
699.16	8.3917E-01
699.48	8.3585E-01
699.80	8.4368E-01
700.12	8.5364E-01
700.44	8.5400E-01
700.76	8.5889E-01
701.08	8.6745E-01
701.40	8.6512E-01
701.72	8.7063E-01
702.04	8.7305E-01
702.36	8.8092E-01
702.68	8.8705E-01
703.00	8.9021E-01
703.32	8.9450E-01
703.64	9.0144E-01
703.96	8.9317E-01
704.28	8.9773E-01
704.60	9.0593E-01
704.91	9.1436E-01
705.23	9.1330E-01
705.55	9.2791E-01
705.87	9.2431E-01
706.19	9.2423E-01
706.51	9.3156E-01
706.83	9.3493E-01
707.15	9.5419E-01
707.47	9.4530E-01
707.79	9.6091E-01
708.11	9.5732E-01
708.43	9.6407E-01
708.74	9.7102E-01
709.06	9.8052E-01
709.38	9.7900E-01
709.70	9.8059E-01
710.02	9.9030E-01
710.34	9.8482E-01
710.66	1.0010E00
710.98	1.0073E00
711.29	1.0108E00
711.61	1.0221E00
711.93	1.0233E00
712.25	1.0188E00
712.57	1.0325E00
712.89	1.0420E00
713.20	1.0394E00
713.52	1.0442E00
713.84	1.0638E00
714.16	1.0540E00
714.48	1.0539E00
714.80	1.0742E00
715.11	1.0719E00
715.43	1.0805E00
715.75	1.0807E00
716.07	1.1095E00
716.39	1.0800E00
716.70	1.0976E00
717.02	1.0902E00
717.34	1.1148E00
717.66	1.1134E00
717.97	1.1164E00
718.29	1.1301E00
718.61	1.1334E00
718.93	1.1499E00
719.24	1.1479E00
719.56	1.1537E00
719.88	1.1678E00
720.20	1.1767E00
720.51	1.1879E00
720.83	1.1803E00
721.15	1.2082E00
721.46	1.2023E00
721.78	1.2140E00
722.10	1.2302E00
722.42	1.2305E00
722.73	1.2421E00
723.05	1.2413E00
723.37	1.2519E00
723.68	1.2810E00
724.00	1.2642E00
724.32	1.2851E00
724.63	1.2717E00
724.95	1.2838E00
725.27	1.2886E00
725.58	1.2942E00
725.90	1.2888E00
726.22	1.3102E00
726.53	1.3007E00
726.85	1.3090E00
727.16	1.3171E00
727.48	1.3208E00
727.80	1.3254E00
728.11	1.3366E00
728.43	1.3226E00
728.74	1.3238E00
729.06	1.3518E00
729.38	1.3498E00
729.69	1.3515E00
730.01	1.3619E00
730.32	1.3728E00
730.64	1.3702E00
730.96	1.3534E00
731.27	1.3902E00
731.59	1.3696E00
731.90	1.3673E00
732.22	1.3793E00
732.53	1.3969E00
732.85	1.4120E00
733.16	1.3994E00
733.48	1.3936E00
733.80	1.3894E00
734.11	1.4174E00
734.43	1.4395E00
734.74	1.4261E00
735.06	1.4399E00
735.37	1.4355E00
735.69	1.4418E00
736.00	1.4494E00
736.32	1.4482E00
736.63	1.4640E00
736.95	1.4708E00
737.26	1.4900E00
737.58	1.4778E00
737.89	1.4845E00
738.21	1.4778E00
738.52	1.4881E00
738.83	1.5106E00
739.15	1.4942E00
739.46	1.5196E00
739.78	1.5088E00
740.09	1.5178E00
740.41	1.5186E00
740.72	1.5179E00
741.04	1.5209E00
741.35	1.5291E00
741.66	1.5484E00
741.98	1.5376E00
742.29	1.5448E00
742.61	1.5583E00
742.92	1.5345E00
743.23	1.5496E00
743.55	1.5608E00
743.86	1.5504E00
744.18	1.5588E00
744.49	1.5470E00
744.80	1.5435E00
745.12	1.5478E00
745.43	1.5662E00
745.74	1.5628E00
746.06	1.5534E00
746.37	1.5526E00
746.68	1.5558E00
747.00	1.5609E00
747.31	1.5581E00
747.62	1.5476E00
747.94	1.5558E00
748.25	1.5552E00
748.56	1.5596E00
748.88	1.5503E00
749.19	1.5634E00
749.50	1.5533E00
749.82	1.5642E00
750.13	1.5582E00
750.44	1.5571E00
750.75	1.5462E00
751.07	1.5552E00
751.38	1.5764E00
751.69	1.5569E00
752.01	1.5808E00
752.32	1.5723E00
752.63	1.5588E00
752.94	1.5638E00
753.26	1.5646E00
753.57	1.5660E00
753.88	1.5808E00
754.19	1.5696E00
754.51	1.5846E00
754.82	1.5719E00
755.13	1.6028E00
755.44	1.5856E00
755.75	1.5936E00
756.07	1.6077E00
756.38	1.6170E00
756.69	1.6094E00
757.00	1.6328E00
757.31	1.6382E00
757.63	1.6415E00
757.94	1.6483E00
758.25	1.6658E00
758.56	1.6355E00
758.87	1.6746E00
759.18	1.6758E00
759.50	1.6698E00
759.81	1.6767E00
760.12	1.6913E00
760.43	1.7057E00
760.74	1.7152E00
761.05	1.7341E00
761.36	1.7286E00
761.67	1.7531E00
761.99	1.7533E00
762.30	1.7334E00
762.61	1.7623E00
762.92	1.7846E00
763.23	1.7973E00
763.54	1.7954E00
763.85	1.8296E00
764.16	1.8357E00
764.47	1.8532E00
764.78	1.8535E00
765.10	1.8725E00
765.41	1.8904E00
765.72	1.8747E00
766.03	1.9288E00
766.34	1.9317E00
766.65	1.9437E00
766.96	1.9783E00
767.27	1.9797E00
767.58	1.9714E00
767.89	1.9919E00
768.20	2.0409E00
768.51	2.0442E00
768.82	2.0421E00
769.13	2.0500E00
769.44	2.1034E00
769.75	2.0970E00
770.06	2.1001E00
770.37	2.1092E00
770.68	2.1394E00
770.99	2.1764E00
771.30	2.1931E00
771.61	2.2395E00
771.92	2.2191E00
772.23	2.2343E00
772.54	2.2650E00
772.85	2.2679E00
773.16	2.3045E00
773.47	2.3456E00
773.78	2.3469E00
774.09	2.3534E00
774.39	2.3760E00
774.70	2.3749E00
775.01	2.4423E00
775.32	2.4519E00
775.63	2.4618E00
775.94	2.4793E00
776.25	2.4690E00
776.56	2.5263E00
776.87	2.5741E00
777.18	2.5675E00
777.48	2.6105E00
777.79	2.6331E00
778.10	2.6590E00
778.41	2.6825E00
778.72	2.6926E00
779.03	2.6873E00
779.34	2.7474E00
779.65	2.7508E00
779.95	2.7606E00
780.26	2.8086E00
780.57	2.8067E00
780.88	2.8170E00
781.19	2.8673E00
781.50	2.8538E00
781.80	2.9125E00
782.11	2.9375E00
782.42	2.9472E00
782.73	2.9567E00
783.04	3.0356E00
783.34	3.0504E00
783.65	3.0889E00
783.96	3.0532E00
784.27	3.0818E00
784.57	3.1212E00
784.88	3.1438E00
785.19	3.1908E00
785.50	3.1931E00
785.81	3.2351E00
786.11	3.2092E00
786.42	3.2821E00
786.73	3.3527E00
787.04	3.3427E00
787.34	3.3494E00
787.65	3.3592E00
787.96	3.4685E00
788.26	3.4996E00
788.57	3.4912E00
788.88	3.4624E00
789.19	3.5219E00
789.49	3.5413E00
789.80	3.6294E00
790.11	3.6536E00
790.41	3.6556E00
790.72	3.7096E00
791.03	3.7168E00
791.33	3.7499E00
791.64	3.7422E00
791.95	3.7749E00
792.25	3.8566E00
792.56	3.9190E00
792.87	3.9223E00
793.17	3.9201E00
793.48	3.9041E00
793.79	4.0062E00
794.09	4.0073E00
794.40	3.9846E00
794.70	3.9803E00
795.01	4.1011E00
795.32	4.0865E00
795.62	4.1631E00
795.93	4.1643E00
796.23	4.2021E00
796.54	4.2297E00
796.85	4.2176E00
797.15	4.2635E00
797.46	4.3015E00
797.76	4.3867E00
798.07	4.4125E00
798.37	4.4351E00
798.68	4.5106E00
798.99	4.5676E00
799.29	4.5521E00
799.60	4.6623E00
799.90	4.6472E00
800.21	4.6673E00
800.51	4.6888E00
800.82	4.7646E00
801.12	4.7985E00
801.43	4.8840E00
801.73	4.8574E00
802.04	4.8611E00
802.34	4.8673E00
802.65	4.9939E00
802.95	5.0928E00
803.26	5.0239E00
803.56	4.9972E00
803.87	5.0787E00
804.17	5.0604E00
804.48	5.2107E00
804.78	5.1527E00
805.09	5.2215E00
805.39	5.2169E00
805.70	5.3088E00
806.00	5.3061E00
806.30	5.2971E00
806.61	5.4080E00
806.91	5.4192E00
807.22	5.4336E00
807.52	5.5998E00
807.83	5.5051E00
808.13	5.5484E00
808.43	5.5552E00
808.74	5.6435E00
809.04	5.7054E00
809.35	5.6432E00
809.65	5.8159E00
809.95	5.9162E00
810.26	5.9451E00
810.56	5.8556E00
810.86	6.0208E00
811.17	6.0747E00
811.47	6.1247E00
811.77	6.0185E00
812.08	6.1705E00
812.38	6.2254E00
812.69	6.1334E00
812.99	6.2188E00
813.29	6.2144E00
813.59	6.3415E00
813.90	6.4029E00
814.20	6.4414E00
814.50	6.5705E00
814.81	6.4810E00
815.11	6.6308E00
815.41	6.8304E00
815.72	6.7125E00
816.02	6.7291E00
816.32	6.7931E00
816.62	6.6983E00
816.93	6.8192E00
817.23	6.9545E00
817.53	6.8597E00
817.84	7.1204E00
818.14	7.0437E00
818.44	7.0213E00
818.74	7.0760E00
819.04	7.4109E00
819.35	7.3311E00
819.65	7.2403E00
819.95	7.5690E00
820.25	7.5647E00
820.56	7.5273E00
820.86	7.5141E00
821.16	7.6716E00
821.46	7.6664E00
821.76	7.4833E00
822.07	7.5785E00
822.37	7.8629E00
822.67	7.8560E00
822.97	8.0505E00
823.27	8.0517E00
823.57	7.9656E00
823.88	8.0443E00
824.18	8.1470E00
824.48	7.9905E00
824.78	8.2894E00
825.08	8.3148E00
825.38	8.2559E00
825.69	8.2862E00
825.99	8.4125E00
826.29	8.3144E00
826.59	8.5763E00
826.89	8.7056E00
827.19	8.5691E00
827.49	8.8789E00
827.79	8.7583E00
828.09	8.9243E00
828.39	8.9744E00
828.70	8.7768E00
829.00	9.0414E00
829.30	9.1999E00
829.60	9.0753E00
829.90	9.3298E00
830.20	9.3404E00
830.50	9.4047E00
830.80	9.4454E00
831.10	9.5778E00
831.40	9.5499E00
831.70	9.5756E00
832.00	9.4054E00
832.30	9.9044E00
832.60	9.6033E00
832.90	9.9513E00
833.20	9.9863E00
833.50	9.9009E00
833.80	1.0026E01
834.10	1.0306E01
834.40	1.0082E01
834.70	1.0147E01
835.00	1.0453E01
835.30	1.0447E01
835.60	1.0541E01
835.90	1.0587E01
836.20	1.0647E01
836.50	1.0709E01
836.80	1.0850E01
837.10	1.0698E01
837.40	1.0572E01
837.70	1.1133E01
838.00	1.1145E01
838.30	1.1271E01
838.60	1.1253E01
838.90	1.1093E01
839.19	1.1303E01
839.49	1.1663E01
839.79	1.1468E01
840.09	1.1551E01
840.39	1.1517E01
840.69	1.1573E01
840.99	1.2123E01
841.29	1.1607E01
841.59	1.1964E01
841.88	1.2276E01
842.18	1.2011E01
842.48	1.2263E01
842.78	1.2357E01
843.08	1.2719E01
843.38	1.2700E01
843.68	1.3029E01
843.97	1.2783E01
844.27	1.2790E01
844.57	1.2716E01
844.87	1.2958E01
845.17	1.3130E01
845.47	1.3232E01
845.76	1.3244E01
846.06	1.3502E01
846.36	1.3552E01
846.66	1.3358E01
846.96	1.3395E01
847.25	1.3879E01
847.55	1.3891E01
847.85	1.4207E01
848.15	1.4055E01
848.44	1.4040E01
848.74	1.4482E01
849.04	1.4655E01
849.34	1.4782E01
849.63	1.4507E01
849.93	1.4870E01
850.23	1.5136E01
850.53	1.5099E01
850.82	1.5150E01
851.12	1.5604E01
851.42	1.5384E01
851.71	1.5176E01
852.01	1.5797E01
852.31	1.5810E01
852.61	1.5704E01
852.90	1.6067E01
853.20	1.6242E01
853.50	1.6096E01
853.79	1.6808E01
854.09	1.6361E01
854.39	1.6720E01
854.68	1.7031E01
854.98	1.6912E01
855.28	1.6834E01
855.57	1.7405E01
855.87	1.7515E01
856.17	1.7511E01
856.46	1.7922E01
856.76	1.7828E01
857.05	1.7905E01
857.35	1.7905E01
857.65	1.8106E01
857.94	1.8190E01
858.24	1.7935E01
858.53	1.8713E01
858.83	1.9408E01
859.13	1.9214E01
859.42	1.9023E01
859.72	1.9348E01
860.01	1.9574E01
860.31	1.9785E01
860.60	2.0090E01
860.90	1.9464E01
861.20	2.0585E01
861.49	2.0112E01
861.79	2.0459E01
862.08	2.0648E01
862.38	2.0954E01
862.67	2.2061E01
862.97	2.0898E01
863.26	2.1082E01
863.56	2.1915E01
863.85	2.1852E01
864.15	2.2342E01
864.44	2.1382E01
864.74	2.2321E01
865.03	2.3243E01
865.33	2.2686E01
865.62	2.3662E01
865.92	2.3343E01
866.21	2.4136E01
866.51	2.4189E01
866.80	2.3810E01
867.10	2.4177E01
867.39	2.4827E01
867.69	2.5011E01
867.98	2.4795E01
868.27	2.5969E01
868.57	2.4923E01
868.86	2.6184E01
869.16	2.5852E01
869.45	2.6565E01
869.75	2.6817E01
870.04	2.6343E01
870.33	2.7443E01
870.63	2.7450E01
870.92	2.6670E01
871.22	2.7956E01
871.51	2.8843E01
871.80	2.8426E01
872.10	2.8426E01
>>>>>End Processed Spectral Data<<<<<
