SpectraSuite Data File
++++++++++++++++++++++++++++++++++++
Date: Sat May 16 09:10:08 PDT 2015
User: schluterlab
Dark Spectrum Present: Yes
Reference Spectrum Present: No
Number of Sampled Component Spectra: 1
Spectrometers: USB2E3373
Integration Time (usec): 2300000 (USB2E3373)
Spectra Averaged: 3 (USB2E3373)
Boxcar Smoothing: 0 (USB2E3373)
Correct for Electrical Dark: No (USB2E3373)
Strobe/Lamp Enabled: No (USB2E3373)
Correct for Detector Non-linearity: No (USB2E3373)
Correct for Stray Light: No (USB2E3373)
Number of Pixels in Processed Spectrum: 2048
>>>>>Begin Processed Spectral Data<<<<<
178.53	-0.0000E00
178.91	-0.0000E00
179.29	-0.0000E00
179.67	-0.0000E00
180.04	-0.0000E00
180.42	0.0000E00
180.80	0.0000E00
181.18	-0.0000E00
181.56	0.0000E00
181.94	-0.0000E00
182.31	-0.0000E00
182.69	-0.0000E00
183.07	0.0000E00
183.45	-0.0000E00
183.83	-0.0000E00
184.20	-0.0000E00
184.58	0.0000E00
184.96	-0.0000E00
185.34	-0.0000E00
185.72	-0.0000E00
186.09	-0.0000E00
186.47	0.0000E00
186.85	-0.0000E00
187.23	-0.0000E00
187.61	0.0000E00
187.98	0.0000E00
188.36	0.0000E00
188.74	0.0000E00
189.12	0.0000E00
189.49	0.0000E00
189.87	0.0000E00
190.25	0.0000E00
190.63	0.0000E00
191.00	0.0000E00
191.38	0.0000E00
191.76	0.0000E00
192.14	0.0000E00
192.51	0.0000E00
192.89	0.0000E00
193.27	0.0000E00
193.65	0.0000E00
194.02	0.0000E00
194.40	0.0000E00
194.78	0.0000E00
195.15	0.0000E00
195.53	0.0000E00
195.91	0.0000E00
196.29	0.0000E00
196.66	0.0000E00
197.04	0.0000E00
197.42	0.0000E00
197.79	0.0000E00
198.17	0.0000E00
198.55	0.0000E00
198.92	0.0000E00
199.30	0.0000E00
199.68	0.0000E00
200.05	0.0000E00
200.43	0.0000E00
200.81	0.0000E00
201.18	0.0000E00
201.56	0.0000E00
201.94	0.0000E00
202.31	0.0000E00
202.69	0.0000E00
203.07	0.0000E00
203.44	0.0000E00
203.82	0.0000E00
204.19	0.0000E00
204.57	0.0000E00
204.95	0.0000E00
205.32	0.0000E00
205.70	0.0000E00
206.08	0.0000E00
206.45	0.0000E00
206.83	0.0000E00
207.20	0.0000E00
207.58	0.0000E00
207.96	0.0000E00
208.33	0.0000E00
208.71	0.0000E00
209.08	0.0000E00
209.46	0.0000E00
209.84	0.0000E00
210.21	0.0000E00
210.59	0.0000E00
210.96	0.0000E00
211.34	0.0000E00
211.71	0.0000E00
212.09	0.0000E00
212.46	0.0000E00
212.84	0.0000E00
213.22	-0.0000E00
213.59	0.0000E00
213.97	0.0000E00
214.34	0.0000E00
214.72	0.0000E00
215.09	0.0000E00
215.47	0.0000E00
215.84	0.0000E00
216.22	0.0000E00
216.59	0.0000E00
216.97	0.0000E00
217.34	0.0000E00
217.72	0.0000E00
218.09	0.0000E00
218.47	0.0000E00
218.84	-0.0000E00
219.22	0.0000E00
219.59	0.0000E00
219.97	0.0000E00
220.34	0.0000E00
220.72	0.0000E00
221.09	0.0000E00
221.47	0.0000E00
221.84	0.0000E00
222.22	0.0000E00
222.59	0.0000E00
222.97	0.0000E00
223.34	0.0000E00
223.72	0.0000E00
224.09	0.0000E00
224.46	0.0000E00
224.84	0.0000E00
225.21	0.0000E00
225.59	0.0000E00
225.96	0.0000E00
226.34	0.0000E00
226.71	0.0000E00
227.08	0.0000E00
227.46	0.0000E00
227.83	0.0000E00
228.21	0.0000E00
228.58	0.0000E00
228.95	0.0000E00
229.33	0.0000E00
229.70	0.0000E00
230.08	0.0000E00
230.45	0.0000E00
230.82	0.0000E00
231.20	0.0000E00
231.57	0.0000E00
231.95	0.0000E00
232.32	0.0000E00
232.69	0.0000E00
233.07	0.0000E00
233.44	0.0000E00
233.81	0.0000E00
234.19	0.0000E00
234.56	0.0000E00
234.93	0.0000E00
235.31	0.0000E00
235.68	0.0000E00
236.05	0.0000E00
236.43	0.0000E00
236.80	0.0000E00
237.17	0.0000E00
237.55	0.0000E00
237.92	0.0000E00
238.29	0.0000E00
238.67	0.0000E00
239.04	0.0000E00
239.41	0.0000E00
239.79	0.0000E00
240.16	0.0000E00
240.53	0.0000E00
240.91	0.0000E00
241.28	0.0000E00
241.65	0.0000E00
242.02	0.0000E00
242.40	0.0000E00
242.77	0.0000E00
243.14	0.0000E00
243.51	0.0000E00
243.89	0.0000E00
244.26	0.0000E00
244.63	0.0000E00
245.00	0.0000E00
245.38	0.0000E00
245.75	0.0000E00
246.12	0.0000E00
246.49	0.0000E00
246.87	0.0000E00
247.24	0.0000E00
247.61	0.0000E00
247.98	0.0000E00
248.36	0.0000E00
248.73	0.0000E00
249.10	0.0000E00
249.47	0.0000E00
249.84	0.0000E00
250.22	0.0000E00
250.59	0.0000E00
250.96	0.0000E00
251.33	0.0000E00
251.70	0.0000E00
252.08	0.0000E00
252.45	0.0000E00
252.82	0.0000E00
253.19	0.0000E00
253.56	0.0000E00
253.94	0.0000E00
254.31	0.0000E00
254.68	0.0000E00
255.05	0.0000E00
255.42	0.0000E00
255.79	0.0000E00
256.16	0.0000E00
256.54	0.0000E00
256.91	0.0000E00
257.28	0.0000E00
257.65	0.0000E00
258.02	0.0000E00
258.39	0.0000E00
258.76	0.0000E00
259.14	0.0000E00
259.51	0.0000E00
259.88	0.0000E00
260.25	0.0000E00
260.62	0.0000E00
260.99	0.0000E00
261.36	0.0000E00
261.73	0.0000E00
262.10	0.0000E00
262.47	0.0000E00
262.85	0.0000E00
263.22	0.0000E00
263.59	0.0000E00
263.96	0.0000E00
264.33	0.0000E00
264.70	0.0000E00
265.07	0.0000E00
265.44	0.0000E00
265.81	0.0000E00
266.18	0.0000E00
266.55	0.0000E00
266.92	0.0000E00
267.29	0.0000E00
267.66	0.0000E00
268.03	0.0000E00
268.40	0.0000E00
268.77	0.0000E00
269.14	0.0000E00
269.51	0.0000E00
269.88	0.0000E00
270.25	0.0000E00
270.62	0.0000E00
270.99	0.0000E00
271.36	0.0000E00
271.73	0.0000E00
272.10	0.0000E00
272.47	0.0000E00
272.84	0.0000E00
273.21	0.0000E00
273.58	0.0000E00
273.95	0.0000E00
274.32	0.0000E00
274.69	0.0000E00
275.06	0.0000E00
275.43	0.0000E00
275.80	0.0000E00
276.17	0.0000E00
276.54	0.0000E00
276.91	0.0000E00
277.28	0.0000E00
277.65	0.0000E00
278.02	0.0000E00
278.39	0.0000E00
278.76	0.0000E00
279.13	0.0000E00
279.50	0.0000E00
279.87	0.0000E00
280.23	0.0000E00
280.60	0.0000E00
280.97	0.0000E00
281.34	0.0000E00
281.71	0.0000E00
282.08	0.0000E00
282.45	0.0000E00
282.82	0.0000E00
283.19	0.0000E00
283.56	0.0000E00
283.92	0.0000E00
284.29	0.0000E00
284.66	0.0000E00
285.03	0.0000E00
285.40	0.0000E00
285.77	0.0000E00
286.14	0.0000E00
286.51	0.0000E00
286.87	0.0000E00
287.24	0.0000E00
287.61	0.0000E00
287.98	0.0000E00
288.35	0.0000E00
288.72	0.0000E00
289.08	0.0000E00
289.45	0.0000E00
289.82	0.0000E00
290.19	0.0000E00
290.56	0.0000E00
290.93	0.0000E00
291.29	0.0000E00
291.66	0.0000E00
292.03	0.0000E00
292.40	0.0000E00
292.77	0.0000E00
293.13	0.0000E00
293.50	0.0000E00
293.87	0.0000E00
294.24	0.0000E00
294.60	0.0000E00
294.97	0.0000E00
295.34	0.0000E00
295.71	0.0000E00
296.08	0.0000E00
296.44	0.0000E00
296.81	0.0000E00
297.18	0.0000E00
297.55	0.0000E00
297.91	0.0000E00
298.28	0.0000E00
298.65	0.0000E00
299.02	0.0000E00
299.38	0.0000E00
299.75	0.0000E00
300.12	2.8098E-01
300.48	6.4595E-02
300.85	8.5023E-02
301.22	8.5645E-02
301.59	9.4697E-02
301.95	1.3821E-01
302.32	1.4040E-01
302.69	4.9251E-02
303.05	5.0818E-02
303.42	9.1510E-02
303.79	8.0213E-02
304.15	1.6312E-01
304.52	1.2021E-01
304.89	1.3225E-01
305.25	9.4891E-02
305.62	8.2009E-02
305.99	3.3329E-01
306.35	8.7037E-02
306.72	1.1892E-01
307.09	1.4783E-01
307.45	1.1136E-01
307.82	1.1588E-01
308.19	1.1158E-01
308.55	1.1340E-01
308.92	2.5023E-01
309.29	1.6347E-01
309.65	2.0775E-01
310.02	1.0951E-01
310.38	7.4955E-02
310.75	2.5342E-01
311.12	8.7056E-02
311.48	1.7491E-01
311.85	1.5009E-01
312.22	9.5030E-02
312.58	1.0301E-01
312.95	1.6808E-01
313.31	1.7476E-01
313.68	1.3364E-01
314.05	1.7590E-01
314.41	2.5651E-01
314.78	1.2857E-01
315.14	2.4049E-01
315.51	3.1006E-01
315.87	1.5618E-01
316.24	1.5932E-01
316.61	2.9285E-01
316.97	2.7078E-01
317.34	2.4066E-01
317.70	4.1388E-01
318.07	3.2827E-01
318.43	2.5740E-01
318.80	3.8669E-01
319.16	3.3778E-01
319.53	4.5959E-01
319.89	2.6387E-01
320.26	2.3702E-01
320.62	5.4376E-01
320.99	2.1254E-01
321.35	3.4068E-01
321.72	2.9253E-01
322.08	3.0714E-01
322.45	2.7885E-01
322.81	5.8343E-01
323.18	4.0227E-01
323.54	2.7070E-01
323.91	2.7411E-01
324.27	2.3447E-01
324.64	4.9066E-01
325.00	4.5122E-01
325.37	2.8233E-01
325.73	4.6850E-01
326.10	4.6801E-01
326.46	4.3579E-01
326.83	1.1047E00
327.19	7.9790E-01
327.56	5.0815E-01
327.92	6.9401E-01
328.29	6.7539E-01
328.65	4.9642E-01
329.01	5.2187E-01
329.38	6.0027E-01
329.74	6.1839E-01
330.11	4.3851E-01
330.47	6.6574E-01
330.84	8.3557E-01
331.20	9.8819E-01
331.56	7.1105E-01
331.93	6.7543E-01
332.29	9.9102E-01
332.66	3.8247E-01
333.02	8.1940E-01
333.38	4.9224E-01
333.75	5.5151E-01
334.11	8.1114E-01
334.48	5.4462E-01
334.84	6.0082E-01
335.20	6.1654E-01
335.57	6.6048E-01
335.93	1.6155E00
336.29	1.3405E00
336.66	5.5759E-01
337.02	1.1275E00
337.38	4.1347E-01
337.75	5.2480E-01
338.11	6.2691E-01
338.47	4.8743E-01
338.84	5.6149E-01
339.20	5.6858E-01
339.56	6.3584E-01
339.93	6.8766E-01
340.29	8.2968E-01
340.65	5.5245E-01
341.02	1.0503E00
341.38	7.7301E-01
341.74	1.1111E00
342.11	7.8866E-01
342.47	6.4902E-01
342.83	1.0068E00
343.20	6.2893E-01
343.56	5.8817E-01
343.92	9.1463E-01
344.28	6.8596E-01
344.65	9.0867E-01
345.01	5.8669E-01
345.37	1.0198E00
345.73	7.1393E-01
346.10	5.7492E-01
346.46	7.2368E-01
346.82	8.4110E-01
347.19	8.9444E-01
347.55	7.5494E-01
347.91	7.7725E-01
348.27	8.2733E-01
348.63	9.4461E-01
349.00	6.4717E-01
349.36	6.0185E-01
349.72	6.9020E-01
350.08	1.0923E00
350.45	9.2941E-01
350.81	9.7809E-01
351.17	7.1399E-01
351.53	8.9454E-01
351.89	9.6870E-01
352.26	8.2463E-01
352.62	8.9741E-01
352.98	7.1813E-01
353.34	6.4680E-01
353.70	8.7450E-01
354.07	8.1193E-01
354.43	8.8394E-01
354.79	8.9733E-01
355.15	6.9644E-01
355.51	1.0313E00
355.87	9.5362E-01
356.24	6.8040E-01
356.60	9.6081E-01
356.96	8.1170E-01
357.32	7.5511E-01
357.68	7.2122E-01
358.04	6.9384E-01
358.40	6.2425E-01
358.77	7.2624E-01
359.13	6.9895E-01
359.49	9.6721E-01
359.85	1.0131E00
360.21	7.9048E-01
360.57	7.8621E-01
360.93	8.5326E-01
361.29	8.3982E-01
361.66	9.0632E-01
362.02	7.4991E-01
362.38	8.5225E-01
362.74	8.4998E-01
363.10	1.0643E00
363.46	1.0387E00
363.82	1.0652E00
364.18	9.6213E-01
364.54	1.0156E00
364.90	8.4906E-01
365.26	8.9603E-01
365.62	1.0411E00
365.98	1.0227E00
366.35	1.0355E00
366.71	8.3866E-01
367.07	1.3991E00
367.43	1.2203E00
367.79	1.0565E00
368.15	1.0277E00
368.51	1.1538E00
368.87	1.0631E00
369.23	1.2463E00
369.59	9.8468E-01
369.95	1.3919E00
370.31	1.1031E00
370.67	1.1571E00
371.03	9.9884E-01
371.39	9.7690E-01
371.75	1.2422E00
372.11	1.1030E00
372.47	9.6341E-01
372.83	1.1115E00
373.19	1.1628E00
373.55	1.0468E00
373.91	1.1599E00
374.27	8.9192E-01
374.63	1.0230E00
374.99	9.6353E-01
375.35	1.0657E00
375.71	1.0405E00
376.07	9.6722E-01
376.42	1.0653E00
376.78	9.8207E-01
377.14	9.2911E-01
377.50	1.0500E00
377.86	9.8129E-01
378.22	1.1484E00
378.58	9.2149E-01
378.94	1.0160E00
379.30	8.3229E-01
379.66	9.3140E-01
380.02	1.0160E00
380.38	8.6833E-01
380.74	9.5803E-01
381.09	9.5870E-01
381.45	8.8601E-01
381.81	8.9462E-01
382.17	8.8228E-01
382.53	8.3579E-01
382.89	7.9374E-01
383.25	9.2476E-01
383.61	9.1927E-01
383.97	9.7251E-01
384.32	9.8097E-01
384.68	9.1755E-01
385.04	9.0039E-01
385.40	9.1479E-01
385.76	7.3173E-01
386.12	9.0704E-01
386.48	8.0978E-01
386.83	8.9365E-01
387.19	8.6706E-01
387.55	9.4291E-01
387.91	9.1318E-01
388.27	8.2877E-01
388.62	8.3090E-01
388.98	8.4963E-01
389.34	8.7805E-01
389.70	8.6004E-01
390.06	8.5236E-01
390.42	8.3579E-01
390.77	8.1488E-01
391.13	8.7058E-01
391.49	8.4325E-01
391.85	9.1879E-01
392.20	8.3939E-01
392.56	8.7215E-01
392.92	8.3240E-01
393.28	8.3082E-01
393.64	8.5629E-01
393.99	8.7856E-01
394.35	8.0906E-01
394.71	9.1771E-01
395.07	8.5285E-01
395.42	8.1853E-01
395.78	8.0875E-01
396.14	8.1569E-01
396.50	7.6487E-01
396.85	8.8651E-01
397.21	9.1808E-01
397.57	8.2897E-01
397.92	8.4814E-01
398.28	7.6077E-01
398.64	8.0892E-01
399.00	7.7295E-01
399.35	7.6316E-01
399.71	8.1142E-01
400.07	8.0453E-01
400.42	8.0806E-01
400.78	7.7749E-01
401.14	7.7153E-01
401.49	7.7830E-01
401.85	7.7890E-01
402.21	7.0657E-01
402.57	7.3845E-01
402.92	7.9638E-01
403.28	7.9345E-01
403.63	7.7897E-01
403.99	8.0391E-01
404.35	7.4354E-01
404.70	7.4971E-01
405.06	7.3834E-01
405.42	7.9235E-01
405.77	7.2354E-01
406.13	7.0345E-01
406.49	6.7486E-01
406.84	6.9522E-01
407.20	7.4091E-01
407.55	7.6367E-01
407.91	7.7305E-01
408.27	7.0379E-01
408.62	6.8866E-01
408.98	7.1877E-01
409.34	7.0507E-01
409.69	7.4264E-01
410.05	6.9405E-01
410.40	7.0044E-01
410.76	6.7478E-01
411.11	6.9999E-01
411.47	7.1761E-01
411.83	6.8316E-01
412.18	6.8122E-01
412.54	6.7788E-01
412.89	6.9458E-01
413.25	6.4722E-01
413.60	6.6869E-01
413.96	7.1151E-01
414.31	6.7129E-01
414.67	6.9963E-01
415.03	7.0801E-01
415.38	7.3756E-01
415.74	7.0633E-01
416.09	6.9942E-01
416.45	7.2246E-01
416.80	6.9379E-01
417.16	6.9380E-01
417.51	6.8530E-01
417.87	7.0506E-01
418.22	6.6028E-01
418.58	6.8172E-01
418.93	6.3908E-01
419.29	6.7547E-01
419.64	6.4382E-01
420.00	6.6310E-01
420.35	6.5557E-01
420.71	6.3207E-01
421.06	6.5594E-01
421.42	6.8941E-01
421.77	6.4856E-01
422.12	6.6237E-01
422.48	6.3815E-01
422.83	6.6791E-01
423.19	6.3169E-01
423.54	6.5530E-01
423.90	6.3828E-01
424.25	6.2693E-01
424.61	6.5694E-01
424.96	6.2685E-01
425.31	6.0760E-01
425.67	6.0216E-01
426.02	6.1468E-01
426.38	6.1488E-01
426.73	6.0625E-01
427.09	6.1577E-01
427.44	5.8547E-01
427.79	6.0053E-01
428.15	6.0411E-01
428.50	6.1151E-01
428.85	6.2902E-01
429.21	5.6899E-01
429.56	5.7840E-01
429.92	5.7146E-01
430.27	5.8800E-01
430.62	6.0556E-01
430.98	6.1262E-01
431.33	5.9466E-01
431.68	5.8202E-01
432.04	5.7480E-01
432.39	5.7431E-01
432.74	5.9850E-01
433.10	5.5325E-01
433.45	5.9244E-01
433.80	5.8099E-01
434.16	5.7479E-01
434.51	5.6847E-01
434.86	5.8713E-01
435.22	5.5956E-01
435.57	6.1026E-01
435.92	5.8646E-01
436.28	5.5195E-01
436.63	5.5782E-01
436.98	5.6123E-01
437.34	5.8316E-01
437.69	5.6062E-01
438.04	5.4095E-01
438.39	5.8131E-01
438.75	5.6520E-01
439.10	5.5023E-01
439.45	5.7670E-01
439.81	5.7840E-01
440.16	5.4488E-01
440.51	5.5731E-01
440.86	5.8491E-01
441.22	5.6037E-01
441.57	5.3989E-01
441.92	5.3910E-01
442.27	5.5611E-01
442.63	5.4759E-01
442.98	5.7668E-01
443.33	5.6726E-01
443.68	5.3243E-01
444.03	5.2472E-01
444.39	5.1845E-01
444.74	5.6263E-01
445.09	5.6627E-01
445.44	5.5722E-01
445.79	5.0852E-01
446.15	5.4276E-01
446.50	5.4806E-01
446.85	5.1614E-01
447.20	5.1434E-01
447.55	5.4027E-01
447.91	5.3671E-01
448.26	5.4660E-01
448.61	5.3411E-01
448.96	5.1625E-01
449.31	5.2698E-01
449.66	5.3476E-01
450.02	5.3076E-01
450.37	5.3302E-01
450.72	5.2029E-01
451.07	5.6233E-01
451.42	5.6555E-01
451.77	5.3510E-01
452.12	5.2621E-01
452.47	5.6013E-01
452.83	5.1931E-01
453.18	5.3487E-01
453.53	5.3035E-01
453.88	4.9393E-01
454.23	5.0411E-01
454.58	4.9914E-01
454.93	5.1169E-01
455.28	5.1188E-01
455.63	5.0227E-01
455.98	4.9534E-01
456.34	5.2168E-01
456.69	5.1136E-01
457.04	5.1190E-01
457.39	4.8391E-01
457.74	4.8918E-01
458.09	4.9019E-01
458.44	4.8291E-01
458.79	4.7183E-01
459.14	4.7458E-01
459.49	5.0061E-01
459.84	4.8011E-01
460.19	5.0445E-01
460.54	5.1633E-01
460.89	4.6871E-01
461.24	5.0458E-01
461.59	4.8748E-01
461.94	4.9894E-01
462.29	4.5966E-01
462.64	4.9186E-01
462.99	4.9936E-01
463.34	5.1880E-01
463.69	4.7776E-01
464.04	4.5845E-01
464.39	4.6438E-01
464.74	4.8159E-01
465.09	4.9577E-01
465.44	4.6135E-01
465.79	4.7653E-01
466.14	4.7495E-01
466.49	4.7146E-01
466.84	4.6954E-01
467.19	4.7515E-01
467.54	4.7366E-01
467.89	4.6136E-01
468.24	4.4157E-01
468.59	4.4901E-01
468.94	4.4943E-01
469.29	4.4690E-01
469.64	4.5816E-01
469.99	4.5004E-01
470.34	4.2967E-01
470.68	4.6355E-01
471.03	4.3975E-01
471.38	4.3524E-01
471.73	4.2511E-01
472.08	4.1820E-01
472.43	4.0475E-01
472.78	4.2951E-01
473.13	4.2623E-01
473.48	4.1568E-01
473.83	4.0512E-01
474.17	4.2125E-01
474.52	4.0803E-01
474.87	3.9396E-01
475.22	4.0120E-01
475.57	3.7991E-01
475.92	3.6638E-01
476.27	3.8903E-01
476.61	3.7326E-01
476.96	3.6829E-01
477.31	3.4727E-01
477.66	3.5955E-01
478.01	3.5267E-01
478.36	3.5278E-01
478.70	3.4533E-01
479.05	3.4752E-01
479.40	3.3962E-01
479.75	3.4085E-01
480.10	3.3245E-01
480.45	3.2797E-01
480.79	3.2578E-01
481.14	3.3158E-01
481.49	3.2602E-01
481.84	3.1662E-01
482.19	3.0975E-01
482.53	3.1584E-01
482.88	3.1035E-01
483.23	3.0605E-01
483.58	3.0209E-01
483.92	3.0946E-01
484.27	2.9650E-01
484.62	2.9671E-01
484.97	2.9068E-01
485.31	2.8702E-01
485.66	2.9218E-01
486.01	2.9288E-01
486.36	2.8259E-01
486.70	2.8746E-01
487.05	2.8637E-01
487.40	2.8313E-01
487.75	2.7812E-01
488.09	2.7763E-01
488.44	2.8112E-01
488.79	2.7890E-01
489.13	2.7480E-01
489.48	2.7513E-01
489.83	2.7776E-01
490.17	2.6967E-01
490.52	2.6890E-01
490.87	2.6984E-01
491.22	2.7295E-01
491.56	2.7214E-01
491.91	2.7442E-01
492.26	2.7199E-01
492.60	2.7095E-01
492.95	2.7297E-01
493.30	2.7233E-01
493.64	2.6915E-01
493.99	2.7370E-01
494.34	2.6958E-01
494.68	2.6545E-01
495.03	2.7080E-01
495.37	2.6703E-01
495.72	2.7109E-01
496.07	2.6481E-01
496.41	2.6807E-01
496.76	2.6768E-01
497.11	2.6885E-01
497.45	2.6829E-01
497.80	2.6951E-01
498.14	2.6597E-01
498.49	2.7037E-01
498.84	2.6816E-01
499.18	2.6898E-01
499.53	2.6825E-01
499.87	2.6392E-01
500.22	2.7084E-01
500.56	2.6800E-01
500.91	2.6898E-01
501.26	2.6665E-01
501.60	2.6848E-01
501.95	2.6607E-01
502.29	2.6735E-01
502.64	2.6561E-01
502.98	2.6967E-01
503.33	2.6517E-01
503.67	2.6818E-01
504.02	2.6665E-01
504.36	2.6545E-01
504.71	2.6731E-01
505.06	2.6523E-01
505.40	2.6375E-01
505.75	2.6488E-01
506.09	2.6430E-01
506.44	2.6384E-01
506.78	2.6569E-01
507.13	2.6628E-01
507.47	2.6337E-01
507.82	2.6301E-01
508.16	2.6362E-01
508.51	2.6261E-01
508.85	2.5973E-01
509.19	2.6042E-01
509.54	2.6255E-01
509.88	2.6183E-01
510.23	2.5729E-01
510.57	2.5820E-01
510.92	2.6014E-01
511.26	2.5977E-01
511.61	2.5996E-01
511.95	2.5777E-01
512.30	2.5738E-01
512.64	2.5859E-01
512.98	2.5735E-01
513.33	2.5833E-01
513.67	2.5636E-01
514.02	2.5756E-01
514.36	2.5444E-01
514.70	2.5529E-01
515.05	2.5410E-01
515.39	2.5474E-01
515.74	2.5529E-01
516.08	2.5607E-01
516.42	2.5268E-01
516.77	2.5464E-01
517.11	2.5240E-01
517.46	2.5333E-01
517.80	2.5261E-01
518.14	2.5205E-01
518.49	2.5147E-01
518.83	2.5092E-01
519.17	2.5433E-01
519.52	2.5189E-01
519.86	2.5261E-01
520.20	2.5034E-01
520.55	2.5143E-01
520.89	2.5022E-01
521.23	2.5165E-01
521.58	2.5299E-01
521.92	2.5176E-01
522.26	2.5528E-01
522.61	2.5092E-01
522.95	2.5288E-01
523.29	2.4980E-01
523.64	2.5099E-01
523.98	2.5292E-01
524.32	2.5274E-01
524.66	2.5314E-01
525.01	2.5336E-01
525.35	2.5493E-01
525.69	2.5461E-01
526.04	2.5652E-01
526.38	2.5078E-01
526.72	2.5710E-01
527.06	2.5423E-01
527.41	2.5735E-01
527.75	2.5834E-01
528.09	2.5555E-01
528.43	2.5966E-01
528.78	2.5783E-01
529.12	2.6254E-01
529.46	2.6071E-01
529.80	2.6152E-01
530.15	2.6126E-01
530.49	2.6252E-01
530.83	2.6482E-01
531.17	2.6421E-01
531.51	2.6609E-01
531.86	2.6392E-01
532.20	2.6743E-01
532.54	2.6679E-01
532.88	2.6870E-01
533.22	2.7118E-01
533.57	2.7460E-01
533.91	2.7011E-01
534.25	2.7178E-01
534.59	2.7221E-01
534.93	2.7163E-01
535.27	2.7224E-01
535.62	2.7742E-01
535.96	2.7632E-01
536.30	2.7589E-01
536.64	2.7756E-01
536.98	2.8147E-01
537.32	2.7848E-01
537.66	2.8142E-01
538.01	2.8067E-01
538.35	2.8402E-01
538.69	2.8277E-01
539.03	2.8688E-01
539.37	2.8484E-01
539.71	2.8688E-01
540.05	2.8569E-01
540.39	2.8602E-01
540.73	2.8750E-01
541.07	2.8655E-01
541.42	2.8686E-01
541.76	2.8819E-01
542.10	2.9040E-01
542.44	2.9057E-01
542.78	2.9328E-01
543.12	2.8790E-01
543.46	2.9422E-01
543.80	2.8979E-01
544.14	2.9164E-01
544.48	2.8983E-01
544.82	2.9447E-01
545.16	2.9321E-01
545.50	2.9284E-01
545.84	2.9769E-01
546.18	2.9426E-01
546.52	2.9554E-01
546.86	2.9424E-01
547.20	2.9957E-01
547.54	3.0160E-01
547.88	2.9724E-01
548.22	2.9771E-01
548.56	3.0065E-01
548.90	3.0077E-01
549.24	3.0057E-01
549.58	3.0165E-01
549.92	3.0163E-01
550.26	3.0285E-01
550.60	3.0220E-01
550.94	3.0054E-01
551.28	3.0524E-01
551.62	3.0131E-01
551.96	3.0369E-01
552.30	3.0544E-01
552.64	3.0508E-01
552.98	3.0526E-01
553.32	3.0591E-01
553.66	3.0598E-01
554.00	3.0266E-01
554.34	3.0506E-01
554.68	3.0496E-01
555.02	3.0389E-01
555.36	3.0782E-01
555.69	3.0897E-01
556.03	3.0468E-01
556.37	3.0760E-01
556.71	3.0534E-01
557.05	3.0537E-01
557.39	3.0750E-01
557.73	3.0537E-01
558.07	3.0776E-01
558.41	3.0767E-01
558.75	3.0862E-01
559.08	3.0710E-01
559.42	3.0618E-01
559.76	3.0873E-01
560.10	3.0932E-01
560.44	3.0951E-01
560.78	3.0554E-01
561.12	3.1010E-01
561.45	3.1046E-01
561.79	3.0861E-01
562.13	3.0793E-01
562.47	3.0834E-01
562.81	3.1028E-01
563.15	3.1067E-01
563.48	3.1113E-01
563.82	3.0716E-01
564.16	3.0958E-01
564.50	3.1255E-01
564.84	3.0865E-01
565.17	3.0955E-01
565.51	3.0800E-01
565.85	3.1181E-01
566.19	3.0784E-01
566.52	3.1211E-01
566.86	3.0968E-01
567.20	3.1403E-01
567.54	3.1259E-01
567.88	3.1265E-01
568.21	3.1337E-01
568.55	3.1255E-01
568.89	3.1332E-01
569.23	3.1334E-01
569.56	3.1244E-01
569.90	3.1283E-01
570.24	3.1641E-01
570.57	3.1380E-01
570.91	3.1567E-01
571.25	3.1446E-01
571.59	3.1513E-01
571.92	3.1579E-01
572.26	3.1633E-01
572.60	3.1819E-01
572.93	3.1646E-01
573.27	3.2202E-01
573.61	3.2174E-01
573.95	3.1455E-01
574.28	3.2203E-01
574.62	3.2176E-01
574.96	3.2443E-01
575.29	3.2350E-01
575.63	3.2740E-01
575.97	3.2511E-01
576.30	3.3040E-01
576.64	3.2655E-01
576.98	3.2904E-01
577.31	3.3056E-01
577.65	3.3333E-01
577.98	3.2768E-01
578.32	3.3466E-01
578.66	3.3726E-01
578.99	3.3583E-01
579.33	3.3816E-01
579.67	3.3720E-01
580.00	3.3861E-01
580.34	3.3862E-01
580.67	3.4186E-01
581.01	3.4035E-01
581.35	3.4266E-01
581.68	3.4364E-01
582.02	3.4560E-01
582.35	3.4388E-01
582.69	3.4649E-01
583.02	3.5188E-01
583.36	3.5160E-01
583.70	3.5073E-01
584.03	3.5120E-01
584.37	3.5113E-01
584.70	3.5413E-01
585.04	3.5724E-01
585.37	3.5548E-01
585.71	3.5972E-01
586.04	3.5936E-01
586.38	3.5708E-01
586.72	3.6469E-01
587.05	3.5979E-01
587.39	3.6314E-01
587.72	3.6103E-01
588.06	3.6630E-01
588.39	3.6121E-01
588.73	3.6866E-01
589.06	3.6700E-01
589.40	3.6978E-01
589.73	3.7230E-01
590.07	3.7243E-01
590.40	3.7440E-01
590.73	3.7691E-01
591.07	3.7543E-01
591.40	3.7846E-01
591.74	3.7258E-01
592.07	3.7907E-01
592.41	3.8044E-01
592.74	3.8129E-01
593.08	3.7758E-01
593.41	3.8024E-01
593.75	3.8245E-01
594.08	3.8640E-01
594.41	3.8524E-01
594.75	3.8702E-01
595.08	3.8501E-01
595.42	3.8197E-01
595.75	3.8512E-01
596.09	3.8858E-01
596.42	3.8632E-01
596.75	3.8754E-01
597.09	3.9338E-01
597.42	3.8587E-01
597.75	3.9452E-01
598.09	3.9360E-01
598.42	3.9119E-01
598.76	3.9104E-01
599.09	3.9503E-01
599.42	3.9643E-01
599.76	3.9420E-01
600.09	3.9635E-01
600.42	3.9994E-01
600.76	3.9142E-01
601.09	3.9451E-01
601.42	4.0390E-01
601.76	4.0043E-01
602.09	3.9895E-01
602.42	3.9795E-01
602.76	3.9768E-01
603.09	3.9851E-01
603.42	4.0162E-01
603.76	3.9899E-01
604.09	4.0114E-01
604.42	4.0054E-01
604.76	3.9824E-01
605.09	4.0374E-01
605.42	4.0009E-01
605.75	4.0249E-01
606.09	4.0501E-01
606.42	4.0394E-01
606.75	4.0698E-01
607.09	4.0401E-01
607.42	4.0299E-01
607.75	4.0468E-01
608.08	4.0580E-01
608.42	4.0848E-01
608.75	4.0558E-01
609.08	4.0938E-01
609.41	4.0763E-01
609.75	4.0535E-01
610.08	4.0935E-01
610.41	4.0937E-01
610.74	4.0952E-01
611.07	4.0991E-01
611.41	4.0491E-01
611.74	4.0935E-01
612.07	4.0814E-01
612.40	4.0557E-01
612.73	4.0977E-01
613.07	4.1450E-01
613.40	4.0848E-01
613.73	4.0833E-01
614.06	4.1276E-01
614.39	4.1010E-01
614.72	4.1504E-01
615.06	4.1280E-01
615.39	4.1675E-01
615.72	4.1278E-01
616.05	4.1792E-01
616.38	4.1849E-01
616.71	4.1607E-01
617.05	4.1351E-01
617.38	4.1817E-01
617.71	4.1696E-01
618.04	4.1698E-01
618.37	4.1286E-01
618.70	4.1671E-01
619.03	4.1731E-01
619.36	4.1034E-01
619.69	4.1882E-01
620.03	4.1588E-01
620.36	4.1630E-01
620.69	4.1581E-01
621.02	4.1431E-01
621.35	4.1482E-01
621.68	4.1318E-01
622.01	4.1600E-01
622.34	4.1497E-01
622.67	4.1510E-01
623.00	4.1487E-01
623.33	4.1344E-01
623.66	4.1525E-01
623.99	4.1744E-01
624.32	4.1091E-01
624.65	4.1365E-01
624.99	4.1358E-01
625.32	4.1840E-01
625.65	4.1530E-01
625.98	4.1136E-01
626.31	4.1413E-01
626.64	4.1784E-01
626.97	4.1639E-01
627.30	4.1276E-01
627.63	4.1175E-01
627.96	4.1093E-01
628.29	4.1237E-01
628.62	4.1539E-01
628.95	4.1488E-01
629.28	4.1045E-01
629.61	4.2039E-01
629.94	4.1720E-01
630.26	4.1881E-01
630.59	4.1908E-01
630.92	4.1784E-01
631.25	4.1741E-01
631.58	4.2519E-01
631.91	4.1958E-01
632.24	4.2419E-01
632.57	4.2341E-01
632.90	4.2469E-01
633.23	4.2210E-01
633.56	4.2588E-01
633.89	4.2568E-01
634.22	4.2706E-01
634.55	4.2775E-01
634.88	4.3119E-01
635.20	4.3205E-01
635.53	4.3691E-01
635.86	4.3336E-01
636.19	4.4006E-01
636.52	4.4000E-01
636.85	4.4032E-01
637.18	4.4423E-01
637.51	4.4333E-01
637.83	4.4673E-01
638.16	4.4525E-01
638.49	4.5310E-01
638.82	4.4745E-01
639.15	4.5537E-01
639.48	4.5541E-01
639.81	4.6194E-01
640.13	4.5717E-01
640.46	4.6565E-01
640.79	4.6194E-01
641.12	4.6799E-01
641.45	4.6379E-01
641.77	4.6424E-01
642.10	4.7585E-01
642.43	4.7781E-01
642.76	4.8135E-01
643.09	4.7656E-01
643.41	4.8077E-01
643.74	4.8071E-01
644.07	4.8327E-01
644.40	4.8303E-01
644.73	4.9063E-01
645.05	4.9084E-01
645.38	4.8941E-01
645.71	4.9694E-01
646.04	4.9603E-01
646.36	4.9512E-01
646.69	5.0445E-01
647.02	5.0628E-01
647.35	5.0095E-01
647.67	5.0927E-01
648.00	5.0697E-01
648.33	5.1111E-01
648.66	5.0899E-01
648.98	5.1555E-01
649.31	5.1285E-01
649.64	5.1508E-01
649.96	5.1897E-01
650.29	5.2669E-01
650.62	5.2262E-01
650.94	5.2327E-01
651.27	5.2601E-01
651.60	5.2277E-01
651.92	5.3372E-01
652.25	5.3707E-01
652.58	5.3553E-01
652.90	5.3508E-01
653.23	5.3579E-01
653.56	5.3880E-01
653.88	5.4226E-01
654.21	5.4092E-01
654.54	5.4497E-01
654.86	5.5081E-01
655.19	5.4774E-01
655.52	5.5299E-01
655.84	5.4758E-01
656.17	5.5525E-01
656.49	5.5493E-01
656.82	5.5200E-01
657.15	5.5821E-01
657.47	5.6035E-01
657.80	5.6196E-01
658.13	5.6065E-01
658.45	5.6367E-01
658.78	5.6448E-01
659.10	5.6932E-01
659.43	5.6693E-01
659.75	5.6917E-01
660.08	5.6746E-01
660.41	5.7835E-01
660.73	5.7490E-01
661.06	5.7474E-01
661.38	5.7842E-01
661.71	5.8191E-01
662.03	5.7871E-01
662.36	5.8637E-01
662.68	5.8267E-01
663.01	5.7734E-01
663.33	5.8565E-01
663.66	5.8821E-01
663.98	5.8664E-01
664.31	5.8829E-01
664.63	6.0070E-01
664.96	5.8588E-01
665.28	5.9331E-01
665.61	5.9550E-01
665.93	5.9582E-01
666.26	5.9544E-01
666.58	5.9970E-01
666.91	6.0096E-01
667.23	6.0746E-01
667.56	6.0139E-01
667.88	6.0461E-01
668.21	6.0906E-01
668.53	6.0600E-01
668.86	6.1333E-01
669.18	6.0880E-01
669.50	6.1723E-01
669.83	6.1157E-01
670.15	6.1653E-01
670.48	6.1780E-01
670.80	6.1604E-01
671.13	6.1670E-01
671.45	6.2045E-01
671.77	6.2035E-01
672.10	6.1755E-01
672.42	6.3323E-01
672.75	6.2631E-01
673.07	6.3061E-01
673.39	6.2527E-01
673.72	6.2927E-01
674.04	6.3350E-01
674.37	6.3331E-01
674.69	6.3220E-01
675.01	6.3622E-01
675.34	6.4280E-01
675.66	6.4071E-01
675.98	6.3592E-01
676.31	6.4528E-01
676.63	6.4250E-01
676.95	6.4471E-01
677.28	6.5179E-01
677.60	6.5237E-01
677.92	6.4710E-01
678.25	6.5518E-01
678.57	6.5607E-01
678.89	6.5181E-01
679.22	6.6227E-01
679.54	6.5888E-01
679.86	6.6108E-01
680.18	6.6640E-01
680.51	6.5928E-01
680.83	6.7494E-01
681.15	6.6671E-01
681.48	6.7016E-01
681.80	6.7058E-01
682.12	6.6800E-01
682.44	6.8031E-01
682.77	6.8287E-01
683.09	6.8617E-01
683.41	6.8063E-01
683.73	6.8939E-01
684.06	6.8568E-01
684.38	6.8840E-01
684.70	6.9162E-01
685.02	6.9382E-01
685.34	6.9961E-01
685.67	6.9636E-01
685.99	7.1064E-01
686.31	7.0090E-01
686.63	7.0931E-01
686.96	7.1394E-01
687.28	7.1770E-01
687.60	7.0573E-01
687.92	7.1363E-01
688.24	7.2198E-01
688.56	7.2900E-01
688.89	7.2218E-01
689.21	7.3112E-01
689.53	7.2701E-01
689.85	7.3535E-01
690.17	7.3101E-01
690.49	7.4361E-01
690.82	7.4372E-01
691.14	7.4318E-01
691.46	7.4649E-01
691.78	7.5024E-01
692.10	7.4720E-01
692.42	7.5722E-01
692.74	7.6230E-01
693.06	7.5979E-01
693.39	7.6970E-01
693.71	7.7502E-01
694.03	7.7492E-01
694.35	7.7943E-01
694.67	7.7976E-01
694.99	7.9268E-01
695.31	7.8624E-01
695.63	7.9152E-01
695.95	7.9773E-01
696.27	7.9776E-01
696.59	7.9976E-01
696.91	8.0864E-01
697.23	8.1382E-01
697.56	8.1469E-01
697.88	8.1368E-01
698.20	8.1883E-01
698.52	8.2375E-01
698.84	8.3043E-01
699.16	8.3385E-01
699.48	8.3069E-01
699.80	8.3847E-01
700.12	8.4881E-01
700.44	8.4954E-01
700.76	8.5351E-01
701.08	8.6209E-01
701.40	8.5955E-01
701.72	8.6510E-01
702.04	8.6736E-01
702.36	8.7563E-01
702.68	8.8118E-01
703.00	8.8456E-01
703.32	8.8889E-01
703.64	8.9634E-01
703.96	8.8766E-01
704.28	8.9242E-01
704.60	8.9979E-01
704.91	9.0919E-01
705.23	9.0742E-01
705.55	9.2210E-01
705.87	9.1836E-01
706.19	9.1916E-01
706.51	9.2548E-01
706.83	9.2973E-01
707.15	9.4813E-01
707.47	9.3995E-01
707.79	9.5456E-01
708.11	9.5049E-01
708.43	9.5753E-01
708.74	9.6477E-01
709.06	9.7413E-01
709.38	9.7244E-01
709.70	9.7462E-01
710.02	9.8401E-01
710.34	9.7839E-01
710.66	9.9525E-01
710.98	1.0010E00
711.29	1.0039E00
711.61	1.0162E00
711.93	1.0167E00
712.25	1.0131E00
712.57	1.0263E00
712.89	1.0356E00
713.20	1.0335E00
713.52	1.0370E00
713.84	1.0565E00
714.16	1.0472E00
714.48	1.0472E00
714.80	1.0672E00
715.11	1.0661E00
715.43	1.0745E00
715.75	1.0742E00
716.07	1.1024E00
716.39	1.0735E00
716.70	1.0905E00
717.02	1.0838E00
717.34	1.1089E00
717.66	1.1092E00
717.97	1.1140E00
718.29	1.1317E00
718.61	1.1330E00
718.93	1.1541E00
719.24	1.1557E00
719.56	1.0579E00
719.88	9.1406E-01
720.20	8.8164E-01
720.51	9.0298E-01
720.83	9.4307E-01
721.15	1.0275E00
721.46	1.1077E00
721.78	1.1705E00
722.10	1.2208E00
722.42	1.2331E00
722.73	1.2483E00
723.05	1.2472E00
723.37	1.2479E00
723.68	1.1966E00
724.00	1.1032E00
724.32	1.0598E00
724.63	1.0321E00
724.95	1.0305E00
725.27	1.0178E00
725.58	1.0342E00
725.90	1.0552E00
726.22	1.0348E00
726.53	1.0470E00
726.85	1.0587E00
727.16	1.0986E00
727.48	1.0820E00
727.80	1.0252E00
728.11	1.0315E00
728.43	1.0645E00
728.74	1.1136E00
729.06	1.0564E00
729.38	1.0338E00
729.69	1.0343E00
730.01	1.0514E00
730.32	1.0573E00
730.64	1.0543E00
730.96	1.0313E00
731.27	1.0455E00
731.59	1.0409E00
731.90	1.0593E00
732.22	1.1104E00
732.53	1.1597E00
732.85	1.1878E00
733.16	1.2105E00
733.48	1.2093E00
733.80	1.2390E00
734.11	1.2707E00
734.43	1.3128E00
734.74	1.2897E00
735.06	1.2964E00
735.37	1.2820E00
735.69	1.3009E00
736.00	1.2740E00
736.32	1.2469E00
736.63	1.3995E00
736.95	1.2710E00
737.26	1.2880E00
737.58	1.2792E00
737.89	1.2816E00
738.21	1.3123E00
738.52	1.3027E00
738.83	1.3039E00
739.15	1.3067E00
739.46	1.4092E00
739.78	1.3158E00
740.09	1.3292E00
740.41	1.3604E00
740.72	1.3787E00
741.04	1.3625E00
741.35	1.3880E00
741.66	1.3825E00
741.98	1.3789E00
742.29	1.4044E00
742.61	1.4206E00
742.92	1.4051E00
743.23	1.4244E00
743.55	1.4592E00
743.86	1.4468E00
744.18	1.4650E00
744.49	1.4633E00
744.80	1.4676E00
745.12	1.4670E00
745.43	1.4920E00
745.74	1.4906E00
746.06	1.4869E00
746.37	1.5080E00
746.68	1.5015E00
747.00	1.5030E00
747.31	1.5303E00
747.62	1.5076E00
747.94	1.4941E00
748.25	1.5134E00
748.56	1.5134E00
748.88	1.5130E00
749.19	1.5151E00
749.50	1.5037E00
749.82	1.5226E00
750.13	1.5015E00
750.44	1.5118E00
750.75	1.4951E00
751.07	1.4960E00
751.38	1.5141E00
751.69	1.5028E00
752.01	1.5289E00
752.32	1.5221E00
752.63	1.5276E00
752.94	1.5133E00
753.26	1.5087E00
753.57	1.5230E00
753.88	1.5430E00
754.19	1.5628E00
754.51	1.5528E00
754.82	1.5756E00
755.13	1.5950E00
755.44	1.5500E00
755.75	1.5504E00
756.07	1.5624E00
756.38	1.5491E00
756.69	1.5686E00
757.00	1.5435E00
757.31	1.5330E00
757.63	1.5499E00
757.94	1.5388E00
758.25	1.5281E00
758.56	1.5333E00
758.87	1.5315E00
759.18	1.4274E00
759.50	1.2743E00
759.81	1.0958E00
760.12	7.9719E-01
760.43	6.1612E-01
760.74	5.2099E-01
761.05	4.7146E-01
761.36	5.1667E-01
761.67	6.4478E-01
761.99	7.0797E-01
762.30	7.7341E-01
762.61	7.5839E-01
762.92	7.2112E-01
763.23	7.1898E-01
763.54	7.0362E-01
763.85	7.3418E-01
764.16	7.5812E-01
764.47	9.4024E-01
764.78	8.3640E-01
765.10	9.7460E-01
765.41	9.6214E-01
765.72	1.1036E00
766.03	1.0536E00
766.34	1.1153E00
766.65	1.1855E00
766.96	1.3294E00
767.27	1.2922E00
767.58	1.3483E00
767.89	1.3978E00
768.20	1.4623E00
768.51	1.4489E00
768.82	1.4663E00
769.13	1.5113E00
769.44	1.4985E00
769.75	1.5406E00
770.06	1.5132E00
770.37	1.5389E00
770.68	1.5517E00
770.99	1.5645E00
771.30	1.5573E00
771.61	1.5711E00
771.92	1.5856E00
772.23	1.6070E00
772.54	1.5762E00
772.85	1.5851E00
773.16	1.5877E00
773.47	1.6248E00
773.78	1.6230E00
774.09	1.6146E00
774.39	1.6501E00
774.70	1.5804E00
775.01	1.6197E00
775.32	1.5929E00
775.63	1.6459E00
775.94	1.5964E00
776.25	1.6008E00
776.56	1.6290E00
776.87	1.6257E00
777.18	1.6202E00
777.48	1.6684E00
777.79	1.6155E00
778.10	1.6741E00
778.41	1.6883E00
778.72	1.6287E00
779.03	1.6312E00
779.34	1.6754E00
779.65	1.6616E00
779.95	1.6438E00
780.26	1.6303E00
780.57	1.6853E00
780.88	1.6480E00
781.19	1.6780E00
781.50	1.6524E00
781.80	1.6475E00
782.11	1.6719E00
782.42	1.6455E00
782.73	1.6914E00
783.04	1.6567E00
783.34	1.6686E00
783.65	1.6541E00
783.96	1.6651E00
784.27	1.6457E00
784.57	1.6872E00
784.88	1.6499E00
785.19	1.7255E00
785.50	1.6901E00
785.81	1.6497E00
786.11	1.6415E00
786.42	1.6395E00
786.73	1.6723E00
787.04	1.7054E00
787.34	1.6071E00
787.65	1.5982E00
787.96	1.5991E00
788.26	1.6243E00
788.57	1.6405E00
788.88	1.5752E00
789.19	1.5393E00
789.49	1.5869E00
789.80	1.6616E00
790.11	1.5971E00
790.41	1.5599E00
790.72	1.6287E00
791.03	1.5455E00
791.33	1.5662E00
791.64	1.5461E00
791.95	1.5966E00
792.25	1.5807E00
792.56	1.5894E00
792.87	1.6502E00
793.17	1.5784E00
793.48	1.6089E00
793.79	1.6472E00
794.09	1.6562E00
794.40	1.7009E00
794.70	1.6655E00
795.01	1.7525E00
795.32	1.6219E00
795.62	1.6939E00
795.93	1.5999E00
796.23	1.6145E00
796.54	1.5518E00
796.85	1.6029E00
797.15	1.5964E00
797.46	1.6192E00
797.76	1.6179E00
798.07	1.7043E00
798.37	1.6780E00
798.68	1.6850E00
798.99	1.7010E00
799.29	1.6571E00
799.60	1.6974E00
799.90	1.6400E00
800.21	1.5999E00
800.51	1.6043E00
800.82	1.7032E00
801.12	1.6458E00
801.43	1.6852E00
801.73	1.6290E00
802.04	1.6101E00
802.34	1.5961E00
802.65	1.6458E00
802.95	1.6239E00
803.26	1.6187E00
803.56	1.5972E00
803.87	1.6015E00
804.17	1.5844E00
804.48	1.6348E00
804.78	1.6651E00
805.09	1.6143E00
805.39	1.6655E00
805.70	1.7310E00
806.00	1.6889E00
806.30	1.7325E00
806.61	1.6907E00
806.91	1.7088E00
807.22	1.7494E00
807.52	1.7808E00
807.83	1.6937E00
808.13	1.7356E00
808.43	1.7226E00
808.74	1.7728E00
809.04	1.6515E00
809.35	1.6334E00
809.65	1.6990E00
809.95	1.6413E00
810.26	1.6039E00
810.56	1.5872E00
810.86	1.6478E00
811.17	1.5703E00
811.47	1.5974E00
811.77	1.5176E00
812.08	1.5063E00
812.38	1.4971E00
812.69	1.4631E00
812.99	1.5015E00
813.29	1.3793E00
813.59	1.3538E00
813.90	1.3686E00
814.20	1.3465E00
814.50	1.3237E00
814.81	1.2977E00
815.11	1.3010E00
815.41	1.1746E00
815.72	1.1674E00
816.02	1.1362E00
816.32	1.0787E00
816.62	1.0686E00
816.93	1.1413E00
817.23	1.0987E00
817.53	1.0733E00
817.84	1.0768E00
818.14	1.0909E00
818.44	1.1647E00
818.74	1.2473E00
819.04	1.1505E00
819.35	1.1338E00
819.65	1.1381E00
819.95	1.1572E00
820.25	1.1979E00
820.56	1.2443E00
820.86	1.2975E00
821.16	1.4246E00
821.46	1.3369E00
821.76	1.3215E00
822.07	1.4818E00
822.37	1.3498E00
822.67	1.5047E00
822.97	1.3492E00
823.27	1.1553E00
823.57	1.0598E00
823.88	1.1074E00
824.18	1.1477E00
824.48	1.1495E00
824.78	1.1883E00
825.08	1.3428E00
825.38	1.3474E00
825.69	1.2864E00
825.99	1.2937E00
826.29	1.3000E00
826.59	1.3144E00
826.89	1.3301E00
827.19	1.5471E00
827.49	1.3548E00
827.79	1.2525E00
828.09	1.2669E00
828.39	1.2244E00
828.70	1.1946E00
829.00	1.2967E00
829.30	1.2069E00
829.60	1.1726E00
829.90	1.2960E00
830.20	1.1993E00
830.50	1.1738E00
830.80	1.2597E00
831.10	1.2066E00
831.40	1.2782E00
831.70	1.2655E00
832.00	1.2493E00
832.30	1.1966E00
832.60	1.1826E00
832.90	1.1801E00
833.20	1.2125E00
833.50	1.1771E00
833.80	1.1705E00
834.10	1.1922E00
834.40	1.3093E00
834.70	1.2912E00
835.00	1.2358E00
835.30	1.2087E00
835.60	1.2504E00
835.90	1.2435E00
836.20	1.2606E00
836.50	1.2371E00
836.80	1.4870E00
837.10	1.9207E00
837.40	1.3527E00
837.70	1.5122E00
838.00	1.2918E00
838.30	1.4037E00
838.60	1.4101E00
838.90	1.3969E00
839.19	1.8066E00
839.49	1.3237E00
839.79	1.4305E00
840.09	1.3236E00
840.39	1.4385E00
840.69	1.4375E00
840.99	1.6641E00
841.29	1.4507E00
841.59	1.3483E00
841.88	1.3398E00
842.18	1.4271E00
842.48	1.3546E00
842.78	1.3586E00
843.08	1.4151E00
843.38	1.3795E00
843.68	1.6375E00
843.97	1.5913E00
844.27	1.4647E00
844.57	1.3405E00
844.87	1.4075E00
845.17	1.3924E00
845.47	1.3841E00
845.76	1.4980E00
846.06	1.5472E00
846.36	2.1877E00
846.66	1.3810E00
846.96	1.4848E00
847.25	1.4056E00
847.55	1.3995E00
847.85	1.4564E00
848.15	1.4382E00
848.44	1.4086E00
848.74	1.4453E00
849.04	1.4264E00
849.34	1.5994E00
849.63	1.4040E00
849.93	1.3988E00
850.23	1.3543E00
850.53	1.4114E00
850.82	1.4140E00
851.12	1.4186E00
851.42	1.5113E00
851.71	1.4538E00
852.01	1.4431E00
852.31	1.4426E00
852.61	1.3988E00
852.90	1.3838E00
853.20	1.5785E00
853.50	1.8808E00
853.79	1.7591E00
854.09	1.4294E00
854.39	1.4007E00
854.68	1.3601E00
854.98	1.3032E00
855.28	1.4517E00
855.57	1.6713E00
855.87	1.5162E00
856.17	1.5322E00
856.46	1.3879E00
856.76	1.3868E00
857.05	1.5668E00
857.35	1.3852E00
857.65	1.7924E00
857.94	1.6309E00
858.24	1.6538E00
858.53	1.4695E00
858.83	2.2388E00
859.13	1.5522E00
859.42	1.5476E00
859.72	1.6959E00
860.01	1.5083E00
860.31	1.4881E00
860.60	1.5272E00
860.90	1.7377E00
861.20	1.5288E00
861.49	1.5117E00
861.79	1.5429E00
862.08	2.9733E00
862.38	1.9559E00
862.67	1.6322E00
862.97	1.5229E00
863.26	1.5815E00
863.56	1.7742E00
863.85	2.0471E00
864.15	1.5613E00
864.44	1.5043E00
864.74	1.5522E00
865.03	1.9919E00
865.33	1.7900E00
865.62	1.6157E00
865.92	1.5605E00
866.21	1.5889E00
866.51	1.5435E00
866.80	1.8602E00
867.10	2.0235E00
867.39	1.7439E00
867.69	1.9837E00
867.98	1.5218E00
868.27	1.5423E00
868.57	1.5053E00
868.86	1.8054E00
869.16	1.5040E00
869.45	1.5361E00
869.75	1.5698E00
870.04	1.5560E00
870.33	1.8927E00
870.63	1.5872E00
870.92	1.5807E00
871.22	2.9801E00
871.51	1.6742E00
871.80	1.9125E00
872.10	1.9125E00
>>>>>End Processed Spectral Data<<<<<
