SpectraSuite Data File
++++++++++++++++++++++++++++++++++++
Date: Sat May 16 09:09:49 PDT 2015
User: schluterlab
Dark Spectrum Present: Yes
Reference Spectrum Present: No
Number of Sampled Component Spectra: 1
Spectrometers: USB2E3373
Integration Time (usec): 2300000 (USB2E3373)
Spectra Averaged: 3 (USB2E3373)
Boxcar Smoothing: 0 (USB2E3373)
Correct for Electrical Dark: No (USB2E3373)
Strobe/Lamp Enabled: No (USB2E3373)
Correct for Detector Non-linearity: No (USB2E3373)
Correct for Stray Light: No (USB2E3373)
Number of Pixels in Processed Spectrum: 2048
>>>>>Begin Processed Spectral Data<<<<<
178.53	-0.0000E00
178.91	-0.0000E00
179.29	-0.0000E00
179.67	-0.0000E00
180.04	-0.0000E00
180.42	0.0000E00
180.80	0.0000E00
181.18	-0.0000E00
181.56	0.0000E00
181.94	-0.0000E00
182.31	-0.0000E00
182.69	-0.0000E00
183.07	0.0000E00
183.45	-0.0000E00
183.83	-0.0000E00
184.20	-0.0000E00
184.58	0.0000E00
184.96	-0.0000E00
185.34	-0.0000E00
185.72	-0.0000E00
186.09	-0.0000E00
186.47	0.0000E00
186.85	-0.0000E00
187.23	-0.0000E00
187.61	0.0000E00
187.98	0.0000E00
188.36	0.0000E00
188.74	0.0000E00
189.12	0.0000E00
189.49	0.0000E00
189.87	0.0000E00
190.25	0.0000E00
190.63	0.0000E00
191.00	0.0000E00
191.38	0.0000E00
191.76	0.0000E00
192.14	0.0000E00
192.51	0.0000E00
192.89	0.0000E00
193.27	0.0000E00
193.65	0.0000E00
194.02	0.0000E00
194.40	0.0000E00
194.78	0.0000E00
195.15	0.0000E00
195.53	0.0000E00
195.91	0.0000E00
196.29	0.0000E00
196.66	0.0000E00
197.04	0.0000E00
197.42	0.0000E00
197.79	0.0000E00
198.17	0.0000E00
198.55	0.0000E00
198.92	0.0000E00
199.30	0.0000E00
199.68	0.0000E00
200.05	0.0000E00
200.43	0.0000E00
200.81	0.0000E00
201.18	0.0000E00
201.56	0.0000E00
201.94	0.0000E00
202.31	0.0000E00
202.69	0.0000E00
203.07	0.0000E00
203.44	0.0000E00
203.82	0.0000E00
204.19	0.0000E00
204.57	0.0000E00
204.95	0.0000E00
205.32	0.0000E00
205.70	0.0000E00
206.08	0.0000E00
206.45	0.0000E00
206.83	0.0000E00
207.20	0.0000E00
207.58	0.0000E00
207.96	0.0000E00
208.33	0.0000E00
208.71	0.0000E00
209.08	0.0000E00
209.46	0.0000E00
209.84	0.0000E00
210.21	0.0000E00
210.59	0.0000E00
210.96	0.0000E00
211.34	0.0000E00
211.71	0.0000E00
212.09	0.0000E00
212.46	0.0000E00
212.84	0.0000E00
213.22	-0.0000E00
213.59	0.0000E00
213.97	0.0000E00
214.34	0.0000E00
214.72	0.0000E00
215.09	0.0000E00
215.47	0.0000E00
215.84	0.0000E00
216.22	0.0000E00
216.59	0.0000E00
216.97	0.0000E00
217.34	0.0000E00
217.72	0.0000E00
218.09	0.0000E00
218.47	0.0000E00
218.84	-0.0000E00
219.22	0.0000E00
219.59	0.0000E00
219.97	0.0000E00
220.34	0.0000E00
220.72	0.0000E00
221.09	0.0000E00
221.47	0.0000E00
221.84	0.0000E00
222.22	0.0000E00
222.59	0.0000E00
222.97	0.0000E00
223.34	0.0000E00
223.72	0.0000E00
224.09	0.0000E00
224.46	0.0000E00
224.84	0.0000E00
225.21	0.0000E00
225.59	0.0000E00
225.96	0.0000E00
226.34	0.0000E00
226.71	0.0000E00
227.08	0.0000E00
227.46	0.0000E00
227.83	0.0000E00
228.21	0.0000E00
228.58	0.0000E00
228.95	0.0000E00
229.33	0.0000E00
229.70	0.0000E00
230.08	0.0000E00
230.45	0.0000E00
230.82	0.0000E00
231.20	0.0000E00
231.57	0.0000E00
231.95	0.0000E00
232.32	0.0000E00
232.69	0.0000E00
233.07	0.0000E00
233.44	0.0000E00
233.81	0.0000E00
234.19	0.0000E00
234.56	0.0000E00
234.93	0.0000E00
235.31	0.0000E00
235.68	0.0000E00
236.05	0.0000E00
236.43	0.0000E00
236.80	0.0000E00
237.17	0.0000E00
237.55	0.0000E00
237.92	0.0000E00
238.29	0.0000E00
238.67	0.0000E00
239.04	0.0000E00
239.41	0.0000E00
239.79	0.0000E00
240.16	0.0000E00
240.53	0.0000E00
240.91	0.0000E00
241.28	0.0000E00
241.65	0.0000E00
242.02	0.0000E00
242.40	0.0000E00
242.77	0.0000E00
243.14	0.0000E00
243.51	0.0000E00
243.89	0.0000E00
244.26	0.0000E00
244.63	0.0000E00
245.00	0.0000E00
245.38	0.0000E00
245.75	0.0000E00
246.12	0.0000E00
246.49	0.0000E00
246.87	0.0000E00
247.24	0.0000E00
247.61	0.0000E00
247.98	0.0000E00
248.36	0.0000E00
248.73	0.0000E00
249.10	0.0000E00
249.47	0.0000E00
249.84	0.0000E00
250.22	0.0000E00
250.59	0.0000E00
250.96	0.0000E00
251.33	0.0000E00
251.70	0.0000E00
252.08	0.0000E00
252.45	0.0000E00
252.82	0.0000E00
253.19	0.0000E00
253.56	0.0000E00
253.94	0.0000E00
254.31	0.0000E00
254.68	0.0000E00
255.05	0.0000E00
255.42	0.0000E00
255.79	0.0000E00
256.16	0.0000E00
256.54	0.0000E00
256.91	0.0000E00
257.28	0.0000E00
257.65	0.0000E00
258.02	0.0000E00
258.39	0.0000E00
258.76	0.0000E00
259.14	0.0000E00
259.51	0.0000E00
259.88	0.0000E00
260.25	0.0000E00
260.62	0.0000E00
260.99	0.0000E00
261.36	0.0000E00
261.73	0.0000E00
262.10	0.0000E00
262.47	0.0000E00
262.85	0.0000E00
263.22	0.0000E00
263.59	0.0000E00
263.96	0.0000E00
264.33	0.0000E00
264.70	0.0000E00
265.07	0.0000E00
265.44	0.0000E00
265.81	0.0000E00
266.18	0.0000E00
266.55	0.0000E00
266.92	0.0000E00
267.29	0.0000E00
267.66	0.0000E00
268.03	0.0000E00
268.40	0.0000E00
268.77	0.0000E00
269.14	0.0000E00
269.51	0.0000E00
269.88	0.0000E00
270.25	0.0000E00
270.62	0.0000E00
270.99	0.0000E00
271.36	0.0000E00
271.73	0.0000E00
272.10	0.0000E00
272.47	0.0000E00
272.84	0.0000E00
273.21	0.0000E00
273.58	0.0000E00
273.95	0.0000E00
274.32	0.0000E00
274.69	0.0000E00
275.06	0.0000E00
275.43	0.0000E00
275.80	0.0000E00
276.17	0.0000E00
276.54	0.0000E00
276.91	0.0000E00
277.28	0.0000E00
277.65	0.0000E00
278.02	0.0000E00
278.39	0.0000E00
278.76	0.0000E00
279.13	0.0000E00
279.50	0.0000E00
279.87	0.0000E00
280.23	0.0000E00
280.60	0.0000E00
280.97	0.0000E00
281.34	0.0000E00
281.71	0.0000E00
282.08	0.0000E00
282.45	0.0000E00
282.82	0.0000E00
283.19	0.0000E00
283.56	0.0000E00
283.92	0.0000E00
284.29	0.0000E00
284.66	0.0000E00
285.03	0.0000E00
285.40	0.0000E00
285.77	0.0000E00
286.14	0.0000E00
286.51	0.0000E00
286.87	0.0000E00
287.24	0.0000E00
287.61	0.0000E00
287.98	0.0000E00
288.35	0.0000E00
288.72	0.0000E00
289.08	0.0000E00
289.45	0.0000E00
289.82	0.0000E00
290.19	0.0000E00
290.56	0.0000E00
290.93	0.0000E00
291.29	0.0000E00
291.66	0.0000E00
292.03	0.0000E00
292.40	0.0000E00
292.77	0.0000E00
293.13	0.0000E00
293.50	0.0000E00
293.87	0.0000E00
294.24	0.0000E00
294.60	0.0000E00
294.97	0.0000E00
295.34	0.0000E00
295.71	0.0000E00
296.08	0.0000E00
296.44	0.0000E00
296.81	0.0000E00
297.18	0.0000E00
297.55	0.0000E00
297.91	0.0000E00
298.28	0.0000E00
298.65	0.0000E00
299.02	0.0000E00
299.38	0.0000E00
299.75	0.0000E00
300.12	3.0350E-01
300.48	6.9858E-02
300.85	9.5902E-02
301.22	9.6934E-02
301.59	1.0637E-01
301.95	1.5091E-01
302.32	1.6368E-01
302.69	5.6617E-02
303.05	6.0011E-02
303.42	1.1036E-01
303.79	9.3369E-02
304.15	1.9449E-01
304.52	1.4862E-01
304.89	1.6397E-01
305.25	1.1732E-01
305.62	1.0665E-01
305.99	4.1525E-01
306.35	1.1301E-01
306.72	1.5631E-01
307.09	1.8187E-01
307.45	1.4136E-01
307.82	1.5430E-01
308.19	1.4545E-01
308.55	1.5777E-01
308.92	3.4763E-01
309.29	2.2413E-01
309.65	2.4767E-01
310.02	1.5568E-01
310.38	1.1093E-01
310.75	3.6529E-01
311.12	1.2819E-01
311.48	2.5492E-01
311.85	2.1779E-01
312.22	1.3590E-01
312.58	1.5625E-01
312.95	2.4909E-01
313.31	2.6558E-01
313.68	2.0716E-01
314.05	2.7105E-01
314.41	3.9394E-01
314.78	1.9755E-01
315.14	3.2323E-01
315.51	4.7713E-01
315.87	2.4267E-01
316.24	2.4278E-01
316.61	4.5150E-01
316.97	4.1423E-01
317.34	3.5865E-01
317.70	6.5412E-01
318.07	5.0755E-01
318.43	3.8915E-01
318.80	5.9414E-01
319.16	5.2370E-01
319.53	7.1627E-01
319.89	4.0845E-01
320.26	3.6123E-01
320.62	8.4229E-01
320.99	3.2301E-01
321.35	5.2127E-01
321.72	4.3496E-01
322.08	4.7730E-01
322.45	3.9529E-01
322.81	9.0174E-01
323.18	5.9407E-01
323.54	4.0848E-01
323.91	4.1666E-01
324.27	3.5315E-01
324.64	7.3902E-01
325.00	6.7755E-01
325.37	4.3280E-01
325.73	7.1620E-01
326.10	7.2005E-01
326.46	6.6754E-01
326.83	1.6712E00
327.19	1.2343E00
327.56	7.7473E-01
327.92	1.0440E00
328.29	1.0266E00
328.65	7.5486E-01
329.01	7.8784E-01
329.38	9.0462E-01
329.74	9.2796E-01
330.11	6.6092E-01
330.47	1.0106E00
330.84	1.2676E00
331.20	1.4909E00
331.56	1.0709E00
331.93	1.0111E00
332.29	1.4547E00
332.66	5.6909E-01
333.02	1.2090E00
333.38	7.3263E-01
333.75	8.0776E-01
334.11	1.1266E00
334.48	8.0370E-01
334.84	8.7953E-01
335.20	9.0449E-01
335.57	9.6658E-01
335.93	2.3739E00
336.29	1.9609E00
336.66	8.2178E-01
337.02	1.5921E00
337.38	6.0654E-01
337.75	7.5958E-01
338.11	9.1127E-01
338.47	6.9961E-01
338.84	8.0411E-01
339.20	8.2105E-01
339.56	9.1731E-01
339.93	9.5472E-01
340.29	1.1843E00
340.65	7.8869E-01
341.02	1.5040E00
341.38	1.1099E00
341.74	1.5885E00
342.11	1.1177E00
342.47	9.1790E-01
342.83	1.3786E00
343.20	8.9752E-01
343.56	8.3171E-01
343.92	1.2367E00
344.28	9.6259E-01
344.65	1.2828E00
345.01	8.2626E-01
345.37	1.4369E00
345.73	1.0002E00
346.10	8.1030E-01
346.46	1.0167E00
346.82	1.1866E00
347.19	1.2418E00
347.55	1.0520E00
347.91	1.0819E00
348.27	1.1597E00
348.63	1.3130E00
349.00	8.9594E-01
349.36	8.3411E-01
349.72	9.5985E-01
350.08	1.5032E00
350.45	1.2800E00
350.81	1.3452E00
351.17	9.7113E-01
351.53	1.2364E00
351.89	1.3120E00
352.26	1.1247E00
352.62	1.2205E00
352.98	9.8649E-01
353.34	8.8539E-01
353.70	1.1909E00
354.07	1.0720E00
354.43	1.0968E00
354.79	1.2140E00
355.15	9.3262E-01
355.51	1.3923E00
355.87	1.3044E00
356.24	9.5663E-01
356.60	1.3284E00
356.96	1.1156E00
357.32	1.0177E00
357.68	9.7446E-01
358.04	9.3929E-01
358.40	8.4449E-01
358.77	9.7219E-01
359.13	9.3783E-01
359.49	1.2885E00
359.85	1.3503E00
360.21	1.0362E00
360.57	1.0174E00
360.93	1.1156E00
361.29	1.0886E00
361.66	1.2382E00
362.02	9.9196E-01
362.38	1.1185E00
362.74	1.0656E00
363.10	1.1837E00
363.46	1.2137E00
363.82	1.2687E00
364.18	1.1030E00
364.54	1.1514E00
364.90	9.2861E-01
365.26	9.7647E-01
365.62	1.0874E00
365.98	1.0266E00
366.35	1.0238E00
366.71	8.2751E-01
367.07	1.3816E00
367.43	1.2067E00
367.79	1.0462E00
368.15	1.0198E00
368.51	1.1444E00
368.87	1.0550E00
369.23	1.2394E00
369.59	9.8065E-01
369.95	1.3891E00
370.31	1.1022E00
370.67	1.1572E00
371.03	9.9831E-01
371.39	9.7605E-01
371.75	1.2417E00
372.11	1.1030E00
372.47	9.6215E-01
372.83	1.1114E00
373.19	1.1615E00
373.55	1.0447E00
373.91	1.1560E00
374.27	8.8873E-01
374.63	1.0176E00
374.99	9.5683E-01
375.35	1.0582E00
375.71	1.0351E00
376.07	9.6393E-01
376.42	1.0641E00
376.78	9.8198E-01
377.14	9.2895E-01
377.50	1.0497E00
377.86	9.8103E-01
378.22	1.1486E00
378.58	9.2124E-01
378.94	1.0162E00
379.30	8.3171E-01
379.66	9.3100E-01
380.02	1.0164E00
380.38	8.6780E-01
380.74	9.5736E-01
381.09	9.5811E-01
381.45	8.8639E-01
381.81	8.9494E-01
382.17	8.8197E-01
382.53	8.3572E-01
382.89	7.9332E-01
383.25	9.2282E-01
383.61	9.1775E-01
383.97	9.6980E-01
384.32	9.7831E-01
384.68	9.1699E-01
385.04	8.9991E-01
385.40	9.1463E-01
385.76	7.3154E-01
386.12	9.0752E-01
386.48	8.0999E-01
386.83	8.9310E-01
387.19	8.6729E-01
387.55	9.4192E-01
387.91	9.1262E-01
388.27	8.2826E-01
388.62	8.3068E-01
388.98	8.4940E-01
389.34	8.7790E-01
389.70	8.5944E-01
390.06	8.5228E-01
390.42	8.3550E-01
390.77	8.1473E-01
391.13	8.6990E-01
391.49	8.4310E-01
391.85	9.1782E-01
392.20	8.3946E-01
392.56	8.7169E-01
392.92	8.3182E-01
393.28	8.3111E-01
393.64	8.5547E-01
393.99	8.7772E-01
394.35	8.0963E-01
394.71	9.1731E-01
395.07	8.5352E-01
395.42	8.1831E-01
395.78	8.0904E-01
396.14	8.1591E-01
396.50	7.6493E-01
396.85	8.8674E-01
397.21	9.1776E-01
397.57	8.2911E-01
397.92	8.4821E-01
398.28	7.6063E-01
398.64	8.0821E-01
399.00	7.7288E-01
399.35	7.6329E-01
399.71	8.1149E-01
400.07	8.0376E-01
400.42	8.0799E-01
400.78	7.7762E-01
401.14	7.7180E-01
401.49	7.7844E-01
401.85	7.7863E-01
402.21	7.0626E-01
402.57	7.3864E-01
402.92	7.9666E-01
403.28	7.9318E-01
403.63	7.7836E-01
403.99	8.0455E-01
404.35	7.4380E-01
404.70	7.5011E-01
405.06	7.3788E-01
405.42	7.9187E-01
405.77	7.2304E-01
406.13	7.0369E-01
406.49	6.7498E-01
406.84	6.9492E-01
407.20	7.4046E-01
407.55	7.6354E-01
407.91	7.7311E-01
408.27	7.0354E-01
408.62	6.8848E-01
408.98	7.1840E-01
409.34	7.0532E-01
409.69	7.4323E-01
410.05	6.9435E-01
410.40	7.0080E-01
410.76	6.7472E-01
411.11	7.0042E-01
411.47	7.1761E-01
411.83	6.8280E-01
412.18	6.8128E-01
412.54	6.7770E-01
412.89	6.9501E-01
413.25	6.4728E-01
413.60	6.6857E-01
413.96	7.1164E-01
414.31	6.7094E-01
414.67	6.9981E-01
415.03	7.0751E-01
415.38	7.3814E-01
415.74	7.0682E-01
416.09	6.9905E-01
416.45	7.2271E-01
416.80	6.9379E-01
417.16	6.9356E-01
417.51	6.8518E-01
417.87	7.0493E-01
418.22	6.6017E-01
418.58	6.8154E-01
418.93	6.3925E-01
419.29	6.7536E-01
419.64	6.4405E-01
420.00	6.6339E-01
420.35	6.5597E-01
420.71	6.3174E-01
421.06	6.5582E-01
421.42	6.8935E-01
421.77	6.4839E-01
422.12	6.6214E-01
422.48	6.3798E-01
422.83	6.6791E-01
423.19	6.3169E-01
423.54	6.5513E-01
423.90	6.3823E-01
424.25	6.2721E-01
424.61	6.5671E-01
424.96	6.2718E-01
425.31	6.0797E-01
425.67	6.0200E-01
426.02	6.1479E-01
426.38	6.1445E-01
426.73	6.0630E-01
427.09	6.1571E-01
427.44	5.8578E-01
427.79	6.0027E-01
428.15	6.0437E-01
428.50	6.1167E-01
428.85	6.2930E-01
429.21	5.6914E-01
429.56	5.7850E-01
429.92	5.7166E-01
430.27	5.8795E-01
430.62	6.0556E-01
430.98	6.1257E-01
431.33	5.9445E-01
431.68	5.8187E-01
432.04	5.7491E-01
432.39	5.7446E-01
432.74	5.9850E-01
433.10	5.5349E-01
433.45	5.9234E-01
433.80	5.8089E-01
434.16	5.7469E-01
434.51	5.6877E-01
434.86	5.8687E-01
435.22	5.5975E-01
435.57	6.0999E-01
435.92	5.8641E-01
436.28	5.5185E-01
436.63	5.5801E-01
436.98	5.6088E-01
437.34	5.8316E-01
437.69	5.6076E-01
438.04	5.4109E-01
438.39	5.8101E-01
438.75	5.6491E-01
439.10	5.5042E-01
439.45	5.7676E-01
439.81	5.7850E-01
440.16	5.4502E-01
440.51	5.5726E-01
440.86	5.8456E-01
441.22	5.6032E-01
441.57	5.3994E-01
441.92	5.3933E-01
442.27	5.5621E-01
442.63	5.4754E-01
442.98	5.7734E-01
443.33	5.6706E-01
443.68	5.3252E-01
444.03	5.2485E-01
444.39	5.1841E-01
444.74	5.6248E-01
445.09	5.6607E-01
445.44	5.5702E-01
445.79	5.0848E-01
446.15	5.4238E-01
446.50	5.4811E-01
446.85	5.1641E-01
447.20	5.1465E-01
447.55	5.4084E-01
447.91	5.3662E-01
448.26	5.4651E-01
448.61	5.3388E-01
448.96	5.1634E-01
449.31	5.2703E-01
449.66	5.3429E-01
450.02	5.3058E-01
450.37	5.3269E-01
450.72	5.2015E-01
451.07	5.6223E-01
451.42	5.6550E-01
451.77	5.3519E-01
452.12	5.2616E-01
452.47	5.6071E-01
452.83	5.1972E-01
453.18	5.3520E-01
453.53	5.3030E-01
453.88	4.9367E-01
454.23	5.0416E-01
454.58	4.9910E-01
454.93	5.1209E-01
455.28	5.1219E-01
455.63	5.0240E-01
455.98	4.9538E-01
456.34	5.2199E-01
456.69	5.1153E-01
457.04	5.1208E-01
457.39	4.8374E-01
457.74	4.8926E-01
458.09	4.8998E-01
458.44	4.8296E-01
458.79	4.7179E-01
459.14	4.7467E-01
459.49	5.0061E-01
459.84	4.8011E-01
460.19	5.0458E-01
460.54	5.1633E-01
460.89	4.6875E-01
461.24	5.0480E-01
461.59	4.8769E-01
461.94	4.9894E-01
462.29	4.5946E-01
462.64	4.9186E-01
462.99	4.9919E-01
463.34	5.1867E-01
463.69	4.7797E-01
464.04	4.5837E-01
464.39	4.6454E-01
464.74	4.8188E-01
465.09	4.9607E-01
465.44	4.6187E-01
465.79	4.7686E-01
466.14	4.7470E-01
466.49	4.7109E-01
466.84	4.6970E-01
467.19	4.7536E-01
467.54	4.7383E-01
467.89	4.6116E-01
468.24	4.4173E-01
468.59	4.4928E-01
468.94	4.4951E-01
469.29	4.4702E-01
469.64	4.5848E-01
469.99	4.5040E-01
470.34	4.2959E-01
470.68	4.6335E-01
471.03	4.3956E-01
471.38	4.3528E-01
471.73	4.2503E-01
472.08	4.1794E-01
472.43	4.0493E-01
472.78	4.2947E-01
473.13	4.2627E-01
473.48	4.1572E-01
473.83	4.0508E-01
474.17	4.2132E-01
474.52	4.0845E-01
474.87	3.9389E-01
475.22	4.0123E-01
475.57	3.8005E-01
475.92	3.6635E-01
476.27	3.8923E-01
476.61	3.7313E-01
476.96	3.6848E-01
477.31	3.4733E-01
477.66	3.5951E-01
478.01	3.5267E-01
478.36	3.5278E-01
478.70	3.4542E-01
479.05	3.4765E-01
479.40	3.3968E-01
479.75	3.4085E-01
480.10	3.3259E-01
480.45	3.2809E-01
480.79	3.2581E-01
481.14	3.3178E-01
481.49	3.2633E-01
481.84	3.1659E-01
482.19	3.0988E-01
482.53	3.1570E-01
482.88	3.1024E-01
483.23	3.0607E-01
483.58	3.0214E-01
483.92	3.0933E-01
484.27	2.9650E-01
484.62	2.9671E-01
484.97	2.9093E-01
485.31	2.8719E-01
485.66	2.9215E-01
486.01	2.9298E-01
486.36	2.8264E-01
486.70	2.8753E-01
487.05	2.8637E-01
487.40	2.8308E-01
487.75	2.7829E-01
488.09	2.7763E-01
488.44	2.8109E-01
488.79	2.7898E-01
489.13	2.7492E-01
489.48	2.7525E-01
489.83	2.7788E-01
490.17	2.6960E-01
490.52	2.6879E-01
490.87	2.6970E-01
491.22	2.7298E-01
491.56	2.7228E-01
491.91	2.7447E-01
492.26	2.7189E-01
492.60	2.7132E-01
492.95	2.7311E-01
493.30	2.7238E-01
493.64	2.6925E-01
493.99	2.7368E-01
494.34	2.6934E-01
494.68	2.6557E-01
495.03	2.7075E-01
495.37	2.6717E-01
495.72	2.7109E-01
496.07	2.6476E-01
496.41	2.6804E-01
496.76	2.6759E-01
497.11	2.6866E-01
497.45	2.6833E-01
497.80	2.6963E-01
498.14	2.6606E-01
498.49	2.7035E-01
498.84	2.6821E-01
499.18	2.6879E-01
499.53	2.6818E-01
499.87	2.6392E-01
500.22	2.7099E-01
500.56	2.6802E-01
500.91	2.6893E-01
501.26	2.6649E-01
501.60	2.6843E-01
501.95	2.6623E-01
502.29	2.6765E-01
502.64	2.6568E-01
502.98	2.6972E-01
503.33	2.6535E-01
503.67	2.6815E-01
504.02	2.6674E-01
504.36	2.6566E-01
504.71	2.6738E-01
505.06	2.6533E-01
505.40	2.6355E-01
505.75	2.6467E-01
506.09	2.6442E-01
506.44	2.6390E-01
506.78	2.6573E-01
507.13	2.6640E-01
507.47	2.6358E-01
507.82	2.6324E-01
508.16	2.6351E-01
508.51	2.6282E-01
508.85	2.5971E-01
509.19	2.6051E-01
509.54	2.6250E-01
509.88	2.6189E-01
510.23	2.5738E-01
510.57	2.5820E-01
510.92	2.5995E-01
511.26	2.5981E-01
511.61	2.5996E-01
511.95	2.5775E-01
512.30	2.5753E-01
512.64	2.5852E-01
512.98	2.5724E-01
513.33	2.5829E-01
513.67	2.5622E-01
514.02	2.5759E-01
514.36	2.5441E-01
514.70	2.5533E-01
515.05	2.5396E-01
515.39	2.5499E-01
515.74	2.5535E-01
516.08	2.5611E-01
516.42	2.5283E-01
516.77	2.5475E-01
517.11	2.5236E-01
517.46	2.5335E-01
517.80	2.5272E-01
518.14	2.5207E-01
518.49	2.5158E-01
518.83	2.5066E-01
519.17	2.5417E-01
519.52	2.5187E-01
519.86	2.5259E-01
520.20	2.5039E-01
520.55	2.5143E-01
520.89	2.5028E-01
521.23	2.5147E-01
521.58	2.5284E-01
521.92	2.5162E-01
522.26	2.5510E-01
522.61	2.5103E-01
522.95	2.5281E-01
523.29	2.4960E-01
523.64	2.5095E-01
523.98	2.5288E-01
524.32	2.5274E-01
524.66	2.5328E-01
525.01	2.5323E-01
525.35	2.5495E-01
525.69	2.5456E-01
526.04	2.5650E-01
526.38	2.5093E-01
526.72	2.5698E-01
527.06	2.5436E-01
527.41	2.5737E-01
527.75	2.5816E-01
528.09	2.5550E-01
528.43	2.5972E-01
528.78	2.5792E-01
529.12	2.6225E-01
529.46	2.6058E-01
529.80	2.6159E-01
530.15	2.6126E-01
530.49	2.6257E-01
530.83	2.6477E-01
531.17	2.6398E-01
531.51	2.6611E-01
531.86	2.6386E-01
532.20	2.6727E-01
532.54	2.6686E-01
532.88	2.6889E-01
533.22	2.7113E-01
533.57	2.7452E-01
533.91	2.7034E-01
534.25	2.7185E-01
534.59	2.7226E-01
534.93	2.7168E-01
535.27	2.7212E-01
535.62	2.7756E-01
535.96	2.7642E-01
536.30	2.7594E-01
536.64	2.7756E-01
536.98	2.8140E-01
537.32	2.7843E-01
537.66	2.8132E-01
538.01	2.8070E-01
538.35	2.8414E-01
538.69	2.8289E-01
539.03	2.8671E-01
539.37	2.8494E-01
539.71	2.8696E-01
540.05	2.8574E-01
540.39	2.8599E-01
540.73	2.8742E-01
541.07	2.8670E-01
541.42	2.8656E-01
541.76	2.8824E-01
542.10	2.9020E-01
542.44	2.9069E-01
542.78	2.9348E-01
543.12	2.8797E-01
543.46	2.9420E-01
543.80	2.8989E-01
544.14	2.9184E-01
544.48	2.8975E-01
544.82	2.9444E-01
545.16	2.9347E-01
545.50	2.9297E-01
545.84	2.9769E-01
546.18	2.9426E-01
546.52	2.9556E-01
546.86	2.9432E-01
547.20	2.9964E-01
547.54	3.0186E-01
547.88	2.9711E-01
548.22	2.9771E-01
548.56	3.0081E-01
548.90	3.0064E-01
549.24	3.0094E-01
549.58	3.0186E-01
549.92	3.0176E-01
550.26	3.0296E-01
550.60	3.0207E-01
550.94	3.0080E-01
551.28	3.0529E-01
551.62	3.0141E-01
551.96	3.0377E-01
552.30	3.0542E-01
552.64	3.0513E-01
552.98	3.0529E-01
553.32	3.0596E-01
553.66	3.0601E-01
554.00	3.0279E-01
554.34	3.0504E-01
554.68	3.0515E-01
555.02	3.0400E-01
555.36	3.0784E-01
555.69	3.0905E-01
556.03	3.0481E-01
556.37	3.0770E-01
556.71	3.0532E-01
557.05	3.0535E-01
557.39	3.0774E-01
557.73	3.0537E-01
558.07	3.0781E-01
558.41	3.0734E-01
558.75	3.0870E-01
559.08	3.0715E-01
559.42	3.0610E-01
559.76	3.0868E-01
560.10	3.0902E-01
560.44	3.0945E-01
560.78	3.0570E-01
561.12	3.1013E-01
561.45	3.1024E-01
561.79	3.0866E-01
562.13	3.0790E-01
562.47	3.0858E-01
562.81	3.1023E-01
563.15	3.1061E-01
563.48	3.1118E-01
563.82	3.0740E-01
564.16	3.1004E-01
564.50	3.1250E-01
564.84	3.0859E-01
565.17	3.0968E-01
565.51	3.0794E-01
565.85	3.1179E-01
566.19	3.0811E-01
566.52	3.1214E-01
566.86	3.0971E-01
567.20	3.1403E-01
567.54	3.1256E-01
567.88	3.1287E-01
568.21	3.1356E-01
568.55	3.1263E-01
568.89	3.1327E-01
569.23	3.1339E-01
569.56	3.1246E-01
569.90	3.1302E-01
570.24	3.1652E-01
570.57	3.1383E-01
570.91	3.1573E-01
571.25	3.1457E-01
571.59	3.1546E-01
571.92	3.1604E-01
572.26	3.1658E-01
572.60	3.1813E-01
572.93	3.1654E-01
573.27	3.2196E-01
573.61	3.2183E-01
573.95	3.1431E-01
574.28	3.2197E-01
574.62	3.2173E-01
574.96	3.2432E-01
575.29	3.2333E-01
575.63	3.2746E-01
575.97	3.2506E-01
576.30	3.3023E-01
576.64	3.2675E-01
576.98	3.2915E-01
577.31	3.3067E-01
577.65	3.3348E-01
577.98	3.2762E-01
578.32	3.3483E-01
578.66	3.3743E-01
578.99	3.3595E-01
579.33	3.3837E-01
579.67	3.3705E-01
580.00	3.3870E-01
580.34	3.3867E-01
580.67	3.4174E-01
581.01	3.4047E-01
581.35	3.4284E-01
581.68	3.4367E-01
582.02	3.4563E-01
582.35	3.4430E-01
582.69	3.4655E-01
583.02	3.5191E-01
583.36	3.5169E-01
583.70	3.5088E-01
584.03	3.5154E-01
584.37	3.5110E-01
584.70	3.5419E-01
585.04	3.5740E-01
585.37	3.5570E-01
585.71	3.5988E-01
586.04	3.5945E-01
586.38	3.5683E-01
586.72	3.6482E-01
587.05	3.5995E-01
587.39	3.6311E-01
587.72	3.6119E-01
588.06	3.6640E-01
588.39	3.6121E-01
588.73	3.6869E-01
589.06	3.6687E-01
589.40	3.7010E-01
589.73	3.7239E-01
590.07	3.7240E-01
590.40	3.7417E-01
590.73	3.7667E-01
591.07	3.7553E-01
591.40	3.7866E-01
591.74	3.7264E-01
592.07	3.7857E-01
592.41	3.8044E-01
592.74	3.8143E-01
593.08	3.7771E-01
593.41	3.8031E-01
593.75	3.8239E-01
594.08	3.8664E-01
594.41	3.8538E-01
594.75	3.8688E-01
595.08	3.8507E-01
595.42	3.8187E-01
595.75	3.8496E-01
596.09	3.8889E-01
596.42	3.8636E-01
596.75	3.8751E-01
597.09	3.9325E-01
597.42	3.8607E-01
597.75	3.9452E-01
598.09	3.9343E-01
598.42	3.9115E-01
598.76	3.9107E-01
599.09	3.9489E-01
599.42	3.9633E-01
599.76	3.9448E-01
600.09	3.9632E-01
600.42	4.0001E-01
600.76	3.9114E-01
601.09	3.9444E-01
601.42	4.0376E-01
601.76	4.0040E-01
602.09	3.9874E-01
602.42	3.9767E-01
602.76	3.9778E-01
603.09	3.9847E-01
603.42	4.0179E-01
603.76	3.9902E-01
604.09	4.0096E-01
604.42	4.0096E-01
604.76	3.9824E-01
605.09	4.0381E-01
605.42	4.0026E-01
605.75	4.0291E-01
606.09	4.0476E-01
606.42	4.0408E-01
606.75	4.0687E-01
607.09	4.0390E-01
607.42	4.0313E-01
607.75	4.0454E-01
608.08	4.0572E-01
608.42	4.0837E-01
608.75	4.0544E-01
609.08	4.0910E-01
609.41	4.0763E-01
609.75	4.0528E-01
610.08	4.0932E-01
610.41	4.0922E-01
610.74	4.0941E-01
611.07	4.0999E-01
611.41	4.0540E-01
611.74	4.0925E-01
612.07	4.0807E-01
612.40	4.0564E-01
612.73	4.0980E-01
613.07	4.1486E-01
613.40	4.0816E-01
613.73	4.0812E-01
614.06	4.1261E-01
614.39	4.1017E-01
614.72	4.1497E-01
615.06	4.1269E-01
615.39	4.1701E-01
615.72	4.1260E-01
616.05	4.1785E-01
616.38	4.1834E-01
616.71	4.1625E-01
617.05	4.1351E-01
617.38	4.1828E-01
617.71	4.1710E-01
618.04	4.1698E-01
618.37	4.1293E-01
618.70	4.1704E-01
619.03	4.1695E-01
619.36	4.1048E-01
619.69	4.1900E-01
620.03	4.1562E-01
620.36	4.1590E-01
620.69	4.1574E-01
621.02	4.1423E-01
621.35	4.1475E-01
621.68	4.1271E-01
622.01	4.1589E-01
622.34	4.1489E-01
622.67	4.1506E-01
623.00	4.1462E-01
623.33	4.1336E-01
623.66	4.1543E-01
623.99	4.1697E-01
624.32	4.1105E-01
624.65	4.1372E-01
624.99	4.1333E-01
625.32	4.1836E-01
625.65	4.1541E-01
625.98	4.1139E-01
626.31	4.1438E-01
626.64	4.1817E-01
626.97	4.1624E-01
627.30	4.1272E-01
627.63	4.1164E-01
627.96	4.1108E-01
628.29	4.1240E-01
628.62	4.1524E-01
628.95	4.1452E-01
629.28	4.1063E-01
629.61	4.2024E-01
629.94	4.1706E-01
630.26	4.1873E-01
630.59	4.1927E-01
630.92	4.1780E-01
631.25	4.1730E-01
631.58	4.2493E-01
631.91	4.1969E-01
632.24	4.2460E-01
632.57	4.2334E-01
632.90	4.2480E-01
633.23	4.2203E-01
633.56	4.2588E-01
633.89	4.2565E-01
634.22	4.2728E-01
634.55	4.2734E-01
634.88	4.3115E-01
635.20	4.3201E-01
635.53	4.3652E-01
635.86	4.3352E-01
636.19	4.4002E-01
636.52	4.4004E-01
636.85	4.4047E-01
637.18	4.4434E-01
637.51	4.4341E-01
637.83	4.4688E-01
638.16	4.4548E-01
638.49	4.5310E-01
638.82	4.4745E-01
639.15	4.5509E-01
639.48	4.5497E-01
639.81	4.6206E-01
640.13	4.5721E-01
640.46	4.6569E-01
640.79	4.6186E-01
641.12	4.6799E-01
641.45	4.6407E-01
641.77	4.6444E-01
642.10	4.7594E-01
642.43	4.7777E-01
642.76	4.8148E-01
643.09	4.7668E-01
643.41	4.8072E-01
643.74	4.8066E-01
644.07	4.8352E-01
644.40	4.8303E-01
644.73	4.9024E-01
645.05	4.9092E-01
645.38	4.8949E-01
645.71	4.9733E-01
646.04	4.9585E-01
646.36	4.9534E-01
646.69	5.0449E-01
647.02	5.0632E-01
647.35	5.0117E-01
647.67	5.0909E-01
648.00	5.0671E-01
648.33	5.1111E-01
648.66	5.0912E-01
648.98	5.1587E-01
649.31	5.1299E-01
649.64	5.1530E-01
649.96	5.1906E-01
650.29	5.2655E-01
650.62	5.2271E-01
650.94	5.2322E-01
651.27	5.2596E-01
651.60	5.2309E-01
651.92	5.3367E-01
652.25	5.3744E-01
652.58	5.3534E-01
652.90	5.3480E-01
653.23	5.3551E-01
653.56	5.3847E-01
653.88	5.4269E-01
654.21	5.4097E-01
654.54	5.4473E-01
654.86	5.5095E-01
655.19	5.4778E-01
655.52	5.5313E-01
655.84	5.4754E-01
656.17	5.5559E-01
656.49	5.5498E-01
656.82	5.5205E-01
657.15	5.5855E-01
657.47	5.5991E-01
657.80	5.6211E-01
658.13	5.6080E-01
658.45	5.6313E-01
658.78	5.6458E-01
659.10	5.6902E-01
659.43	5.6669E-01
659.75	5.6902E-01
660.08	5.6726E-01
660.41	5.7810E-01
660.73	5.7525E-01
661.06	5.7484E-01
661.38	5.7852E-01
661.71	5.8196E-01
662.03	5.7876E-01
662.36	5.8602E-01
662.68	5.8237E-01
663.01	5.7739E-01
663.33	5.8591E-01
663.66	5.8810E-01
663.98	5.8664E-01
664.31	5.8803E-01
664.63	6.0070E-01
664.96	5.8588E-01
665.28	5.9346E-01
665.61	5.9529E-01
665.93	5.9556E-01
666.26	5.9492E-01
666.58	5.9996E-01
666.91	6.0112E-01
667.23	6.0740E-01
667.56	6.0160E-01
667.88	6.0492E-01
668.21	6.0858E-01
668.53	6.0615E-01
668.86	6.1327E-01
669.18	6.0864E-01
669.50	6.1702E-01
669.83	6.1162E-01
670.15	6.1659E-01
670.48	6.1764E-01
670.80	6.1663E-01
671.13	6.1665E-01
671.45	6.2056E-01
671.77	6.2013E-01
672.10	6.1755E-01
672.42	6.3279E-01
672.75	6.2648E-01
673.07	6.3072E-01
673.39	6.2516E-01
673.72	6.2944E-01
674.04	6.3361E-01
674.37	6.3309E-01
674.69	6.3226E-01
675.01	6.3583E-01
675.34	6.4247E-01
675.66	6.4082E-01
675.98	6.3603E-01
676.31	6.4511E-01
676.63	6.4273E-01
676.95	6.4437E-01
677.28	6.5191E-01
677.60	6.5237E-01
677.92	6.4699E-01
678.25	6.5547E-01
678.57	6.5578E-01
678.89	6.5158E-01
679.22	6.6227E-01
679.54	6.5900E-01
679.86	6.6102E-01
680.18	6.6687E-01
680.51	6.5933E-01
680.83	6.7494E-01
681.15	6.6636E-01
681.48	6.7057E-01
681.80	6.7041E-01
682.12	6.6770E-01
682.44	6.8031E-01
682.77	6.8209E-01
683.09	6.8599E-01
683.41	6.8045E-01
683.73	6.8945E-01
684.06	6.8508E-01
684.38	6.8828E-01
684.70	6.9131E-01
685.02	6.9370E-01
685.34	6.9979E-01
685.67	6.9642E-01
685.99	7.1095E-01
686.31	7.0066E-01
686.63	7.0986E-01
686.96	7.1382E-01
687.28	7.1751E-01
687.60	7.0592E-01
687.92	7.1326E-01
688.24	7.2230E-01
688.56	7.2862E-01
688.89	7.2199E-01
689.21	7.3061E-01
689.53	7.2720E-01
689.85	7.3535E-01
690.17	7.3031E-01
690.49	7.4361E-01
690.82	7.4274E-01
691.14	7.4272E-01
691.46	7.4630E-01
691.78	7.4991E-01
692.10	7.4675E-01
692.42	7.5755E-01
692.74	7.6290E-01
693.06	7.5939E-01
693.39	7.7037E-01
693.71	7.7468E-01
694.03	7.7580E-01
694.35	7.7930E-01
694.67	7.7990E-01
694.99	7.9254E-01
695.31	7.8658E-01
695.63	7.9090E-01
695.95	7.9815E-01
696.27	7.9790E-01
696.59	7.9990E-01
696.91	8.0794E-01
697.23	8.1382E-01
697.56	8.1505E-01
697.88	8.1318E-01
698.20	8.1898E-01
698.52	8.2382E-01
698.84	8.3101E-01
699.16	8.3370E-01
699.48	8.3047E-01
699.80	8.3833E-01
700.12	8.4904E-01
700.44	8.4917E-01
700.76	8.5366E-01
701.08	8.6209E-01
701.40	8.5962E-01
701.72	8.6487E-01
702.04	8.6743E-01
702.36	8.7556E-01
702.68	8.8134E-01
703.00	8.8463E-01
703.32	8.8905E-01
703.64	8.9603E-01
703.96	8.8712E-01
704.28	8.9195E-01
704.60	8.9931E-01
704.91	9.0871E-01
705.23	9.0750E-01
705.55	9.2210E-01
705.87	9.1884E-01
706.19	9.1884E-01
706.51	9.2500E-01
706.83	9.2924E-01
707.15	9.4821E-01
707.47	9.3954E-01
707.79	9.5389E-01
708.11	9.5074E-01
708.43	9.5812E-01
708.74	9.6477E-01
709.06	9.7430E-01
709.38	9.7312E-01
709.70	9.7437E-01
710.02	9.8418E-01
710.34	9.7891E-01
710.66	9.9473E-01
710.98	1.0009E00
711.29	1.0039E00
711.61	1.0160E00
711.93	1.0166E00
712.25	1.0128E00
712.57	1.0263E00
712.89	1.0352E00
713.20	1.0340E00
713.52	1.0372E00
713.84	1.0571E00
714.16	1.0478E00
714.48	1.0471E00
714.80	1.0671E00
715.11	1.0654E00
715.43	1.0744E00
715.75	1.0742E00
716.07	1.1026E00
716.39	1.0731E00
716.70	1.0898E00
717.02	1.0834E00
717.34	1.1080E00
717.66	1.1058E00
717.97	1.1086E00
718.29	1.1233E00
718.61	1.1271E00
718.93	1.1435E00
719.24	1.1424E00
719.56	1.1500E00
719.88	1.1639E00
720.20	1.1763E00
720.51	1.1873E00
720.83	1.1793E00
721.15	1.2057E00
721.46	1.1958E00
721.78	1.2076E00
722.10	1.2224E00
722.42	1.2222E00
722.73	1.2343E00
723.05	1.2332E00
723.37	1.2441E00
723.68	1.2722E00
724.00	1.2566E00
724.32	1.2779E00
724.63	1.2648E00
724.95	1.2758E00
725.27	1.2821E00
725.58	1.2861E00
725.90	1.2810E00
726.22	1.3031E00
726.53	1.2931E00
726.85	1.3005E00
727.16	1.3088E00
727.48	1.3136E00
727.80	1.3178E00
728.11	1.3296E00
728.43	1.3156E00
728.74	1.3159E00
729.06	1.3441E00
729.38	1.3424E00
729.69	1.3435E00
730.01	1.3535E00
730.32	1.3654E00
730.64	1.3631E00
730.96	1.3463E00
731.27	1.3814E00
731.59	1.3622E00
731.90	1.3593E00
732.22	1.3712E00
732.53	1.3866E00
732.85	1.4019E00
733.16	1.3904E00
733.48	1.3849E00
733.80	1.3810E00
734.11	1.4084E00
734.43	1.4307E00
734.74	1.4171E00
735.06	1.4306E00
735.37	1.4262E00
735.69	1.4327E00
736.00	1.4394E00
736.32	1.4381E00
736.63	1.4537E00
736.95	1.4615E00
737.26	1.4804E00
737.58	1.4704E00
737.89	1.4756E00
738.21	1.4684E00
738.52	1.4794E00
738.83	1.5009E00
739.15	1.4855E00
739.46	1.5093E00
739.78	1.4987E00
740.09	1.5087E00
740.41	1.5098E00
740.72	1.5078E00
741.04	1.5110E00
741.35	1.5195E00
741.66	1.5391E00
741.98	1.5270E00
742.29	1.5350E00
742.61	1.5477E00
742.92	1.5255E00
743.23	1.5384E00
743.55	1.5519E00
743.86	1.5409E00
744.18	1.5499E00
744.49	1.5377E00
744.80	1.5334E00
745.12	1.5372E00
745.43	1.5555E00
745.74	1.5527E00
746.06	1.5430E00
746.37	1.5434E00
746.68	1.5470E00
747.00	1.5515E00
747.31	1.5483E00
747.62	1.5384E00
747.94	1.5459E00
748.25	1.5453E00
748.56	1.5494E00
748.88	1.5402E00
749.19	1.5553E00
749.50	1.5436E00
749.82	1.5539E00
750.13	1.5500E00
750.44	1.5480E00
750.75	1.5347E00
751.07	1.5459E00
751.38	1.5672E00
751.69	1.5477E00
752.01	1.5694E00
752.32	1.5625E00
752.63	1.5481E00
752.94	1.5533E00
753.26	1.5551E00
753.57	1.5551E00
753.88	1.5703E00
754.19	1.5592E00
754.51	1.5733E00
754.82	1.5633E00
755.13	1.5927E00
755.44	1.5758E00
755.75	1.5833E00
756.07	1.5978E00
756.38	1.6076E00
756.69	1.5992E00
757.00	1.6219E00
757.31	1.6281E00
757.63	1.6294E00
757.94	1.6382E00
758.25	1.6554E00
758.56	1.6262E00
758.87	1.6636E00
759.18	1.6662E00
759.50	1.6591E00
759.81	1.6679E00
760.12	1.6936E00
760.43	1.6657E00
760.74	7.9133E-01
761.05	7.1171E-01
761.36	7.8394E-01
761.67	9.6854E-01
761.99	1.0923E00
762.30	1.1828E00
762.61	1.1566E00
762.92	1.1089E00
763.23	1.0971E00
763.54	1.0883E00
763.85	1.1271E00
764.16	1.1554E00
764.47	1.3557E00
764.78	1.2845E00
765.10	1.4489E00
765.41	1.4753E00
765.72	1.6281E00
766.03	1.6098E00
766.34	1.6987E00
766.65	1.7950E00
766.96	1.9432E00
767.27	1.9564E00
767.58	1.9751E00
767.89	2.0037E00
768.20	2.0523E00
768.51	2.0536E00
768.82	2.0483E00
769.13	2.0523E00
769.44	2.1016E00
769.75	2.0921E00
770.06	2.0906E00
770.37	2.0992E00
770.68	2.1271E00
770.99	2.1635E00
771.30	2.1802E00
771.61	2.2270E00
771.92	2.2058E00
772.23	2.2226E00
772.54	2.2522E00
772.85	2.2567E00
773.16	2.2919E00
773.47	2.3334E00
773.78	2.3326E00
774.09	2.3417E00
774.39	2.3634E00
774.70	2.3656E00
775.01	2.4313E00
775.32	2.4426E00
775.63	2.4520E00
775.94	2.4720E00
776.25	2.4640E00
776.56	2.5230E00
776.87	2.5750E00
777.18	2.5711E00
777.48	2.6146E00
777.79	2.6413E00
778.10	2.6641E00
778.41	2.6427E00
778.72	2.5999E00
779.03	2.5987E00
779.34	2.6410E00
779.65	2.5199E00
779.95	2.4407E00
780.26	2.4491E00
780.57	2.4773E00
780.88	2.4454E00
781.19	2.4692E00
781.50	2.4610E00
781.80	2.4528E00
782.11	2.4640E00
782.42	2.4576E00
782.73	2.4962E00
783.04	2.4646E00
783.34	2.4694E00
783.65	2.4589E00
783.96	2.4376E00
784.27	2.4359E00
784.57	2.4819E00
784.88	2.4379E00
785.19	2.5160E00
785.50	2.4650E00
785.81	2.4335E00
786.11	2.4376E00
786.42	2.4197E00
786.73	2.4588E00
787.04	2.5030E00
787.34	2.3681E00
787.65	2.3625E00
787.96	2.3752E00
788.26	2.3822E00
788.57	2.3672E00
788.88	2.3152E00
789.19	2.2539E00
789.49	2.2836E00
789.80	2.3676E00
790.11	2.3036E00
790.41	2.2790E00
790.72	2.3333E00
791.03	2.2517E00
791.33	2.2655E00
791.64	2.2475E00
791.95	2.2902E00
792.25	2.2990E00
792.56	2.3218E00
792.87	2.3834E00
793.17	2.2780E00
793.48	2.3098E00
793.79	2.3876E00
794.09	2.3629E00
794.40	2.4281E00
794.70	2.4063E00
795.01	2.4788E00
795.32	2.3704E00
795.62	2.4264E00
795.93	2.2826E00
796.23	2.3211E00
796.54	2.2411E00
796.85	2.2820E00
797.15	2.2710E00
797.46	2.3133E00
797.76	2.3212E00
798.07	2.3990E00
798.37	2.3821E00
798.68	2.3800E00
798.99	2.3872E00
799.29	2.3638E00
799.60	2.3948E00
799.90	2.3648E00
800.21	2.2965E00
800.51	2.2789E00
800.82	2.4061E00
801.12	2.3342E00
801.43	2.3804E00
801.73	2.2907E00
802.04	2.2823E00
802.34	2.2580E00
802.65	2.3232E00
802.95	2.3079E00
803.26	2.3104E00
803.56	2.2631E00
803.87	2.2679E00
804.17	2.2397E00
804.48	2.3059E00
804.78	2.3196E00
805.09	2.2871E00
805.39	2.3409E00
805.70	2.4280E00
806.00	2.3610E00
806.30	2.4044E00
806.61	2.3920E00
806.91	2.3928E00
807.22	2.4352E00
807.52	2.4821E00
807.83	2.3854E00
808.13	2.4325E00
808.43	2.4144E00
808.74	2.4664E00
809.04	2.3428E00
809.35	2.3017E00
809.65	2.3556E00
809.95	2.3187E00
810.26	2.2561E00
810.56	2.2490E00
810.86	2.3019E00
811.17	2.2256E00
811.47	2.2367E00
811.77	2.1074E00
812.08	2.1301E00
812.38	2.1242E00
812.69	2.0861E00
812.99	2.0792E00
813.29	1.9662E00
813.59	1.9068E00
813.90	1.9014E00
814.20	1.8694E00
814.50	1.8539E00
814.81	1.7785E00
815.11	1.7752E00
815.41	1.6556E00
815.72	1.6271E00
816.02	1.5780E00
816.32	1.5380E00
816.62	1.5100E00
816.93	1.5589E00
817.23	1.5242E00
817.53	1.5305E00
817.84	1.5502E00
818.14	1.5184E00
818.44	1.5926E00
818.74	1.6877E00
819.04	1.6031E00
819.35	1.6061E00
819.65	1.5974E00
819.95	1.6365E00
820.25	1.6903E00
820.56	1.7785E00
820.86	1.8144E00
821.16	1.9839E00
821.46	1.9261E00
821.76	1.8882E00
822.07	2.0149E00
822.37	1.9051E00
822.67	2.0033E00
822.97	1.8549E00
823.27	1.6060E00
823.57	1.5225E00
823.88	1.5926E00
824.18	1.6202E00
824.48	1.6420E00
824.78	1.7241E00
825.08	1.9041E00
825.38	1.9132E00
825.69	1.8399E00
825.99	1.8915E00
826.29	1.8969E00
826.59	1.9224E00
826.89	1.9535E00
827.19	2.2038E00
827.49	1.9821E00
827.79	1.8247E00
828.09	1.8519E00
828.39	1.8105E00
828.70	1.7943E00
829.00	1.9108E00
829.30	1.8368E00
829.60	1.7647E00
829.90	1.9343E00
830.20	1.8075E00
830.50	1.7718E00
830.80	1.8997E00
831.10	1.8465E00
831.40	1.9244E00
831.70	1.9194E00
832.00	1.8837E00
832.30	1.8595E00
832.60	1.8394E00
832.90	1.8554E00
833.20	1.8617E00
833.50	1.8478E00
833.80	1.8368E00
834.10	1.8823E00
834.40	1.9824E00
834.70	1.9765E00
835.00	1.9630E00
835.30	1.9601E00
835.60	1.9802E00
835.90	1.9885E00
836.20	2.0302E00
836.50	2.0383E00
836.80	2.2672E00
837.10	2.6709E00
837.40	2.1253E00
837.70	2.3017E00
838.00	2.0946E00
838.30	2.2127E00
838.60	2.1919E00
838.90	2.1372E00
839.19	2.6264E00
839.49	2.1565E00
839.79	2.2937E00
840.09	2.1364E00
840.39	2.2924E00
840.69	2.2970E00
840.99	2.5283E00
841.29	2.3259E00
841.59	2.1914E00
841.88	2.1939E00
842.18	2.2894E00
842.48	2.2451E00
842.78	2.2424E00
843.08	2.2933E00
843.38	2.2921E00
843.68	2.5474E00
843.97	2.4492E00
844.27	2.3244E00
844.57	2.2061E00
844.87	2.2509E00
845.17	2.2974E00
845.47	2.3138E00
845.76	2.3962E00
846.06	2.4546E00
846.36	3.0995E00
846.66	2.3198E00
846.96	2.4188E00
847.25	2.3229E00
847.55	2.3438E00
847.85	2.3722E00
848.15	2.3587E00
848.44	2.3289E00
848.74	2.3728E00
849.04	2.3968E00
849.34	2.5128E00
849.63	2.3148E00
849.93	2.3028E00
850.23	2.2550E00
850.53	2.2903E00
850.82	2.2751E00
851.12	2.2689E00
851.42	2.4047E00
851.71	2.2888E00
852.01	2.3329E00
852.31	2.3646E00
852.61	2.2804E00
852.90	2.2951E00
853.20	2.4743E00
853.50	2.7946E00
853.79	2.6036E00
854.09	2.3056E00
854.39	2.2769E00
854.68	2.2081E00
854.98	2.1210E00
855.28	2.2543E00
855.57	2.4812E00
855.87	2.3535E00
856.17	2.3593E00
856.46	2.2478E00
856.76	2.2467E00
857.05	2.4421E00
857.35	2.2646E00
857.65	2.6673E00
857.94	2.5072E00
858.24	2.5766E00
858.53	2.4215E00
858.83	3.1852E00
859.13	2.4902E00
859.42	2.4686E00
859.72	2.6288E00
860.01	2.4469E00
860.31	2.4555E00
860.60	2.4540E00
860.90	2.6040E00
861.20	2.5098E00
861.49	2.3987E00
861.79	2.4707E00
862.08	3.9171E00
862.38	2.9010E00
862.67	2.5701E00
862.97	2.4704E00
863.26	2.5363E00
863.56	2.7603E00
863.85	2.9890E00
864.15	2.4721E00
864.44	2.4099E00
864.74	2.5165E00
865.03	2.9706E00
865.33	2.7461E00
865.62	2.5819E00
865.92	2.4818E00
866.21	2.5553E00
866.51	2.4813E00
866.80	2.7024E00
867.10	2.8901E00
867.39	2.6439E00
867.69	2.8516E00
867.98	2.4142E00
868.27	2.4059E00
868.57	2.3695E00
868.86	2.6979E00
869.16	2.3741E00
869.45	2.4393E00
869.75	2.4982E00
870.04	2.4177E00
870.33	2.7949E00
870.63	2.5562E00
870.92	2.4846E00
871.22	3.9913E00
871.51	2.6667E00
871.80	2.8823E00
872.10	2.8823E00
>>>>>End Processed Spectral Data<<<<<
