SpectraSuite Data File
++++++++++++++++++++++++++++++++++++
Date: Sat May 16 09:08:41 PDT 2015
User: schluterlab
Dark Spectrum Present: Yes
Reference Spectrum Present: No
Number of Sampled Component Spectra: 1
Spectrometers: USB2E3373
Integration Time (usec): 2300000 (USB2E3373)
Spectra Averaged: 3 (USB2E3373)
Boxcar Smoothing: 0 (USB2E3373)
Correct for Electrical Dark: No (USB2E3373)
Strobe/Lamp Enabled: No (USB2E3373)
Correct for Detector Non-linearity: No (USB2E3373)
Correct for Stray Light: No (USB2E3373)
Number of Pixels in Processed Spectrum: 2048
>>>>>Begin Processed Spectral Data<<<<<
178.53	-0.0000E00
178.91	-0.0000E00
179.29	-0.0000E00
179.67	-0.0000E00
180.04	-0.0000E00
180.42	0.0000E00
180.80	0.0000E00
181.18	0.0000E00
181.56	0.0000E00
181.94	-0.0000E00
182.31	-0.0000E00
182.69	-0.0000E00
183.07	0.0000E00
183.45	-0.0000E00
183.83	-0.0000E00
184.20	-0.0000E00
184.58	0.0000E00
184.96	-0.0000E00
185.34	-0.0000E00
185.72	0.0000E00
186.09	-0.0000E00
186.47	0.0000E00
186.85	-0.0000E00
187.23	-0.0000E00
187.61	0.0000E00
187.98	0.0000E00
188.36	0.0000E00
188.74	0.0000E00
189.12	0.0000E00
189.49	0.0000E00
189.87	0.0000E00
190.25	0.0000E00
190.63	0.0000E00
191.00	0.0000E00
191.38	0.0000E00
191.76	0.0000E00
192.14	0.0000E00
192.51	0.0000E00
192.89	0.0000E00
193.27	0.0000E00
193.65	0.0000E00
194.02	0.0000E00
194.40	0.0000E00
194.78	0.0000E00
195.15	0.0000E00
195.53	0.0000E00
195.91	0.0000E00
196.29	0.0000E00
196.66	0.0000E00
197.04	0.0000E00
197.42	0.0000E00
197.79	0.0000E00
198.17	0.0000E00
198.55	0.0000E00
198.92	0.0000E00
199.30	0.0000E00
199.68	0.0000E00
200.05	0.0000E00
200.43	0.0000E00
200.81	0.0000E00
201.18	0.0000E00
201.56	0.0000E00
201.94	0.0000E00
202.31	0.0000E00
202.69	0.0000E00
203.07	0.0000E00
203.44	0.0000E00
203.82	0.0000E00
204.19	0.0000E00
204.57	0.0000E00
204.95	0.0000E00
205.32	0.0000E00
205.70	0.0000E00
206.08	0.0000E00
206.45	0.0000E00
206.83	0.0000E00
207.20	0.0000E00
207.58	0.0000E00
207.96	0.0000E00
208.33	0.0000E00
208.71	0.0000E00
209.08	0.0000E00
209.46	0.0000E00
209.84	0.0000E00
210.21	0.0000E00
210.59	0.0000E00
210.96	0.0000E00
211.34	0.0000E00
211.71	0.0000E00
212.09	0.0000E00
212.46	0.0000E00
212.84	0.0000E00
213.22	-0.0000E00
213.59	0.0000E00
213.97	0.0000E00
214.34	0.0000E00
214.72	0.0000E00
215.09	0.0000E00
215.47	0.0000E00
215.84	0.0000E00
216.22	0.0000E00
216.59	0.0000E00
216.97	0.0000E00
217.34	0.0000E00
217.72	0.0000E00
218.09	0.0000E00
218.47	0.0000E00
218.84	-0.0000E00
219.22	0.0000E00
219.59	0.0000E00
219.97	0.0000E00
220.34	0.0000E00
220.72	0.0000E00
221.09	0.0000E00
221.47	0.0000E00
221.84	0.0000E00
222.22	0.0000E00
222.59	0.0000E00
222.97	0.0000E00
223.34	0.0000E00
223.72	0.0000E00
224.09	0.0000E00
224.46	0.0000E00
224.84	0.0000E00
225.21	0.0000E00
225.59	0.0000E00
225.96	0.0000E00
226.34	0.0000E00
226.71	0.0000E00
227.08	0.0000E00
227.46	0.0000E00
227.83	0.0000E00
228.21	0.0000E00
228.58	0.0000E00
228.95	0.0000E00
229.33	0.0000E00
229.70	0.0000E00
230.08	0.0000E00
230.45	0.0000E00
230.82	0.0000E00
231.20	0.0000E00
231.57	0.0000E00
231.95	0.0000E00
232.32	0.0000E00
232.69	0.0000E00
233.07	0.0000E00
233.44	0.0000E00
233.81	0.0000E00
234.19	0.0000E00
234.56	0.0000E00
234.93	0.0000E00
235.31	0.0000E00
235.68	0.0000E00
236.05	0.0000E00
236.43	0.0000E00
236.80	0.0000E00
237.17	0.0000E00
237.55	0.0000E00
237.92	0.0000E00
238.29	0.0000E00
238.67	0.0000E00
239.04	0.0000E00
239.41	0.0000E00
239.79	0.0000E00
240.16	0.0000E00
240.53	0.0000E00
240.91	0.0000E00
241.28	0.0000E00
241.65	0.0000E00
242.02	0.0000E00
242.40	0.0000E00
242.77	0.0000E00
243.14	0.0000E00
243.51	0.0000E00
243.89	0.0000E00
244.26	0.0000E00
244.63	0.0000E00
245.00	0.0000E00
245.38	0.0000E00
245.75	0.0000E00
246.12	0.0000E00
246.49	0.0000E00
246.87	0.0000E00
247.24	0.0000E00
247.61	0.0000E00
247.98	0.0000E00
248.36	0.0000E00
248.73	0.0000E00
249.10	0.0000E00
249.47	0.0000E00
249.84	0.0000E00
250.22	0.0000E00
250.59	0.0000E00
250.96	0.0000E00
251.33	0.0000E00
251.70	0.0000E00
252.08	0.0000E00
252.45	0.0000E00
252.82	0.0000E00
253.19	0.0000E00
253.56	0.0000E00
253.94	0.0000E00
254.31	0.0000E00
254.68	0.0000E00
255.05	0.0000E00
255.42	0.0000E00
255.79	0.0000E00
256.16	0.0000E00
256.54	0.0000E00
256.91	0.0000E00
257.28	0.0000E00
257.65	0.0000E00
258.02	0.0000E00
258.39	0.0000E00
258.76	0.0000E00
259.14	0.0000E00
259.51	0.0000E00
259.88	0.0000E00
260.25	0.0000E00
260.62	0.0000E00
260.99	0.0000E00
261.36	0.0000E00
261.73	0.0000E00
262.10	0.0000E00
262.47	0.0000E00
262.85	0.0000E00
263.22	0.0000E00
263.59	0.0000E00
263.96	0.0000E00
264.33	0.0000E00
264.70	0.0000E00
265.07	0.0000E00
265.44	0.0000E00
265.81	0.0000E00
266.18	0.0000E00
266.55	0.0000E00
266.92	0.0000E00
267.29	0.0000E00
267.66	0.0000E00
268.03	0.0000E00
268.40	0.0000E00
268.77	0.0000E00
269.14	0.0000E00
269.51	0.0000E00
269.88	0.0000E00
270.25	0.0000E00
270.62	0.0000E00
270.99	0.0000E00
271.36	0.0000E00
271.73	0.0000E00
272.10	0.0000E00
272.47	0.0000E00
272.84	0.0000E00
273.21	0.0000E00
273.58	0.0000E00
273.95	0.0000E00
274.32	0.0000E00
274.69	0.0000E00
275.06	0.0000E00
275.43	0.0000E00
275.80	0.0000E00
276.17	0.0000E00
276.54	0.0000E00
276.91	0.0000E00
277.28	0.0000E00
277.65	0.0000E00
278.02	0.0000E00
278.39	0.0000E00
278.76	0.0000E00
279.13	0.0000E00
279.50	0.0000E00
279.87	0.0000E00
280.23	0.0000E00
280.60	0.0000E00
280.97	0.0000E00
281.34	0.0000E00
281.71	0.0000E00
282.08	0.0000E00
282.45	0.0000E00
282.82	0.0000E00
283.19	0.0000E00
283.56	0.0000E00
283.92	0.0000E00
284.29	0.0000E00
284.66	0.0000E00
285.03	0.0000E00
285.40	0.0000E00
285.77	0.0000E00
286.14	0.0000E00
286.51	0.0000E00
286.87	0.0000E00
287.24	0.0000E00
287.61	0.0000E00
287.98	0.0000E00
288.35	0.0000E00
288.72	0.0000E00
289.08	0.0000E00
289.45	0.0000E00
289.82	0.0000E00
290.19	0.0000E00
290.56	0.0000E00
290.93	0.0000E00
291.29	0.0000E00
291.66	0.0000E00
292.03	0.0000E00
292.40	0.0000E00
292.77	0.0000E00
293.13	0.0000E00
293.50	0.0000E00
293.87	0.0000E00
294.24	0.0000E00
294.60	0.0000E00
294.97	0.0000E00
295.34	0.0000E00
295.71	0.0000E00
296.08	0.0000E00
296.44	0.0000E00
296.81	0.0000E00
297.18	0.0000E00
297.55	0.0000E00
297.91	0.0000E00
298.28	0.0000E00
298.65	0.0000E00
299.02	0.0000E00
299.38	0.0000E00
299.75	0.0000E00
300.12	3.8286E-01
300.48	8.6265E-02
300.85	1.1984E-01
301.22	1.1650E-01
301.59	1.2911E-01
301.95	1.7942E-01
302.32	1.9574E-01
302.69	6.7410E-02
303.05	6.9460E-02
303.42	1.2516E-01
303.79	1.0780E-01
304.15	2.1534E-01
304.52	1.6171E-01
304.89	1.7705E-01
305.25	1.2718E-01
305.62	1.1498E-01
305.99	4.4703E-01
306.35	1.1738E-01
306.72	1.6533E-01
307.09	1.8174E-01
307.45	1.4192E-01
307.82	1.5267E-01
308.19	1.4831E-01
308.55	1.5622E-01
308.92	3.4064E-01
309.29	2.1648E-01
309.65	2.4040E-01
310.02	1.5119E-01
310.38	1.0547E-01
310.75	3.4130E-01
311.12	1.1993E-01
311.48	2.3846E-01
311.85	2.0155E-01
312.22	1.2810E-01
312.58	1.4690E-01
312.95	2.3329E-01
313.31	2.4538E-01
313.68	1.9179E-01
314.05	2.5111E-01
314.41	3.6736E-01
314.78	1.8417E-01
315.14	3.0787E-01
315.51	4.3991E-01
315.87	2.2892E-01
316.24	2.2717E-01
316.61	4.2156E-01
316.97	3.8686E-01
317.34	3.4112E-01
317.70	6.0493E-01
318.07	4.7885E-01
318.43	3.7310E-01
318.80	5.6152E-01
319.16	5.0330E-01
319.53	6.9016E-01
319.89	3.9692E-01
320.26	3.5047E-01
320.62	8.2112E-01
320.99	3.1361E-01
321.35	5.0871E-01
321.72	4.2308E-01
322.08	4.7053E-01
322.45	3.9202E-01
322.81	9.0608E-01
323.18	5.9502E-01
323.54	4.1057E-01
323.91	4.2547E-01
324.27	3.5833E-01
324.64	7.4645E-01
325.00	6.8646E-01
325.37	4.3968E-01
325.73	7.3671E-01
326.10	7.3683E-01
326.46	6.9156E-01
326.83	1.7286E00
327.19	1.2808E00
327.56	8.0735E-01
327.92	1.0999E00
328.29	1.0796E00
328.65	8.1054E-01
329.01	8.4352E-01
329.38	9.7532E-01
329.74	1.0039E00
330.11	7.1327E-01
330.47	1.0964E00
330.84	1.3845E00
331.20	1.6313E00
331.56	1.1837E00
331.93	1.1224E00
332.29	1.6154E00
332.66	6.4063E-01
333.02	1.3626E00
333.38	8.2222E-01
333.75	9.0966E-01
334.11	1.2562E00
334.48	9.2399E-01
334.84	1.0216E00
335.20	1.0412E00
335.57	1.1212E00
335.93	2.7754E00
336.29	2.2780E00
336.66	9.5674E-01
337.02	1.8555E00
337.38	7.1356E-01
337.75	8.9799E-01
338.11	1.0917E00
338.47	8.3874E-01
338.84	9.5684E-01
339.20	9.8397E-01
339.56	1.1092E00
339.93	1.1353E00
340.29	1.4307E00
340.65	9.6519E-01
341.02	1.8356E00
341.38	1.3638E00
341.74	1.9388E00
342.11	1.3710E00
342.47	1.1292E00
342.83	1.6743E00
343.20	1.1207E00
343.56	1.0339E00
343.92	1.5221E00
344.28	1.2116E00
344.65	1.6139E00
345.01	1.0358E00
345.37	1.8170E00
345.73	1.2622E00
346.10	1.0271E00
346.46	1.2797E00
346.82	1.5048E00
347.19	1.5872E00
347.55	1.3514E00
347.91	1.3881E00
348.27	1.5031E00
348.63	1.7009E00
349.00	1.1375E00
349.36	1.0818E00
349.72	1.2128E00
350.08	1.8755E00
350.45	1.4885E00
350.81	1.5319E00
351.17	1.0700E00
351.53	1.3849E00
351.89	1.5002E00
352.26	1.2441E00
352.62	1.4015E00
352.98	1.1545E00
353.34	1.0164E00
353.70	1.2925E00
354.07	1.0803E00
354.43	1.0834E00
354.79	1.1992E00
355.15	9.2093E-01
355.51	1.3758E00
355.87	1.2923E00
356.24	9.6269E-01
356.60	1.3615E00
356.96	1.1811E00
357.32	1.2105E00
357.68	1.1484E00
358.04	1.1541E00
358.40	1.0609E00
358.77	1.2392E00
359.13	1.1545E00
359.49	1.4603E00
359.85	1.3748E00
360.21	1.0302E00
360.57	1.0052E00
360.93	1.1014E00
361.29	1.0754E00
361.66	1.2273E00
362.02	9.8472E-01
362.38	1.1087E00
362.74	1.0525E00
363.10	1.1710E00
363.46	1.2060E00
363.82	1.2638E00
364.18	1.1012E00
364.54	1.1494E00
364.90	9.2748E-01
365.26	9.7647E-01
365.62	1.0868E00
365.98	1.0260E00
366.35	1.0239E00
366.71	8.2765E-01
367.07	1.3815E00
367.43	1.2068E00
367.79	1.0455E00
368.15	1.0192E00
368.51	1.1448E00
368.87	1.0556E00
369.23	1.2395E00
369.59	9.8030E-01
369.95	1.3882E00
370.31	1.1023E00
370.67	1.1563E00
371.03	9.9884E-01
371.39	9.7596E-01
371.75	1.2416E00
372.11	1.1024E00
372.47	9.6282E-01
372.83	1.1110E00
373.19	1.1614E00
373.55	1.0445E00
373.91	1.1557E00
374.27	8.8795E-01
374.63	1.0179E00
374.99	9.5666E-01
375.35	1.0577E00
375.71	1.0346E00
376.07	9.6409E-01
376.42	1.0639E00
376.78	9.8164E-01
377.14	9.2887E-01
377.50	1.0495E00
377.86	9.8078E-01
378.22	1.1486E00
378.58	9.2116E-01
378.94	1.0160E00
379.30	8.3207E-01
379.66	9.3075E-01
380.02	1.0163E00
380.38	8.6795E-01
380.74	9.5752E-01
381.09	9.5803E-01
381.45	8.8585E-01
381.81	8.9454E-01
382.17	8.8274E-01
382.53	8.3572E-01
382.89	7.9339E-01
383.25	9.2290E-01
383.61	9.1799E-01
383.97	9.6971E-01
384.32	9.7857E-01
384.68	9.1691E-01
385.04	8.9984E-01
385.40	9.1431E-01
385.76	7.3141E-01
386.12	9.0657E-01
386.48	8.0992E-01
386.83	8.9318E-01
387.19	8.6699E-01
387.55	9.4217E-01
387.91	9.1326E-01
388.27	8.2819E-01
388.62	8.3083E-01
388.98	8.4933E-01
389.34	8.7775E-01
389.70	8.5974E-01
390.06	8.5184E-01
390.42	8.3550E-01
390.77	8.1495E-01
391.13	8.7012E-01
391.49	8.4310E-01
391.85	9.1807E-01
392.20	8.3946E-01
392.56	8.7116E-01
392.92	8.3182E-01
393.28	8.3038E-01
393.64	8.5547E-01
393.99	8.7764E-01
394.35	8.0878E-01
394.71	9.1739E-01
395.07	8.5300E-01
395.42	8.1853E-01
395.78	8.0925E-01
396.14	8.1612E-01
396.50	7.6453E-01
396.85	8.8550E-01
397.21	9.1800E-01
397.57	8.2897E-01
397.92	8.4828E-01
398.28	7.6017E-01
398.64	8.0807E-01
399.00	7.7288E-01
399.35	7.6322E-01
399.71	8.1106E-01
400.07	8.0418E-01
400.42	8.0813E-01
400.78	7.7776E-01
401.14	7.7160E-01
401.49	7.7830E-01
401.85	7.7904E-01
402.21	7.0651E-01
402.57	7.3916E-01
402.92	7.9617E-01
403.28	7.9332E-01
403.63	7.7849E-01
403.99	8.0413E-01
404.35	7.4400E-01
404.70	7.5030E-01
405.06	7.3827E-01
405.42	7.9201E-01
405.77	7.2316E-01
406.13	7.0295E-01
406.49	6.7463E-01
406.84	6.9516E-01
407.20	7.4097E-01
407.55	7.6374E-01
407.91	7.7352E-01
408.27	7.0385E-01
408.62	6.8884E-01
408.98	7.1890E-01
409.34	7.0532E-01
409.69	7.4303E-01
410.05	6.9429E-01
410.40	7.0062E-01
410.76	6.7472E-01
411.11	7.0023E-01
411.47	7.1761E-01
411.83	6.8292E-01
412.18	6.8134E-01
412.54	6.7782E-01
412.89	6.9470E-01
413.25	6.4722E-01
413.60	6.6805E-01
413.96	7.1182E-01
414.31	6.7147E-01
414.67	7.0024E-01
415.03	7.0807E-01
415.38	7.3840E-01
415.74	7.0664E-01
416.09	6.9893E-01
416.45	7.2278E-01
416.80	6.9421E-01
417.16	6.9362E-01
417.51	6.8554E-01
417.87	7.0543E-01
418.22	6.6052E-01
418.58	6.8202E-01
418.93	6.3947E-01
419.29	6.7530E-01
419.64	6.4388E-01
420.00	6.6356E-01
420.35	6.5603E-01
420.71	6.3202E-01
421.06	6.5611E-01
421.42	6.8959E-01
421.77	6.4867E-01
422.12	6.6197E-01
422.48	6.3781E-01
422.83	6.6791E-01
423.19	6.3202E-01
423.54	6.5536E-01
423.90	6.3856E-01
424.25	6.2731E-01
424.61	6.5682E-01
424.96	6.2735E-01
425.31	6.0813E-01
425.67	6.0232E-01
426.02	6.1473E-01
426.38	6.1515E-01
426.73	6.0640E-01
427.09	6.1582E-01
427.44	5.8568E-01
427.79	6.0059E-01
428.15	6.0416E-01
428.50	6.1178E-01
428.85	6.2913E-01
429.21	5.6953E-01
429.56	5.7850E-01
429.92	5.7151E-01
430.27	5.8810E-01
430.62	6.0598E-01
430.98	6.1252E-01
431.33	5.9445E-01
431.68	5.8232E-01
432.04	5.7516E-01
432.39	5.7481E-01
432.74	5.9892E-01
433.10	5.5378E-01
433.45	5.9281E-01
433.80	5.8094E-01
434.16	5.7500E-01
434.51	5.6897E-01
434.86	5.8708E-01
435.22	5.6010E-01
435.57	6.1053E-01
435.92	5.8687E-01
436.28	5.5219E-01
436.63	5.5787E-01
436.98	5.6137E-01
437.34	5.8326E-01
437.69	5.6125E-01
438.04	5.4114E-01
438.39	5.8141E-01
438.75	5.6585E-01
439.10	5.5023E-01
439.45	5.7676E-01
439.81	5.7880E-01
440.16	5.4521E-01
440.51	5.5726E-01
440.86	5.8471E-01
441.22	5.6086E-01
441.57	5.4027E-01
441.92	5.3947E-01
442.27	5.5631E-01
442.63	5.4797E-01
442.98	5.7759E-01
443.33	5.6746E-01
443.68	5.3271E-01
444.03	5.2481E-01
444.39	5.1850E-01
444.74	5.6258E-01
445.09	5.6642E-01
445.44	5.5722E-01
445.79	5.0883E-01
446.15	5.4295E-01
446.50	5.4826E-01
446.85	5.1677E-01
447.20	5.1438E-01
447.55	5.4117E-01
447.91	5.3662E-01
448.26	5.4684E-01
448.61	5.3425E-01
448.96	5.1621E-01
449.31	5.2703E-01
449.66	5.3439E-01
450.02	5.3081E-01
450.37	5.3297E-01
450.72	5.2056E-01
451.07	5.6218E-01
451.42	5.6605E-01
451.77	5.3514E-01
452.12	5.2635E-01
452.47	5.6022E-01
452.83	5.1977E-01
453.18	5.3487E-01
453.53	5.3025E-01
453.88	4.9414E-01
454.23	5.0385E-01
454.58	4.9919E-01
454.93	5.1169E-01
455.28	5.1193E-01
455.63	5.0218E-01
455.98	4.9569E-01
456.34	5.2140E-01
456.69	5.1136E-01
457.04	5.1190E-01
457.39	4.8386E-01
457.74	4.8909E-01
458.09	4.9002E-01
458.44	4.8253E-01
458.79	4.7175E-01
459.14	4.7425E-01
459.49	5.0039E-01
459.84	4.8003E-01
460.19	5.0450E-01
460.54	5.1610E-01
460.89	4.6858E-01
461.24	5.0454E-01
461.59	4.8752E-01
461.94	4.9898E-01
462.29	4.5910E-01
462.64	4.9173E-01
462.99	4.9919E-01
463.34	5.1839E-01
463.69	4.7772E-01
464.04	4.5821E-01
464.39	4.6430E-01
464.74	4.8154E-01
465.09	4.9546E-01
465.44	4.6131E-01
465.79	4.7661E-01
466.14	4.7487E-01
466.49	4.7088E-01
466.84	4.6946E-01
467.19	4.7528E-01
467.54	4.7370E-01
467.89	4.6112E-01
468.24	4.4146E-01
468.59	4.4916E-01
468.94	4.4920E-01
469.29	4.4674E-01
469.64	4.5800E-01
469.99	4.4996E-01
470.34	4.2944E-01
470.68	4.6339E-01
471.03	4.3936E-01
471.38	4.3513E-01
471.73	4.2511E-01
472.08	4.1779E-01
472.43	4.0440E-01
472.78	4.2932E-01
473.13	4.2601E-01
473.48	4.1528E-01
473.83	4.0498E-01
474.17	4.2073E-01
474.52	4.0799E-01
474.87	3.9344E-01
475.22	4.0099E-01
475.57	3.7975E-01
475.92	3.6590E-01
476.27	3.8876E-01
476.61	3.7290E-01
476.96	3.6806E-01
477.31	3.4703E-01
477.66	3.5929E-01
478.01	3.5221E-01
478.36	3.5238E-01
478.70	3.4506E-01
479.05	3.4743E-01
479.40	3.3941E-01
479.75	3.4040E-01
480.10	3.3224E-01
480.45	3.2771E-01
480.79	3.2544E-01
481.14	3.3100E-01
481.49	3.2573E-01
481.84	3.1637E-01
482.19	3.0969E-01
482.53	3.1570E-01
482.88	3.0992E-01
483.23	3.0573E-01
483.58	3.0201E-01
483.92	3.0917E-01
484.27	2.9645E-01
484.62	2.9642E-01
484.97	2.9042E-01
485.31	2.8679E-01
485.66	2.9159E-01
486.01	2.9285E-01
486.36	2.8247E-01
486.70	2.8711E-01
487.05	2.8614E-01
487.40	2.8291E-01
487.75	2.7782E-01
488.09	2.7732E-01
488.44	2.8092E-01
488.79	2.7885E-01
489.13	2.7448E-01
489.48	2.7489E-01
489.83	2.7754E-01
490.17	2.6922E-01
490.52	2.6853E-01
490.87	2.6953E-01
491.22	2.7276E-01
491.56	2.7195E-01
491.91	2.7416E-01
492.26	2.7189E-01
492.60	2.7097E-01
492.95	2.7297E-01
493.30	2.7216E-01
493.64	2.6904E-01
493.99	2.7358E-01
494.34	2.6939E-01
494.68	2.6529E-01
495.03	2.7042E-01
495.37	2.6685E-01
495.72	2.7087E-01
496.07	2.6472E-01
496.41	2.6779E-01
496.76	2.6752E-01
497.11	2.6849E-01
497.45	2.6812E-01
497.80	2.6928E-01
498.14	2.6567E-01
498.49	2.7018E-01
498.84	2.6783E-01
499.18	2.6848E-01
499.53	2.6790E-01
499.87	2.6355E-01
500.22	2.7065E-01
500.56	2.6777E-01
500.91	2.6863E-01
501.26	2.6611E-01
501.60	2.6810E-01
501.95	2.6588E-01
502.29	2.6728E-01
502.64	2.6531E-01
502.98	2.6934E-01
503.33	2.6498E-01
503.67	2.6782E-01
504.02	2.6644E-01
504.36	2.6524E-01
504.71	2.6705E-01
505.06	2.6512E-01
505.40	2.6339E-01
505.75	2.6430E-01
506.09	2.6391E-01
506.44	2.6358E-01
506.78	2.6522E-01
507.13	2.6602E-01
507.47	2.6321E-01
507.82	2.6282E-01
508.16	2.6321E-01
508.51	2.6236E-01
508.85	2.5937E-01
509.19	2.6008E-01
509.54	2.6227E-01
509.88	2.6167E-01
510.23	2.5715E-01
510.57	2.5773E-01
510.92	2.5980E-01
511.26	2.5949E-01
511.61	2.5976E-01
511.95	2.5746E-01
512.30	2.5731E-01
512.64	2.5814E-01
512.98	2.5694E-01
513.33	2.5797E-01
513.67	2.5595E-01
514.02	2.5729E-01
514.36	2.5424E-01
514.70	2.5498E-01
515.05	2.5376E-01
515.39	2.5448E-01
515.74	2.5508E-01
516.08	2.5607E-01
516.42	2.5237E-01
516.77	2.5439E-01
517.11	2.5205E-01
517.46	2.5315E-01
517.80	2.5241E-01
518.14	2.5187E-01
518.49	2.5110E-01
518.83	2.5048E-01
519.17	2.5400E-01
519.52	2.5163E-01
519.86	2.5224E-01
520.20	2.4986E-01
520.55	2.5132E-01
520.89	2.5000E-01
521.23	2.5119E-01
521.58	2.5259E-01
521.92	2.5149E-01
522.26	2.5494E-01
522.61	2.5072E-01
522.95	2.5253E-01
523.29	2.4949E-01
523.64	2.5067E-01
523.98	2.5263E-01
524.32	2.5252E-01
524.66	2.5286E-01
525.01	2.5325E-01
525.35	2.5466E-01
525.69	2.5436E-01
526.04	2.5628E-01
526.38	2.5069E-01
526.72	2.5687E-01
527.06	2.5407E-01
527.41	2.5728E-01
527.75	2.5804E-01
528.09	2.5530E-01
528.43	2.5950E-01
528.78	2.5765E-01
529.12	2.6215E-01
529.46	2.6033E-01
529.80	2.6139E-01
530.15	2.6089E-01
530.49	2.6236E-01
530.83	2.6440E-01
531.17	2.6384E-01
531.51	2.6592E-01
531.86	2.6362E-01
532.20	2.6718E-01
532.54	2.6662E-01
532.88	2.6842E-01
533.22	2.7082E-01
533.57	2.7438E-01
533.91	2.6985E-01
534.25	2.7136E-01
534.59	2.7195E-01
534.93	2.7142E-01
535.27	2.7195E-01
535.62	2.7727E-01
535.96	2.7623E-01
536.30	2.7556E-01
536.64	2.7705E-01
536.98	2.8093E-01
537.32	2.7806E-01
537.66	2.8100E-01
538.01	2.8048E-01
538.35	2.8382E-01
538.69	2.8259E-01
539.03	2.8653E-01
539.37	2.8472E-01
539.71	2.8673E-01
540.05	2.8552E-01
540.39	2.8577E-01
540.73	2.8717E-01
541.07	2.8637E-01
541.42	2.8633E-01
541.76	2.8809E-01
542.10	2.9005E-01
542.44	2.9026E-01
542.78	2.9312E-01
543.12	2.8780E-01
543.46	2.9404E-01
543.80	2.8946E-01
544.14	2.9138E-01
544.48	2.8945E-01
544.82	2.9418E-01
545.16	2.9296E-01
545.50	2.9256E-01
545.84	2.9733E-01
546.18	2.9421E-01
546.52	2.9530E-01
546.86	2.9391E-01
547.20	2.9936E-01
547.54	3.0141E-01
547.88	2.9675E-01
548.22	2.9747E-01
548.56	3.0046E-01
548.90	3.0054E-01
549.24	3.0031E-01
549.58	3.0147E-01
549.92	3.0163E-01
550.26	3.0266E-01
550.60	3.0176E-01
550.94	3.0035E-01
551.28	3.0503E-01
551.62	3.0107E-01
551.96	3.0337E-01
552.30	3.0491E-01
552.64	3.0492E-01
552.98	3.0489E-01
553.32	3.0556E-01
553.66	3.0558E-01
554.00	3.0223E-01
554.34	3.0480E-01
554.68	3.0477E-01
555.02	3.0362E-01
555.36	3.0728E-01
555.69	3.0867E-01
556.03	3.0449E-01
556.37	3.0719E-01
556.71	3.0510E-01
557.05	3.0521E-01
557.39	3.0726E-01
557.73	3.0497E-01
558.07	3.0762E-01
558.41	3.0737E-01
558.75	3.0846E-01
559.08	3.0691E-01
559.42	3.0602E-01
559.76	3.0830E-01
560.10	3.0902E-01
560.44	3.0943E-01
560.78	3.0562E-01
561.12	3.0980E-01
561.45	3.1019E-01
561.79	3.0847E-01
562.13	3.0774E-01
562.47	3.0834E-01
562.81	3.0985E-01
563.15	3.1042E-01
563.48	3.1088E-01
563.82	3.0689E-01
564.16	3.0953E-01
564.50	3.1231E-01
564.84	3.0843E-01
565.17	3.0917E-01
565.51	3.0757E-01
565.85	3.1165E-01
566.19	3.0765E-01
566.52	3.1200E-01
566.86	3.0955E-01
567.20	3.1362E-01
567.54	3.1251E-01
567.88	3.1244E-01
568.21	3.1339E-01
568.55	3.1241E-01
568.89	3.1316E-01
569.23	3.1312E-01
569.56	3.1241E-01
569.90	3.1255E-01
570.24	3.1636E-01
570.57	3.1366E-01
570.91	3.1589E-01
571.25	3.1427E-01
571.59	3.1516E-01
571.92	3.1579E-01
572.26	3.1605E-01
572.60	3.1785E-01
572.93	3.1626E-01
573.27	3.2168E-01
573.61	3.2138E-01
573.95	3.1414E-01
574.28	3.2200E-01
574.62	3.2153E-01
574.96	3.2429E-01
575.29	3.2310E-01
575.63	3.2726E-01
575.97	3.2494E-01
576.30	3.2994E-01
576.64	3.2658E-01
576.98	3.2875E-01
577.31	3.3024E-01
577.65	3.3327E-01
577.98	3.2765E-01
578.32	3.3443E-01
578.66	3.3711E-01
578.99	3.3545E-01
579.33	3.3819E-01
579.67	3.3702E-01
580.00	3.3832E-01
580.34	3.3867E-01
580.67	3.4159E-01
581.01	3.4029E-01
581.35	3.4251E-01
581.68	3.4343E-01
582.02	3.4524E-01
582.35	3.4397E-01
582.69	3.4649E-01
583.02	3.5155E-01
583.36	3.5117E-01
583.70	3.5045E-01
584.03	3.5114E-01
584.37	3.5095E-01
584.70	3.5435E-01
585.04	3.5712E-01
585.37	3.5517E-01
585.71	3.5950E-01
586.04	3.5920E-01
586.38	3.5683E-01
586.72	3.6447E-01
587.05	3.5951E-01
587.39	3.6308E-01
587.72	3.6071E-01
588.06	3.6640E-01
588.39	3.6109E-01
588.73	3.6857E-01
589.06	3.6700E-01
589.40	3.6981E-01
589.73	3.7243E-01
590.07	3.7217E-01
590.40	3.7417E-01
590.73	3.7684E-01
591.07	3.7540E-01
591.40	3.7853E-01
591.74	3.7271E-01
592.07	3.7863E-01
592.41	3.8044E-01
592.74	3.8116E-01
593.08	3.7764E-01
593.41	3.8034E-01
593.75	3.8239E-01
594.08	3.8623E-01
594.41	3.8517E-01
594.75	3.8729E-01
595.08	3.8487E-01
595.42	3.8183E-01
595.75	3.8509E-01
596.09	3.8865E-01
596.42	3.8615E-01
596.75	3.8737E-01
597.09	3.9325E-01
597.42	3.8577E-01
597.75	3.9438E-01
598.09	3.9336E-01
598.42	3.9078E-01
598.76	3.9100E-01
599.09	3.9499E-01
599.42	3.9608E-01
599.76	3.9427E-01
600.09	3.9632E-01
600.42	3.9990E-01
600.76	3.9097E-01
601.09	3.9451E-01
601.42	4.0379E-01
601.76	4.0054E-01
602.09	3.9854E-01
602.42	3.9747E-01
602.76	3.9750E-01
603.09	3.9833E-01
603.42	4.0172E-01
603.76	3.9892E-01
604.09	4.0079E-01
604.42	4.0082E-01
604.76	3.9807E-01
605.09	4.0346E-01
605.42	4.0002E-01
605.75	4.0235E-01
606.09	4.0483E-01
606.42	4.0372E-01
606.75	4.0673E-01
607.09	4.0376E-01
607.42	4.0299E-01
607.75	4.0468E-01
608.08	4.0569E-01
608.42	4.0851E-01
608.75	4.0548E-01
609.08	4.0913E-01
609.41	4.0742E-01
609.75	4.0524E-01
610.08	4.0914E-01
610.41	4.0915E-01
610.74	4.0934E-01
611.07	4.0988E-01
611.41	4.0530E-01
611.74	4.0932E-01
612.07	4.0811E-01
612.40	4.0582E-01
612.73	4.0959E-01
613.07	4.1482E-01
613.40	4.0823E-01
613.73	4.0794E-01
614.06	4.1258E-01
614.39	4.0992E-01
614.72	4.1472E-01
615.06	4.1287E-01
615.39	4.1690E-01
615.72	4.1281E-01
616.05	4.1781E-01
616.38	4.1801E-01
616.71	4.1578E-01
617.05	4.1365E-01
617.38	4.1799E-01
617.71	4.1714E-01
618.04	4.1708E-01
618.37	4.1318E-01
618.70	4.1697E-01
619.03	4.1724E-01
619.36	4.1048E-01
619.69	4.1882E-01
620.03	4.1544E-01
620.36	4.1619E-01
620.69	4.1541E-01
621.02	4.1409E-01
621.35	4.1453E-01
621.68	4.1275E-01
622.01	4.1589E-01
622.34	4.1497E-01
622.67	4.1492E-01
623.00	4.1447E-01
623.33	4.1329E-01
623.66	4.1543E-01
623.99	4.1708E-01
624.32	4.1098E-01
624.65	4.1343E-01
624.99	4.1365E-01
625.32	4.1840E-01
625.65	4.1537E-01
625.98	4.1125E-01
626.31	4.1413E-01
626.64	4.1806E-01
626.97	4.1632E-01
627.30	4.1261E-01
627.63	4.1179E-01
627.96	4.1079E-01
628.29	4.1230E-01
628.62	4.1524E-01
628.95	4.1477E-01
629.28	4.1048E-01
629.61	4.2046E-01
629.94	4.1720E-01
630.26	4.1873E-01
630.59	4.1916E-01
630.92	4.1751E-01
631.25	4.1730E-01
631.58	4.2489E-01
631.91	4.1939E-01
632.24	4.2471E-01
632.57	4.2334E-01
632.90	4.2469E-01
633.23	4.2221E-01
633.56	4.2588E-01
633.89	4.2539E-01
634.22	4.2717E-01
634.55	4.2756E-01
634.88	4.3074E-01
635.20	4.3194E-01
635.53	4.3660E-01
635.86	4.3336E-01
636.19	4.3990E-01
636.52	4.3981E-01
636.85	4.4016E-01
637.18	4.4427E-01
637.51	4.4341E-01
637.83	4.4700E-01
638.16	4.4509E-01
638.49	4.5290E-01
638.82	4.4764E-01
639.15	4.5529E-01
639.48	4.5537E-01
639.81	4.6178E-01
640.13	4.5705E-01
640.46	4.6536E-01
640.79	4.6227E-01
641.12	4.6808E-01
641.45	4.6403E-01
641.77	4.6440E-01
642.10	4.7598E-01
642.43	4.7760E-01
642.76	4.8144E-01
643.09	4.7697E-01
643.41	4.8072E-01
643.74	4.8066E-01
644.07	4.8339E-01
644.40	4.8312E-01
644.73	4.9041E-01
645.05	4.9075E-01
645.38	4.8949E-01
645.71	4.9716E-01
646.04	4.9585E-01
646.36	4.9564E-01
646.69	5.0432E-01
647.02	5.0606E-01
647.35	5.0139E-01
647.67	5.0918E-01
648.00	5.0697E-01
648.33	5.1124E-01
648.66	5.0916E-01
648.98	5.1537E-01
649.31	5.1285E-01
649.64	5.1494E-01
649.96	5.1928E-01
650.29	5.2659E-01
650.62	5.2276E-01
650.94	5.2286E-01
651.27	5.2596E-01
651.60	5.2309E-01
651.92	5.3348E-01
652.25	5.3754E-01
652.58	5.3534E-01
652.90	5.3504E-01
653.23	5.3551E-01
653.56	5.3875E-01
653.88	5.4264E-01
654.21	5.4101E-01
654.54	5.4488E-01
654.86	5.5090E-01
655.19	5.4764E-01
655.52	5.5347E-01
655.84	5.4782E-01
656.17	5.5511E-01
656.49	5.5474E-01
656.82	5.5214E-01
657.15	5.5846E-01
657.47	5.6015E-01
657.80	5.6226E-01
658.13	5.6080E-01
658.45	5.6333E-01
658.78	5.6413E-01
659.10	5.6912E-01
659.43	5.6639E-01
659.75	5.6932E-01
660.08	5.6736E-01
660.41	5.7845E-01
660.73	5.7470E-01
661.06	5.7499E-01
661.38	5.7872E-01
661.71	5.8196E-01
662.03	5.7871E-01
662.36	5.8627E-01
662.68	5.8227E-01
663.01	5.7719E-01
663.33	5.8591E-01
663.66	5.8774E-01
663.98	5.8716E-01
664.31	5.8777E-01
664.63	6.0091E-01
664.96	5.8593E-01
665.28	5.9362E-01
665.61	5.9555E-01
665.93	5.9550E-01
666.26	5.9528E-01
666.58	5.9959E-01
666.91	6.0107E-01
667.23	6.0746E-01
667.56	6.0154E-01
667.88	6.0482E-01
668.21	6.0885E-01
668.53	6.0621E-01
668.86	6.1349E-01
669.18	6.0859E-01
669.50	6.1750E-01
669.83	6.1146E-01
670.15	6.1664E-01
670.48	6.1780E-01
670.80	6.1652E-01
671.13	6.1692E-01
671.45	6.2094E-01
671.77	6.2067E-01
672.10	6.1788E-01
672.42	6.3301E-01
672.75	6.2670E-01
673.07	6.3122E-01
673.39	6.2565E-01
673.72	6.2955E-01
674.04	6.3388E-01
674.37	6.3342E-01
674.69	6.3231E-01
675.01	6.3622E-01
675.34	6.4280E-01
675.66	6.4093E-01
675.98	6.3592E-01
676.31	6.4562E-01
676.63	6.4267E-01
676.95	6.4477E-01
677.28	6.5151E-01
677.60	6.5283E-01
677.92	6.4716E-01
678.25	6.5530E-01
678.57	6.5619E-01
678.89	6.5243E-01
679.22	6.6239E-01
679.54	6.5934E-01
679.86	6.6114E-01
680.18	6.6681E-01
680.51	6.5910E-01
680.83	6.7589E-01
681.15	6.6642E-01
681.48	6.7063E-01
681.80	6.7076E-01
682.12	6.6811E-01
682.44	6.8067E-01
682.77	6.8275E-01
683.09	6.8629E-01
683.41	6.8057E-01
683.73	6.8975E-01
684.06	6.8580E-01
684.38	6.8870E-01
684.70	6.9162E-01
685.02	6.9340E-01
685.34	6.9979E-01
685.67	6.9636E-01
685.99	7.1095E-01
686.31	7.0053E-01
686.63	7.0980E-01
686.96	7.1363E-01
687.28	7.1776E-01
687.60	7.0592E-01
687.92	7.1294E-01
688.24	7.2192E-01
688.56	7.2906E-01
688.89	7.2187E-01
689.21	7.3067E-01
689.53	7.2714E-01
689.85	7.3619E-01
690.17	7.3108E-01
690.49	7.4394E-01
690.82	7.4365E-01
691.14	7.4311E-01
691.46	7.4597E-01
691.78	7.4998E-01
692.10	7.4714E-01
692.42	7.5722E-01
692.74	7.6250E-01
693.06	7.5966E-01
693.39	7.7030E-01
693.71	7.7475E-01
694.03	7.7519E-01
694.35	7.7950E-01
694.67	7.7990E-01
694.99	7.9289E-01
695.31	7.8589E-01
695.63	7.9069E-01
695.95	7.9773E-01
696.27	7.9769E-01
696.59	7.9990E-01
696.91	8.0864E-01
697.23	8.1403E-01
697.56	8.1505E-01
697.88	8.1354E-01
698.20	8.1898E-01
698.52	8.2367E-01
698.84	8.3079E-01
699.16	8.3355E-01
699.48	8.3055E-01
699.80	8.3862E-01
700.12	8.4911E-01
700.44	8.4932E-01
700.76	8.5366E-01
701.08	8.6231E-01
701.40	8.6000E-01
701.72	8.6480E-01
702.04	8.6736E-01
702.36	8.7533E-01
702.68	8.8157E-01
703.00	8.8463E-01
703.32	8.8920E-01
703.64	8.9681E-01
703.96	8.8743E-01
704.28	8.9195E-01
704.60	9.0034E-01
704.91	9.0919E-01
705.23	9.0734E-01
705.55	9.2234E-01
705.87	9.1900E-01
706.19	9.1876E-01
706.51	9.2532E-01
706.83	9.2948E-01
707.15	9.4804E-01
707.47	9.3979E-01
707.79	9.5381E-01
708.11	9.5132E-01
708.43	9.5728E-01
708.74	9.6503E-01
709.06	9.7404E-01
709.38	9.7347E-01
709.70	9.7471E-01
710.02	9.8358E-01
710.34	9.7788E-01
710.66	9.9490E-01
710.98	1.0012E00
711.29	1.0040E00
711.61	1.0151E00
711.93	1.0167E00
712.25	1.0128E00
712.57	1.0260E00
712.89	1.0361E00
713.20	1.0341E00
713.52	1.0376E00
713.84	1.0570E00
714.16	1.0470E00
714.48	1.0473E00
714.80	1.0671E00
715.11	1.0656E00
715.43	1.0745E00
715.75	1.0738E00
716.07	1.1023E00
716.39	1.0731E00
716.70	1.0899E00
717.02	1.0833E00
717.34	1.1083E00
717.66	1.1061E00
717.97	1.1087E00
718.29	1.1225E00
718.61	1.1266E00
718.93	1.1428E00
719.24	1.1410E00
719.56	1.1468E00
719.88	1.1604E00
720.20	1.1694E00
720.51	1.1790E00
720.83	1.1728E00
721.15	1.2011E00
721.46	1.1940E00
721.78	1.2069E00
722.10	1.2227E00
722.42	1.2219E00
722.73	1.2342E00
723.05	1.2331E00
723.37	1.2441E00
723.68	1.2722E00
724.00	1.2561E00
724.32	1.2763E00
724.63	1.2632E00
724.95	1.2744E00
725.27	1.2804E00
725.58	1.2858E00
725.90	1.2796E00
726.22	1.3012E00
726.53	1.2924E00
726.85	1.2993E00
727.16	1.3084E00
727.48	1.3126E00
727.80	1.3165E00
728.11	1.3273E00
728.43	1.3147E00
728.74	1.3155E00
729.06	1.3445E00
729.38	1.3414E00
729.69	1.3427E00
730.01	1.3529E00
730.32	1.3633E00
730.64	1.3612E00
730.96	1.3443E00
731.27	1.3814E00
731.59	1.3608E00
731.90	1.3577E00
732.22	1.3703E00
732.53	1.3874E00
732.85	1.4017E00
733.16	1.3900E00
733.48	1.3840E00
733.80	1.3816E00
734.11	1.4076E00
734.43	1.4302E00
734.74	1.4167E00
735.06	1.4309E00
735.37	1.4255E00
735.69	1.4318E00
736.00	1.4392E00
736.32	1.4382E00
736.63	1.4531E00
736.95	1.4616E00
737.26	1.4802E00
737.58	1.4684E00
737.89	1.4747E00
738.21	1.4677E00
738.52	1.4804E00
738.83	1.5005E00
739.15	1.4840E00
739.46	1.5095E00
739.78	1.4989E00
740.09	1.5072E00
740.41	1.5099E00
740.72	1.5077E00
741.04	1.5106E00
741.35	1.5191E00
741.66	1.5376E00
741.98	1.5275E00
742.29	1.5358E00
742.61	1.5481E00
742.92	1.5250E00
743.23	1.5381E00
743.55	1.5510E00
743.86	1.5404E00
744.18	1.5484E00
744.49	1.5365E00
744.80	1.5334E00
745.12	1.5372E00
745.43	1.5556E00
745.74	1.5534E00
746.06	1.5424E00
746.37	1.5427E00
746.68	1.5455E00
747.00	1.5512E00
747.31	1.5483E00
747.62	1.5372E00
747.94	1.5466E00
748.25	1.5453E00
748.56	1.5487E00
748.88	1.5399E00
749.19	1.5534E00
749.50	1.5430E00
749.82	1.5540E00
750.13	1.5491E00
750.44	1.5473E00
750.75	1.5346E00
751.07	1.5459E00
751.38	1.5669E00
751.69	1.5472E00
752.01	1.5692E00
752.32	1.5629E00
752.63	1.5476E00
752.94	1.5526E00
753.26	1.5543E00
753.57	1.5546E00
753.88	1.5707E00
754.19	1.5588E00
754.51	1.5734E00
754.82	1.5604E00
755.13	1.5920E00
755.44	1.5751E00
755.75	1.5827E00
756.07	1.5964E00
756.38	1.6056E00
756.69	1.5980E00
757.00	1.6235E00
757.31	1.6281E00
757.63	1.6288E00
757.94	1.6367E00
758.25	1.6545E00
758.56	1.6259E00
758.87	1.6636E00
759.18	1.6646E00
759.50	1.6580E00
759.81	1.6653E00
760.12	1.6868E00
760.43	1.7146E00
760.74	1.4017E00
761.05	8.5635E-01
761.36	9.4660E-01
761.67	1.1487E00
761.99	1.2944E00
762.30	1.3898E00
762.61	1.3822E00
762.92	1.3282E00
763.23	1.3097E00
763.54	1.3120E00
763.85	1.3477E00
764.16	1.3898E00
764.47	1.5968E00
764.78	1.5429E00
765.10	1.7110E00
765.41	1.7448E00
765.72	1.8626E00
766.03	1.9151E00
766.34	1.9386E00
766.65	1.9569E00
766.96	1.9862E00
767.27	1.9810E00
767.58	1.9611E00
767.89	1.9779E00
768.20	2.0276E00
768.51	2.0299E00
768.82	2.0277E00
769.13	2.0361E00
769.44	2.0895E00
769.75	2.0831E00
770.06	2.0842E00
770.37	2.0951E00
770.68	2.1247E00
770.99	2.1622E00
771.30	2.1790E00
771.61	2.2251E00
771.92	2.2049E00
772.23	2.2189E00
772.54	2.2490E00
772.85	2.2531E00
773.16	2.2895E00
773.47	2.3299E00
773.78	2.3300E00
774.09	2.3391E00
774.39	2.3615E00
774.70	2.3611E00
775.01	2.4270E00
775.32	2.4357E00
775.63	2.4445E00
775.94	2.4634E00
776.25	2.4528E00
776.56	2.5087E00
776.87	2.5576E00
777.18	2.5539E00
777.48	2.5935E00
777.79	2.6161E00
778.10	2.6382E00
778.41	2.6641E00
778.72	2.6739E00
779.03	2.6705E00
779.34	2.7302E00
779.65	2.7345E00
779.95	2.7412E00
780.26	2.7937E00
780.57	2.7881E00
780.88	2.7994E00
781.19	2.8533E00
781.50	2.8367E00
781.80	2.8935E00
782.11	2.9186E00
782.42	2.9297E00
782.73	2.9390E00
783.04	3.0192E00
783.34	3.0339E00
783.65	3.0744E00
783.96	3.0381E00
784.27	3.0668E00
784.57	3.1087E00
784.88	3.1298E00
785.19	3.1784E00
785.50	3.1817E00
785.81	3.2286E00
786.11	3.2064E00
786.42	3.2833E00
786.73	3.3585E00
787.04	3.3538E00
787.34	3.3663E00
787.65	3.3767E00
787.96	3.4667E00
788.26	3.2620E00
788.57	3.0707E00
788.88	3.0199E00
789.19	2.9503E00
789.49	2.9687E00
789.80	3.0843E00
790.11	3.0387E00
790.41	3.0056E00
790.72	3.0531E00
791.03	3.0080E00
791.33	3.0089E00
791.64	2.9760E00
791.95	3.0560E00
792.25	3.0692E00
792.56	3.0850E00
792.87	3.1412E00
793.17	3.0726E00
793.48	3.0963E00
793.79	3.1912E00
794.09	3.1678E00
794.40	3.2225E00
794.70	3.1821E00
795.01	3.3049E00
795.32	3.1828E00
795.62	3.2393E00
795.93	3.1118E00
796.23	3.1479E00
796.54	3.0645E00
796.85	3.1229E00
797.15	3.1299E00
797.46	3.1777E00
797.76	3.1740E00
798.07	3.3195E00
798.37	3.2685E00
798.68	3.2604E00
798.99	3.3146E00
799.29	3.2804E00
799.60	3.3189E00
799.90	3.2569E00
800.21	3.2023E00
800.51	3.1723E00
800.82	3.3377E00
801.12	3.2482E00
801.43	3.2982E00
801.73	3.2031E00
802.04	3.1994E00
802.34	3.1849E00
802.65	3.2469E00
802.95	3.2093E00
803.26	3.2440E00
803.56	3.2283E00
803.87	3.2171E00
804.17	3.1613E00
804.48	3.2751E00
804.78	3.2832E00
805.09	3.2281E00
805.39	3.3396E00
805.70	3.4103E00
806.00	3.3613E00
806.30	3.3803E00
806.61	3.3773E00
806.91	3.4167E00
807.22	3.4255E00
807.52	3.5163E00
807.83	3.3975E00
808.13	3.4441E00
808.43	3.4356E00
808.74	3.4460E00
809.04	3.3432E00
809.35	3.2581E00
809.65	3.3570E00
809.95	3.3094E00
810.26	3.2155E00
810.56	3.2106E00
810.86	3.2380E00
811.17	3.1818E00
811.47	3.1590E00
811.77	3.0487E00
812.08	3.0732E00
812.38	3.0121E00
812.69	2.9486E00
812.99	2.9408E00
813.29	2.7900E00
813.59	2.7048E00
813.90	2.6814E00
814.20	2.6488E00
814.50	2.5897E00
814.81	2.5142E00
815.11	2.4828E00
815.41	2.3285E00
815.72	2.3131E00
816.02	2.2503E00
816.32	2.1797E00
816.62	2.1075E00
816.93	2.1698E00
817.23	2.1655E00
817.53	2.1199E00
817.84	2.1728E00
818.14	2.1339E00
818.44	2.2049E00
818.74	2.3058E00
819.04	2.2327E00
819.35	2.2211E00
819.65	2.2467E00
819.95	2.2683E00
820.25	2.3182E00
820.56	2.4213E00
820.86	2.5010E00
821.16	2.6865E00
821.46	2.5999E00
821.76	2.5532E00
822.07	2.6724E00
822.37	2.5178E00
822.67	2.6132E00
822.97	2.4075E00
823.27	2.1532E00
823.57	2.0032E00
823.88	2.1023E00
824.18	2.1352E00
824.48	2.1525E00
824.78	2.2339E00
825.08	2.4227E00
825.38	2.3980E00
825.69	2.3559E00
825.99	2.3790E00
826.29	2.3747E00
826.59	2.4231E00
826.89	2.4550E00
827.19	2.6345E00
827.49	2.4134E00
827.79	2.2691E00
828.09	2.2398E00
828.39	2.1663E00
828.70	2.1192E00
829.00	2.2198E00
829.30	2.1117E00
829.60	2.0447E00
829.90	2.1854E00
830.20	2.0430E00
830.50	1.9760E00
830.80	2.1065E00
831.10	2.0221E00
831.40	2.0415E00
831.70	2.0576E00
832.00	2.0227E00
832.30	1.9439E00
832.60	1.9021E00
832.90	1.9367E00
833.20	1.9025E00
833.50	1.8813E00
833.80	1.8672E00
834.10	1.8742E00
834.40	1.9605E00
834.70	1.9677E00
835.00	1.8868E00
835.30	1.9165E00
835.60	1.9242E00
835.90	1.9195E00
836.20	1.9201E00
836.50	1.9228E00
836.80	2.1323E00
837.10	2.5928E00
837.40	1.9969E00
837.70	2.1856E00
838.00	1.9707E00
838.30	2.0707E00
838.60	2.0668E00
838.90	2.0129E00
839.19	2.4259E00
839.49	2.0074E00
839.79	2.1053E00
840.09	1.9658E00
840.39	2.0982E00
840.69	2.0899E00
840.99	2.3218E00
841.29	2.0937E00
841.59	1.9918E00
841.88	1.9847E00
842.18	2.0796E00
842.48	1.9998E00
842.78	2.0030E00
843.08	2.0801E00
843.38	2.0184E00
843.68	2.2690E00
843.97	2.2014E00
844.27	2.0831E00
844.57	1.9919E00
844.87	2.0099E00
845.17	2.0463E00
845.47	2.0123E00
845.76	2.1267E00
846.06	2.1564E00
846.36	2.8191E00
846.66	1.9914E00
846.96	2.1091E00
847.25	2.0228E00
847.55	2.0129E00
847.85	2.1056E00
848.15	2.0376E00
848.44	1.9957E00
848.74	2.0439E00
849.04	2.0580E00
849.34	2.1672E00
849.63	1.9742E00
849.93	1.9929E00
850.23	1.9579E00
850.53	1.9427E00
850.82	1.9486E00
851.12	1.9800E00
851.42	2.1265E00
851.71	1.9590E00
852.01	1.9525E00
852.31	1.9853E00
852.61	1.9079E00
852.90	1.9484E00
853.20	2.1244E00
853.50	2.4364E00
853.79	2.3129E00
854.09	1.9785E00
854.39	1.9194E00
854.68	1.8721E00
854.98	1.8312E00
855.28	1.8990E00
855.57	2.1760E00
855.87	1.9972E00
856.17	2.0196E00
856.46	1.9020E00
856.76	1.8888E00
857.05	2.0917E00
857.35	1.8911E00
857.65	2.3070E00
857.94	2.1023E00
858.24	2.1698E00
858.53	1.9837E00
858.83	2.7719E00
859.13	2.0729E00
859.42	2.0370E00
859.72	2.1783E00
860.01	2.0337E00
860.31	2.0603E00
860.60	2.0456E00
860.90	2.2334E00
861.20	2.0963E00
861.49	2.0121E00
861.79	2.0530E00
862.08	3.5062E00
862.38	2.4567E00
862.67	2.1520E00
862.97	2.0184E00
863.26	2.1203E00
863.56	2.3206E00
863.85	2.5484E00
864.15	2.0818E00
864.44	1.9952E00
864.74	2.0295E00
865.03	2.5156E00
865.33	2.2828E00
865.62	2.1009E00
865.92	2.0191E00
866.21	2.1004E00
866.51	2.0818E00
866.80	2.3072E00
867.10	2.4715E00
867.39	2.2187E00
867.69	2.4144E00
867.98	1.9400E00
868.27	2.0046E00
868.57	1.9125E00
868.86	2.2630E00
869.16	1.9941E00
869.45	2.0582E00
869.75	2.0387E00
870.04	2.0327E00
870.33	2.3247E00
870.63	2.0311E00
870.92	1.9793E00
871.22	3.4808E00
871.51	2.1154E00
871.80	2.3764E00
872.10	2.3764E00
>>>>>End Processed Spectral Data<<<<<
