SpectraSuite Data File
++++++++++++++++++++++++++++++++++++
Date: Sat May 16 09:23:59 PDT 2015
User: schluterlab
Dark Spectrum Present: Yes
Reference Spectrum Present: No
Number of Sampled Component Spectra: 1
Spectrometers: USB2E3373
Integration Time (usec): 2300000 (USB2E3373)
Spectra Averaged: 3 (USB2E3373)
Boxcar Smoothing: 0 (USB2E3373)
Correct for Electrical Dark: No (USB2E3373)
Strobe/Lamp Enabled: No (USB2E3373)
Correct for Detector Non-linearity: No (USB2E3373)
Correct for Stray Light: No (USB2E3373)
Number of Pixels in Processed Spectrum: 2048
>>>>>Begin Processed Spectral Data<<<<<
178.53	-0.0000E00
178.91	-0.0000E00
179.29	-0.0000E00
179.67	-0.0000E00
180.04	-0.0000E00
180.42	0.0000E00
180.80	0.0000E00
181.18	0.0000E00
181.56	0.0000E00
181.94	0.0000E00
182.31	0.0000E00
182.69	0.0000E00
183.07	0.0000E00
183.45	0.0000E00
183.83	0.0000E00
184.20	-0.0000E00
184.58	0.0000E00
184.96	-0.0000E00
185.34	0.0000E00
185.72	0.0000E00
186.09	0.0000E00
186.47	0.0000E00
186.85	-0.0000E00
187.23	-0.0000E00
187.61	0.0000E00
187.98	0.0000E00
188.36	0.0000E00
188.74	0.0000E00
189.12	0.0000E00
189.49	0.0000E00
189.87	0.0000E00
190.25	0.0000E00
190.63	0.0000E00
191.00	0.0000E00
191.38	0.0000E00
191.76	0.0000E00
192.14	0.0000E00
192.51	0.0000E00
192.89	0.0000E00
193.27	0.0000E00
193.65	0.0000E00
194.02	0.0000E00
194.40	0.0000E00
194.78	0.0000E00
195.15	0.0000E00
195.53	0.0000E00
195.91	0.0000E00
196.29	0.0000E00
196.66	0.0000E00
197.04	0.0000E00
197.42	0.0000E00
197.79	0.0000E00
198.17	0.0000E00
198.55	0.0000E00
198.92	0.0000E00
199.30	0.0000E00
199.68	0.0000E00
200.05	0.0000E00
200.43	0.0000E00
200.81	0.0000E00
201.18	0.0000E00
201.56	0.0000E00
201.94	0.0000E00
202.31	0.0000E00
202.69	0.0000E00
203.07	0.0000E00
203.44	0.0000E00
203.82	0.0000E00
204.19	0.0000E00
204.57	0.0000E00
204.95	0.0000E00
205.32	0.0000E00
205.70	0.0000E00
206.08	0.0000E00
206.45	0.0000E00
206.83	0.0000E00
207.20	0.0000E00
207.58	0.0000E00
207.96	0.0000E00
208.33	0.0000E00
208.71	0.0000E00
209.08	0.0000E00
209.46	0.0000E00
209.84	0.0000E00
210.21	0.0000E00
210.59	0.0000E00
210.96	0.0000E00
211.34	0.0000E00
211.71	0.0000E00
212.09	0.0000E00
212.46	0.0000E00
212.84	0.0000E00
213.22	-0.0000E00
213.59	0.0000E00
213.97	0.0000E00
214.34	0.0000E00
214.72	0.0000E00
215.09	0.0000E00
215.47	0.0000E00
215.84	0.0000E00
216.22	0.0000E00
216.59	0.0000E00
216.97	0.0000E00
217.34	0.0000E00
217.72	0.0000E00
218.09	0.0000E00
218.47	0.0000E00
218.84	-0.0000E00
219.22	0.0000E00
219.59	0.0000E00
219.97	0.0000E00
220.34	0.0000E00
220.72	0.0000E00
221.09	0.0000E00
221.47	0.0000E00
221.84	0.0000E00
222.22	0.0000E00
222.59	0.0000E00
222.97	0.0000E00
223.34	0.0000E00
223.72	0.0000E00
224.09	0.0000E00
224.46	0.0000E00
224.84	0.0000E00
225.21	0.0000E00
225.59	0.0000E00
225.96	0.0000E00
226.34	0.0000E00
226.71	0.0000E00
227.08	0.0000E00
227.46	0.0000E00
227.83	0.0000E00
228.21	0.0000E00
228.58	0.0000E00
228.95	0.0000E00
229.33	0.0000E00
229.70	0.0000E00
230.08	0.0000E00
230.45	0.0000E00
230.82	0.0000E00
231.20	0.0000E00
231.57	0.0000E00
231.95	0.0000E00
232.32	0.0000E00
232.69	0.0000E00
233.07	0.0000E00
233.44	0.0000E00
233.81	0.0000E00
234.19	0.0000E00
234.56	0.0000E00
234.93	0.0000E00
235.31	0.0000E00
235.68	0.0000E00
236.05	0.0000E00
236.43	0.0000E00
236.80	0.0000E00
237.17	0.0000E00
237.55	0.0000E00
237.92	0.0000E00
238.29	0.0000E00
238.67	0.0000E00
239.04	0.0000E00
239.41	0.0000E00
239.79	0.0000E00
240.16	0.0000E00
240.53	0.0000E00
240.91	0.0000E00
241.28	0.0000E00
241.65	0.0000E00
242.02	0.0000E00
242.40	0.0000E00
242.77	0.0000E00
243.14	0.0000E00
243.51	0.0000E00
243.89	0.0000E00
244.26	0.0000E00
244.63	0.0000E00
245.00	0.0000E00
245.38	0.0000E00
245.75	0.0000E00
246.12	0.0000E00
246.49	0.0000E00
246.87	0.0000E00
247.24	0.0000E00
247.61	0.0000E00
247.98	0.0000E00
248.36	0.0000E00
248.73	0.0000E00
249.10	0.0000E00
249.47	0.0000E00
249.84	0.0000E00
250.22	0.0000E00
250.59	0.0000E00
250.96	0.0000E00
251.33	0.0000E00
251.70	0.0000E00
252.08	0.0000E00
252.45	0.0000E00
252.82	0.0000E00
253.19	0.0000E00
253.56	0.0000E00
253.94	0.0000E00
254.31	0.0000E00
254.68	0.0000E00
255.05	0.0000E00
255.42	0.0000E00
255.79	0.0000E00
256.16	0.0000E00
256.54	0.0000E00
256.91	0.0000E00
257.28	0.0000E00
257.65	0.0000E00
258.02	0.0000E00
258.39	0.0000E00
258.76	0.0000E00
259.14	0.0000E00
259.51	0.0000E00
259.88	0.0000E00
260.25	0.0000E00
260.62	0.0000E00
260.99	0.0000E00
261.36	0.0000E00
261.73	0.0000E00
262.10	0.0000E00
262.47	0.0000E00
262.85	0.0000E00
263.22	0.0000E00
263.59	0.0000E00
263.96	0.0000E00
264.33	0.0000E00
264.70	0.0000E00
265.07	0.0000E00
265.44	0.0000E00
265.81	0.0000E00
266.18	0.0000E00
266.55	0.0000E00
266.92	0.0000E00
267.29	0.0000E00
267.66	0.0000E00
268.03	0.0000E00
268.40	0.0000E00
268.77	0.0000E00
269.14	0.0000E00
269.51	0.0000E00
269.88	0.0000E00
270.25	0.0000E00
270.62	0.0000E00
270.99	0.0000E00
271.36	0.0000E00
271.73	0.0000E00
272.10	0.0000E00
272.47	0.0000E00
272.84	0.0000E00
273.21	0.0000E00
273.58	0.0000E00
273.95	0.0000E00
274.32	0.0000E00
274.69	0.0000E00
275.06	0.0000E00
275.43	0.0000E00
275.80	0.0000E00
276.17	0.0000E00
276.54	0.0000E00
276.91	0.0000E00
277.28	0.0000E00
277.65	0.0000E00
278.02	0.0000E00
278.39	0.0000E00
278.76	0.0000E00
279.13	0.0000E00
279.50	0.0000E00
279.87	0.0000E00
280.23	0.0000E00
280.60	0.0000E00
280.97	0.0000E00
281.34	0.0000E00
281.71	0.0000E00
282.08	0.0000E00
282.45	0.0000E00
282.82	0.0000E00
283.19	0.0000E00
283.56	0.0000E00
283.92	0.0000E00
284.29	0.0000E00
284.66	0.0000E00
285.03	0.0000E00
285.40	0.0000E00
285.77	0.0000E00
286.14	0.0000E00
286.51	0.0000E00
286.87	0.0000E00
287.24	0.0000E00
287.61	0.0000E00
287.98	0.0000E00
288.35	0.0000E00
288.72	0.0000E00
289.08	0.0000E00
289.45	0.0000E00
289.82	0.0000E00
290.19	0.0000E00
290.56	0.0000E00
290.93	0.0000E00
291.29	0.0000E00
291.66	0.0000E00
292.03	0.0000E00
292.40	0.0000E00
292.77	0.0000E00
293.13	0.0000E00
293.50	0.0000E00
293.87	0.0000E00
294.24	0.0000E00
294.60	0.0000E00
294.97	0.0000E00
295.34	0.0000E00
295.71	0.0000E00
296.08	0.0000E00
296.44	0.0000E00
296.81	0.0000E00
297.18	0.0000E00
297.55	0.0000E00
297.91	0.0000E00
298.28	0.0000E00
298.65	0.0000E00
299.02	0.0000E00
299.38	0.0000E00
299.75	0.0000E00
300.12	4.6651E-01
300.48	1.0247E-01
300.85	1.4728E-01
301.22	1.3757E-01
301.59	1.4945E-01
301.95	2.0919E-01
302.32	2.3685E-01
302.69	7.9573E-02
303.05	8.0781E-02
303.42	1.4183E-01
303.79	1.1735E-01
304.15	2.3468E-01
304.52	1.8190E-01
304.89	1.9787E-01
305.25	1.3026E-01
305.62	1.2087E-01
305.99	4.6166E-01
306.35	1.2394E-01
306.72	1.6807E-01
307.09	1.7948E-01
307.45	1.4247E-01
307.82	1.5055E-01
308.19	1.3904E-01
308.55	1.4817E-01
308.92	3.2354E-01
309.29	2.0776E-01
309.65	2.2007E-01
310.02	1.4091E-01
310.38	9.6619E-02
310.75	3.0330E-01
311.12	1.0380E-01
311.48	2.0024E-01
311.85	1.6941E-01
312.22	1.0610E-01
312.58	1.2004E-01
312.95	1.8881E-01
313.31	1.9686E-01
313.68	1.5038E-01
314.05	1.9645E-01
314.41	2.8291E-01
314.78	1.4270E-01
315.14	2.4481E-01
315.51	3.3676E-01
315.87	1.7309E-01
316.24	1.7369E-01
316.61	3.1658E-01
316.97	2.8674E-01
317.34	2.5444E-01
317.70	4.3339E-01
318.07	3.3965E-01
318.43	2.6113E-01
318.80	4.0166E-01
319.16	3.4880E-01
319.53	4.7464E-01
319.89	2.7118E-01
320.26	2.4040E-01
320.62	5.5934E-01
320.99	2.1444E-01
321.35	3.4631E-01
321.72	2.9673E-01
322.08	3.1377E-01
322.45	2.7914E-01
322.81	6.1334E-01
323.18	4.1184E-01
323.54	2.7610E-01
323.91	2.8269E-01
324.27	2.4070E-01
324.64	4.8948E-01
325.00	4.4662E-01
325.37	2.7995E-01
325.73	4.6413E-01
326.10	4.6460E-01
326.46	4.2886E-01
326.83	1.0723E00
327.19	7.8856E-01
327.56	5.0153E-01
327.92	6.6966E-01
328.29	6.6843E-01
328.65	4.9094E-01
329.01	5.2122E-01
329.38	6.0274E-01
329.74	6.1024E-01
330.11	4.3645E-01
330.47	6.6619E-01
330.84	8.3084E-01
331.20	9.8773E-01
331.56	7.1703E-01
331.93	6.8297E-01
332.29	9.9821E-01
332.66	3.8481E-01
333.02	8.3427E-01
333.38	5.0048E-01
333.75	5.6049E-01
334.11	8.1039E-01
334.48	5.6336E-01
334.84	6.2251E-01
335.20	6.3939E-01
335.57	6.8297E-01
335.93	1.6671E00
336.29	1.4091E00
336.66	5.8731E-01
337.02	1.1588E00
337.38	4.3758E-01
337.75	5.5283E-01
338.11	6.6160E-01
338.47	5.0737E-01
338.84	5.8924E-01
339.20	5.9764E-01
339.56	6.7141E-01
339.93	7.2003E-01
340.29	8.7798E-01
340.65	5.9124E-01
341.02	1.1140E00
341.38	8.2927E-01
341.74	1.1914E00
342.11	8.3964E-01
342.47	6.8986E-01
342.83	1.0585E00
343.20	6.7913E-01
343.56	6.2836E-01
343.92	9.5464E-01
344.28	7.4677E-01
344.65	9.9285E-01
345.01	6.4283E-01
345.37	1.1239E00
345.73	7.8508E-01
346.10	6.3763E-01
346.46	7.9913E-01
346.82	9.2810E-01
347.19	9.8213E-01
347.55	8.3490E-01
347.91	8.6157E-01
348.27	9.3009E-01
348.63	1.0513E00
349.00	7.1891E-01
349.36	6.7485E-01
349.72	7.7084E-01
350.08	1.2203E00
350.45	1.0384E00
350.81	1.0970E00
351.17	7.9809E-01
351.53	1.0177E00
351.89	1.0875E00
352.26	9.2763E-01
352.62	1.0199E00
352.98	8.0920E-01
353.34	7.4334E-01
353.70	1.0018E00
354.07	9.1269E-01
354.43	9.8696E-01
354.79	1.0238E00
355.15	7.9965E-01
355.51	1.1858E00
355.87	1.0954E00
356.24	7.8697E-01
356.60	1.1008E00
356.96	9.3912E-01
357.32	8.8593E-01
357.68	8.4940E-01
358.04	8.2172E-01
358.40	7.4217E-01
358.77	8.5556E-01
359.13	8.3102E-01
359.49	1.1515E00
359.85	1.2094E00
360.21	9.4468E-01
360.57	9.3461E-01
360.93	1.0088E00
361.29	9.9103E-01
361.66	1.0820E00
362.02	8.9264E-01
362.38	1.0228E00
362.74	1.0235E00
363.10	1.1902E00
363.46	1.2271E00
363.82	1.2853E00
364.18	1.1214E00
364.54	1.1709E00
364.90	9.4306E-01
365.26	9.9022E-01
365.62	1.0990E00
365.98	1.0337E00
366.35	1.0305E00
366.71	8.3250E-01
367.07	1.3901E00
367.43	1.2135E00
367.79	1.0522E00
368.15	1.0256E00
368.51	1.1513E00
368.87	1.0617E00
369.23	1.2470E00
369.59	9.8639E-01
369.95	1.3965E00
370.31	1.1087E00
370.67	1.1635E00
371.03	1.0048E00
371.39	9.8194E-01
371.75	1.2492E00
372.11	1.1083E00
372.47	9.6855E-01
372.83	1.1174E00
373.19	1.1680E00
373.55	1.0505E00
373.91	1.1637E00
374.27	8.9300E-01
374.63	1.0234E00
374.99	9.6269E-01
375.35	1.0645E00
375.71	1.0403E00
376.07	9.6958E-01
376.42	1.0705E00
376.78	9.8653E-01
377.14	9.3431E-01
377.50	1.0563E00
377.86	9.8695E-01
378.22	1.1559E00
378.58	9.2681E-01
378.94	1.0221E00
379.30	8.3687E-01
379.66	9.3654E-01
380.02	1.0223E00
380.38	8.7296E-01
380.74	9.6364E-01
381.09	9.6306E-01
381.45	8.9081E-01
381.81	8.9932E-01
382.17	8.8738E-01
382.53	8.4076E-01
382.89	7.9818E-01
383.25	9.2896E-01
383.61	9.2265E-01
383.97	9.7531E-01
384.32	9.8491E-01
384.68	9.2244E-01
385.04	9.0480E-01
385.40	9.1983E-01
385.76	7.3641E-01
386.12	9.1228E-01
386.48	8.1474E-01
386.83	8.9865E-01
387.19	8.7238E-01
387.55	9.4868E-01
387.91	9.1861E-01
388.27	8.3304E-01
388.62	8.3592E-01
388.98	8.5423E-01
389.34	8.8258E-01
389.70	8.6485E-01
390.06	8.5691E-01
390.42	8.3996E-01
390.77	8.1965E-01
391.13	8.7507E-01
391.49	8.4827E-01
391.85	9.2377E-01
392.20	8.4439E-01
392.56	8.7672E-01
392.92	8.3655E-01
393.28	8.3554E-01
393.64	8.6056E-01
393.99	8.8294E-01
394.35	8.1402E-01
394.71	9.2268E-01
395.07	8.5853E-01
395.42	8.2311E-01
395.78	8.1357E-01
396.14	8.2112E-01
396.50	7.6908E-01
396.85	8.9131E-01
397.21	9.2330E-01
397.57	8.3426E-01
397.92	8.5274E-01
398.28	7.6429E-01
398.64	8.1295E-01
399.00	7.7755E-01
399.35	7.6790E-01
399.71	8.1639E-01
400.07	8.0889E-01
400.42	8.1251E-01
400.78	7.8252E-01
401.14	7.7639E-01
401.49	7.8347E-01
401.85	7.8319E-01
402.21	7.1058E-01
402.57	7.4330E-01
402.92	8.0097E-01
403.28	7.9831E-01
403.63	7.8326E-01
403.99	8.0905E-01
404.35	7.4810E-01
404.70	7.5450E-01
405.06	7.4292E-01
405.42	7.9651E-01
405.77	7.2772E-01
406.13	7.0744E-01
406.49	6.7911E-01
406.84	6.9966E-01
407.20	7.4525E-01
407.55	7.6781E-01
407.91	7.7818E-01
408.27	7.0835E-01
408.62	6.9276E-01
408.98	7.2286E-01
409.34	7.0933E-01
409.69	7.4777E-01
410.05	6.9854E-01
410.40	7.0466E-01
410.76	6.7879E-01
411.11	7.0513E-01
411.47	7.2238E-01
411.83	6.8698E-01
412.18	6.8515E-01
412.54	6.8150E-01
412.89	6.9902E-01
413.25	6.5142E-01
413.60	6.7267E-01
413.96	7.1605E-01
414.31	6.7546E-01
414.67	7.0440E-01
415.03	7.1210E-01
415.38	7.4227E-01
415.74	7.1140E-01
416.09	7.0284E-01
416.45	7.2714E-01
416.80	6.9859E-01
417.16	6.9817E-01
417.51	6.8979E-01
417.87	7.0974E-01
418.22	6.6490E-01
418.58	6.8631E-01
418.93	6.4316E-01
419.29	6.7979E-01
419.64	6.4765E-01
420.00	6.6763E-01
420.35	6.6010E-01
420.71	6.3605E-01
421.06	6.6007E-01
421.42	6.9357E-01
421.77	6.5292E-01
422.12	6.6654E-01
422.48	6.4211E-01
422.83	6.7153E-01
423.19	6.3573E-01
423.54	6.5948E-01
423.90	6.4252E-01
424.25	6.3099E-01
424.61	6.6108E-01
424.96	6.3124E-01
425.31	6.1180E-01
425.67	6.0579E-01
426.02	6.1855E-01
426.38	6.1924E-01
426.73	6.1011E-01
427.09	6.1991E-01
427.44	5.8916E-01
427.79	6.0442E-01
428.15	6.0765E-01
428.50	6.1579E-01
428.85	6.3315E-01
429.21	5.7292E-01
429.56	5.8255E-01
429.92	5.7546E-01
430.27	5.9191E-01
430.62	6.0948E-01
430.98	6.1654E-01
431.33	5.9846E-01
431.68	5.8584E-01
432.04	5.7858E-01
432.39	5.7798E-01
432.74	6.0253E-01
433.10	5.5707E-01
433.45	5.9644E-01
433.80	5.8495E-01
434.16	5.7872E-01
434.51	5.7235E-01
434.86	5.9088E-01
435.22	5.6353E-01
435.57	6.1437E-01
435.92	5.9056E-01
436.28	5.5591E-01
436.63	5.6157E-01
436.98	5.6476E-01
437.34	5.8698E-01
437.69	5.6464E-01
438.04	5.4450E-01
438.39	5.8513E-01
438.75	5.6916E-01
439.10	5.5388E-01
439.45	5.8034E-01
439.81	5.8204E-01
440.16	5.4893E-01
440.51	5.6106E-01
440.86	5.8859E-01
441.22	5.6439E-01
441.57	5.4343E-01
441.92	5.4282E-01
442.27	5.5961E-01
442.63	5.5128E-01
442.98	5.8072E-01
443.33	5.7093E-01
443.68	5.3564E-01
444.03	5.2797E-01
444.39	5.2172E-01
444.74	5.6588E-01
445.09	5.6983E-01
445.44	5.6009E-01
445.79	5.1155E-01
446.15	5.4580E-01
446.50	5.5070E-01
446.85	5.1965E-01
447.20	5.1731E-01
447.55	5.4391E-01
447.91	5.3953E-01
448.26	5.4952E-01
448.61	5.3720E-01
448.96	5.1937E-01
449.31	5.3012E-01
449.66	5.3752E-01
450.02	5.3345E-01
450.37	5.3586E-01
450.72	5.2334E-01
451.07	5.6572E-01
451.42	5.6857E-01
451.77	5.3823E-01
452.12	5.2893E-01
452.47	5.6395E-01
452.83	5.2277E-01
453.18	5.3773E-01
453.53	5.3304E-01
453.88	4.9652E-01
454.23	5.0698E-01
454.58	5.0216E-01
454.93	5.1473E-01
455.28	5.1488E-01
455.63	5.0521E-01
455.98	4.9794E-01
456.34	5.2441E-01
456.69	5.1462E-01
457.04	5.1481E-01
457.39	4.8653E-01
457.74	4.9213E-01
458.09	4.9277E-01
458.44	4.8536E-01
458.79	4.7439E-01
459.14	4.7712E-01
459.49	5.0293E-01
459.84	4.8271E-01
460.19	5.0741E-01
460.54	5.1881E-01
460.89	4.7125E-01
461.24	5.0745E-01
461.59	4.9016E-01
461.94	5.0182E-01
462.29	4.6195E-01
462.64	4.9465E-01
462.99	5.0185E-01
463.34	5.2157E-01
463.69	4.8048E-01
464.04	4.6109E-01
464.39	4.6731E-01
464.74	4.8437E-01
465.09	4.9841E-01
465.44	4.6377E-01
465.79	4.7919E-01
466.14	4.7769E-01
466.49	4.7356E-01
466.84	4.7209E-01
467.19	4.7819E-01
467.54	4.7636E-01
467.89	4.6402E-01
468.24	4.4397E-01
468.59	4.5172E-01
468.94	4.5191E-01
469.29	4.4920E-01
469.64	4.6104E-01
469.99	4.5240E-01
470.34	4.3196E-01
470.68	4.6627E-01
471.03	4.4221E-01
471.38	4.3764E-01
471.73	4.2749E-01
472.08	4.2035E-01
472.43	4.0681E-01
472.78	4.3195E-01
473.13	4.2836E-01
473.48	4.1779E-01
473.83	4.0724E-01
474.17	4.2390E-01
474.52	4.1035E-01
474.87	3.9637E-01
475.22	4.0288E-01
475.57	3.8171E-01
475.92	3.6811E-01
476.27	3.9104E-01
476.61	3.7519E-01
476.96	3.7016E-01
477.31	3.4918E-01
477.66	3.6134E-01
478.01	3.5468E-01
478.36	3.5441E-01
478.70	3.4714E-01
479.05	3.4926E-01
479.40	3.4131E-01
479.75	3.4243E-01
480.10	3.3445E-01
480.45	3.2961E-01
480.79	3.2749E-01
481.14	3.3317E-01
481.49	3.2793E-01
481.84	3.1825E-01
482.19	3.1132E-01
482.53	3.1747E-01
482.88	3.1179E-01
483.23	3.0765E-01
483.58	3.0367E-01
483.92	3.1098E-01
484.27	2.9816E-01
484.62	2.9808E-01
484.97	2.9243E-01
485.31	2.8862E-01
485.66	2.9358E-01
486.01	2.9467E-01
486.36	2.8398E-01
486.70	2.8909E-01
487.05	2.8775E-01
487.40	2.8445E-01
487.75	2.7941E-01
488.09	2.7897E-01
488.44	2.8239E-01
488.79	2.8041E-01
489.13	2.7624E-01
489.48	2.7657E-01
489.83	2.7907E-01
490.17	2.7077E-01
490.52	2.7017E-01
490.87	2.7116E-01
491.22	2.7431E-01
491.56	2.7359E-01
491.91	2.7581E-01
492.26	2.7339E-01
492.60	2.7265E-01
492.95	2.7452E-01
493.30	2.7376E-01
493.64	2.7052E-01
493.99	2.7514E-01
494.34	2.7071E-01
494.68	2.6691E-01
495.03	2.7226E-01
495.37	2.6855E-01
495.72	2.7267E-01
496.07	2.6617E-01
496.41	2.6943E-01
496.76	2.6899E-01
497.11	2.7012E-01
497.45	2.6974E-01
497.80	2.7071E-01
498.14	2.6732E-01
498.49	2.7174E-01
498.84	2.6938E-01
499.18	2.7029E-01
499.53	2.6954E-01
499.87	2.6516E-01
500.22	2.7229E-01
500.56	2.6922E-01
500.91	2.7046E-01
501.26	2.6784E-01
501.60	2.6993E-01
501.95	2.6746E-01
502.29	2.6875E-01
502.64	2.6689E-01
502.98	2.7104E-01
503.33	2.6654E-01
503.67	2.6958E-01
504.02	2.6798E-01
504.36	2.6694E-01
504.71	2.6862E-01
505.06	2.6674E-01
505.40	2.6498E-01
505.75	2.6599E-01
506.09	2.6571E-01
506.44	2.6515E-01
506.78	2.6687E-01
507.13	2.6758E-01
507.47	2.6471E-01
507.82	2.6452E-01
508.16	2.6489E-01
508.51	2.6410E-01
508.85	2.6091E-01
509.19	2.6172E-01
509.54	2.6369E-01
509.88	2.6320E-01
510.23	2.5859E-01
510.57	2.5938E-01
510.92	2.6136E-01
511.26	2.6124E-01
511.61	2.6135E-01
511.95	2.5910E-01
512.30	2.5877E-01
512.64	2.5965E-01
512.98	2.5848E-01
513.33	2.5951E-01
513.67	2.5750E-01
514.02	2.5896E-01
514.36	2.5559E-01
514.70	2.5661E-01
515.05	2.5527E-01
515.39	2.5601E-01
515.74	2.5658E-01
516.08	2.5736E-01
516.42	2.5385E-01
516.77	2.5597E-01
517.11	2.5368E-01
517.46	2.5459E-01
517.80	2.5396E-01
518.14	2.5331E-01
518.49	2.5286E-01
518.83	2.5197E-01
519.17	2.5566E-01
519.52	2.5324E-01
519.86	2.5378E-01
520.20	2.5157E-01
520.55	2.5271E-01
520.89	2.5162E-01
521.23	2.5273E-01
521.58	2.5408E-01
521.92	2.5301E-01
522.26	2.5639E-01
522.61	2.5230E-01
522.95	2.5421E-01
523.29	2.5096E-01
523.64	2.5207E-01
523.98	2.5414E-01
524.32	2.5416E-01
524.66	2.5443E-01
525.01	2.5463E-01
525.35	2.5615E-01
525.69	2.5592E-01
526.04	2.5778E-01
526.38	2.5225E-01
526.72	2.5845E-01
527.06	2.5559E-01
527.41	2.5872E-01
527.75	2.5951E-01
528.09	2.5684E-01
528.43	2.6093E-01
528.78	2.5909E-01
529.12	2.6364E-01
529.46	2.6188E-01
529.80	2.6287E-01
530.15	2.6256E-01
530.49	2.6374E-01
530.83	2.6614E-01
531.17	2.6541E-01
531.51	2.6736E-01
531.86	2.6547E-01
532.20	2.6884E-01
532.54	2.6823E-01
532.88	2.6997E-01
533.22	2.7234E-01
533.57	2.7589E-01
533.91	2.7141E-01
534.25	2.7299E-01
534.59	2.7364E-01
534.93	2.7301E-01
535.27	2.7357E-01
535.62	2.7877E-01
535.96	2.7760E-01
536.30	2.7734E-01
536.64	2.7889E-01
536.98	2.8268E-01
537.32	2.7967E-01
537.66	2.8280E-01
538.01	2.8222E-01
538.35	2.8541E-01
538.69	2.8445E-01
539.03	2.8821E-01
539.37	2.8656E-01
539.71	2.8854E-01
540.05	2.8724E-01
540.39	2.8757E-01
540.73	2.8891E-01
541.07	2.8805E-01
541.42	2.8826E-01
541.76	2.8973E-01
542.10	2.9167E-01
542.44	2.9217E-01
542.78	2.9489E-01
543.12	2.8969E-01
543.46	2.9561E-01
543.80	2.9113E-01
544.14	2.9291E-01
544.48	2.9122E-01
544.82	2.9606E-01
545.16	2.9493E-01
545.50	2.9448E-01
545.84	2.9912E-01
546.18	2.9578E-01
546.52	2.9727E-01
546.86	2.9584E-01
547.20	3.0111E-01
547.54	3.0344E-01
547.88	2.9851E-01
548.22	2.9927E-01
548.56	3.0225E-01
548.90	3.0209E-01
549.24	3.0233E-01
549.58	3.0329E-01
549.92	3.0337E-01
550.26	3.0433E-01
550.60	3.0363E-01
550.94	3.0222E-01
551.28	3.0668E-01
551.62	3.0307E-01
551.96	3.0531E-01
552.30	3.0696E-01
552.64	3.0649E-01
552.98	3.0683E-01
553.32	3.0754E-01
553.66	3.0746E-01
554.00	3.0430E-01
554.34	3.0672E-01
554.68	3.0669E-01
555.02	3.0532E-01
555.36	3.0930E-01
555.69	3.1051E-01
556.03	3.0631E-01
556.37	3.0935E-01
556.71	3.0700E-01
557.05	3.0705E-01
557.39	3.0911E-01
557.73	3.0689E-01
558.07	3.0934E-01
558.41	3.0912E-01
558.75	3.1027E-01
559.08	3.0879E-01
559.42	3.0757E-01
559.76	3.1024E-01
560.10	3.1088E-01
560.44	3.1108E-01
560.78	3.0736E-01
561.12	3.1165E-01
561.45	3.1206E-01
561.79	3.1004E-01
562.13	3.0958E-01
562.47	3.1028E-01
562.81	3.1191E-01
563.15	3.1248E-01
563.48	3.1279E-01
563.82	3.0874E-01
564.16	3.1161E-01
564.50	3.1405E-01
564.84	3.1029E-01
565.17	3.1128E-01
565.51	3.0964E-01
565.85	3.1362E-01
566.19	3.0962E-01
566.52	3.1383E-01
566.86	3.1152E-01
567.20	3.1557E-01
567.54	3.1437E-01
567.88	3.1457E-01
568.21	3.1531E-01
568.55	3.1433E-01
568.89	3.1494E-01
569.23	3.1536E-01
569.56	3.1413E-01
569.90	3.1430E-01
570.24	3.1830E-01
570.57	3.1550E-01
570.91	3.1739E-01
571.25	3.1608E-01
571.59	3.1701E-01
571.92	3.1756E-01
572.26	3.1801E-01
572.60	3.1999E-01
572.93	3.1831E-01
573.27	3.2351E-01
573.61	3.2343E-01
573.95	3.1620E-01
574.28	3.2374E-01
574.62	3.2361E-01
574.96	3.2625E-01
575.29	3.2505E-01
575.63	3.2935E-01
575.97	3.2682E-01
576.30	3.3190E-01
576.64	3.2840E-01
576.98	3.3085E-01
577.31	3.3223E-01
577.65	3.3517E-01
577.98	3.2951E-01
578.32	3.3636E-01
578.66	3.3909E-01
578.99	3.3738E-01
579.33	3.4014E-01
579.67	3.3903E-01
580.00	3.4039E-01
580.34	3.4069E-01
580.67	3.4359E-01
581.01	3.4235E-01
581.35	3.4470E-01
581.68	3.4565E-01
582.02	3.4741E-01
582.35	3.4596E-01
582.69	3.4843E-01
583.02	3.5395E-01
583.36	3.5351E-01
583.70	3.5275E-01
584.03	3.5323E-01
584.37	3.5322E-01
584.70	3.5621E-01
585.04	3.5949E-01
585.37	3.5741E-01
585.71	3.6189E-01
586.04	3.6147E-01
586.38	3.5901E-01
586.72	3.6680E-01
587.05	3.6187E-01
587.39	3.6523E-01
587.72	3.6324E-01
588.06	3.6839E-01
588.39	3.6317E-01
588.73	3.7089E-01
589.06	3.6928E-01
589.40	3.7195E-01
589.73	3.7448E-01
590.07	3.7465E-01
590.40	3.7669E-01
590.73	3.7915E-01
591.07	3.7783E-01
591.40	3.8074E-01
591.74	3.7469E-01
592.07	3.8115E-01
592.41	3.8254E-01
592.74	3.8333E-01
593.08	3.7986E-01
593.41	3.8267E-01
593.75	3.8470E-01
594.08	3.8877E-01
594.41	3.8753E-01
594.75	3.8956E-01
595.08	3.8720E-01
595.42	3.8394E-01
595.75	3.8708E-01
596.09	3.9116E-01
596.42	3.8825E-01
596.75	3.8964E-01
597.09	3.9552E-01
597.42	3.8816E-01
597.75	3.9683E-01
598.09	3.9567E-01
598.42	3.9324E-01
598.76	3.9306E-01
599.09	3.9734E-01
599.42	3.9886E-01
599.76	3.9658E-01
600.09	3.9871E-01
600.42	4.0228E-01
600.76	3.9347E-01
601.09	3.9676E-01
601.42	4.0616E-01
601.76	4.0278E-01
602.09	4.0094E-01
602.42	3.9990E-01
602.76	3.9998E-01
603.09	4.0053E-01
603.42	4.0376E-01
603.76	4.0125E-01
604.09	4.0341E-01
604.42	4.0314E-01
604.76	4.0079E-01
605.09	4.0607E-01
605.42	4.0254E-01
605.75	4.0503E-01
606.09	4.0728E-01
606.42	4.0638E-01
606.75	4.0922E-01
607.09	4.0630E-01
607.42	4.0539E-01
607.75	4.0712E-01
608.08	4.0814E-01
608.42	4.1062E-01
608.75	4.0796E-01
609.08	4.1178E-01
609.41	4.0966E-01
609.75	4.0797E-01
610.08	4.1168E-01
610.41	4.1169E-01
610.74	4.1167E-01
611.07	4.1239E-01
611.41	4.0774E-01
611.74	4.1218E-01
612.07	4.1039E-01
612.40	4.0824E-01
612.73	4.1206E-01
613.07	4.1711E-01
613.40	4.1094E-01
613.73	4.1051E-01
614.06	4.1489E-01
614.39	4.1246E-01
614.72	4.1715E-01
615.06	4.1536E-01
615.39	4.1953E-01
615.72	4.1527E-01
616.05	4.2033E-01
616.38	4.2072E-01
616.71	4.1851E-01
617.05	4.1611E-01
617.38	4.2069E-01
617.71	4.1944E-01
618.04	4.1960E-01
618.37	4.1520E-01
618.70	4.1933E-01
619.03	4.1965E-01
619.36	4.1285E-01
619.69	4.2131E-01
620.03	4.1802E-01
620.36	4.1830E-01
620.69	4.1799E-01
621.02	4.1659E-01
621.35	4.1714E-01
621.68	4.1564E-01
622.01	4.1829E-01
622.34	4.1718E-01
622.67	4.1768E-01
623.00	4.1705E-01
623.33	4.1589E-01
623.66	4.1787E-01
623.99	4.1981E-01
624.32	4.1350E-01
624.65	4.1607E-01
624.99	4.1579E-01
625.32	4.2096E-01
625.65	4.1791E-01
625.98	4.1384E-01
626.31	4.1677E-01
626.64	4.2029E-01
626.97	4.1857E-01
627.30	4.1525E-01
627.63	4.1434E-01
627.96	4.1334E-01
628.29	4.1486E-01
628.62	4.1771E-01
628.95	4.1749E-01
629.28	4.1304E-01
629.61	4.2263E-01
629.94	4.1965E-01
630.26	4.2141E-01
630.59	4.2172E-01
630.92	4.2039E-01
631.25	4.2008E-01
631.58	4.2757E-01
631.91	4.2203E-01
632.24	4.2686E-01
632.57	4.2593E-01
632.90	4.2710E-01
633.23	4.2495E-01
633.56	4.2827E-01
633.89	4.2792E-01
634.22	4.2967E-01
634.55	4.3026E-01
634.88	4.3376E-01
635.20	4.3477E-01
635.53	4.3939E-01
635.86	4.3610E-01
636.19	4.4249E-01
636.52	4.4266E-01
636.85	4.4297E-01
637.18	4.4687E-01
637.51	4.4609E-01
637.83	4.4958E-01
638.16	4.4817E-01
638.49	4.5575E-01
638.82	4.5026E-01
639.15	4.5791E-01
639.48	4.5780E-01
639.81	4.6473E-01
640.13	4.5989E-01
640.46	4.6866E-01
640.79	4.6494E-01
641.12	4.7086E-01
641.45	4.6704E-01
641.77	4.6716E-01
642.10	4.7910E-01
642.43	4.8065E-01
642.76	4.8430E-01
643.09	4.7927E-01
643.41	4.8358E-01
643.74	4.8352E-01
644.07	4.8644E-01
644.40	4.8582E-01
644.73	4.9381E-01
645.05	4.9363E-01
645.38	4.9228E-01
645.71	5.0007E-01
646.04	4.9881E-01
646.36	4.9825E-01
646.69	5.0749E-01
647.02	5.0907E-01
647.35	5.0393E-01
647.67	5.1207E-01
648.00	5.1003E-01
648.33	5.1420E-01
648.66	5.1197E-01
648.98	5.1894E-01
649.31	5.1564E-01
649.64	5.1828E-01
649.96	5.2215E-01
650.29	5.2987E-01
650.62	5.2605E-01
650.94	5.2620E-01
651.27	5.2909E-01
651.60	5.2634E-01
651.92	5.3699E-01
652.25	5.4087E-01
652.58	5.3881E-01
652.90	5.3831E-01
653.23	5.3926E-01
653.56	5.4210E-01
653.88	5.4568E-01
654.21	5.4414E-01
654.54	5.4812E-01
654.86	5.5423E-01
655.19	5.5138E-01
655.52	5.5672E-01
655.84	5.5094E-01
656.17	5.5841E-01
656.49	5.5828E-01
656.82	5.5543E-01
657.15	5.6193E-01
657.47	5.6353E-01
657.80	5.6561E-01
658.13	5.6423E-01
658.45	5.6673E-01
658.78	5.6778E-01
659.10	5.7256E-01
659.43	5.7021E-01
659.75	5.7271E-01
660.08	5.7078E-01
660.41	5.8209E-01
660.73	5.7853E-01
661.06	5.7816E-01
661.38	5.8176E-01
661.71	5.8537E-01
662.03	5.8231E-01
662.36	5.8966E-01
662.68	5.8568E-01
663.01	5.8093E-01
663.33	5.8960E-01
663.66	5.9181E-01
663.98	5.9034E-01
664.31	5.9174E-01
664.63	6.0423E-01
664.96	5.8968E-01
665.28	5.9689E-01
665.61	5.9910E-01
665.93	5.9963E-01
666.26	5.9872E-01
666.58	6.0416E-01
666.91	6.0475E-01
667.23	6.1091E-01
667.56	6.0539E-01
667.88	6.0863E-01
668.21	6.1247E-01
668.53	6.0987E-01
668.86	6.1708E-01
669.18	6.1248E-01
669.50	6.2080E-01
669.83	6.1483E-01
670.15	6.2014E-01
670.48	6.2126E-01
670.80	6.2052E-01
671.13	6.2053E-01
671.45	6.2436E-01
671.77	6.2393E-01
672.10	6.2128E-01
672.42	6.3683E-01
672.75	6.3032E-01
673.07	6.3453E-01
673.39	6.2920E-01
673.72	6.3329E-01
674.04	6.3732E-01
674.37	6.3752E-01
674.69	6.3619E-01
675.01	6.3978E-01
675.34	6.4657E-01
675.66	6.4469E-01
675.98	6.3982E-01
676.31	6.4935E-01
676.63	6.4717E-01
676.95	6.4849E-01
677.28	6.5596E-01
677.60	6.5672E-01
677.92	6.5135E-01
678.25	6.5977E-01
678.57	6.5969E-01
678.89	6.5546E-01
679.22	6.6598E-01
679.54	6.6326E-01
679.86	6.6525E-01
680.18	6.7061E-01
680.51	6.6314E-01
680.83	6.7932E-01
681.15	6.7056E-01
681.48	6.7397E-01
681.80	6.7469E-01
682.12	6.7215E-01
682.44	6.8472E-01
682.77	6.8676E-01
683.09	6.9038E-01
683.41	6.8498E-01
683.73	6.9349E-01
684.06	6.8952E-01
684.38	6.9292E-01
684.70	6.9610E-01
685.02	6.9801E-01
685.34	7.0377E-01
685.67	7.0087E-01
685.99	7.1512E-01
686.31	7.0489E-01
686.63	7.1402E-01
686.96	7.1794E-01
687.28	7.2254E-01
687.60	7.1024E-01
687.92	7.1732E-01
688.24	7.2666E-01
688.56	7.3347E-01
688.89	7.2680E-01
689.21	7.3566E-01
689.53	7.3159E-01
689.85	7.4037E-01
690.17	7.3543E-01
690.49	7.4876E-01
690.82	7.4801E-01
691.14	7.4715E-01
691.46	7.5100E-01
691.78	7.5503E-01
692.10	7.5191E-01
692.42	7.6146E-01
692.74	7.6718E-01
693.06	7.6491E-01
693.39	7.7462E-01
693.71	7.7997E-01
694.03	7.8055E-01
694.35	7.8359E-01
694.67	7.8468E-01
694.99	7.9754E-01
695.31	7.9113E-01
695.63	7.9637E-01
695.95	8.0275E-01
696.27	8.0300E-01
696.59	8.0500E-01
696.91	8.1345E-01
697.23	8.1901E-01
697.56	8.2025E-01
697.88	8.1895E-01
698.20	8.2370E-01
698.52	8.2923E-01
698.84	8.3610E-01
699.16	8.3896E-01
699.48	8.3564E-01
699.80	8.4383E-01
700.12	8.5439E-01
700.44	8.5437E-01
700.76	8.5926E-01
701.08	8.6783E-01
701.40	8.6497E-01
701.72	8.7055E-01
702.04	8.7275E-01
702.36	8.8138E-01
702.68	8.8766E-01
703.00	8.9021E-01
703.32	8.9481E-01
703.64	9.0223E-01
703.96	8.9333E-01
704.28	8.9781E-01
704.60	9.0593E-01
704.91	9.1436E-01
705.23	9.1266E-01
705.55	9.2816E-01
705.87	9.2423E-01
706.19	9.2423E-01
706.51	9.3123E-01
706.83	9.3534E-01
707.15	9.5469E-01
707.47	9.4596E-01
707.79	9.5999E-01
708.11	9.5724E-01
708.43	9.6432E-01
708.74	9.7128E-01
709.06	9.8018E-01
709.38	9.7875E-01
709.70	9.8042E-01
710.02	9.9038E-01
710.34	9.8499E-01
710.66	1.0013E00
710.98	1.0070E00
711.29	1.0113E00
711.61	1.0222E00
711.93	1.0233E00
712.25	1.0194E00
712.57	1.0332E00
712.89	1.0423E00
713.20	1.0403E00
713.52	1.0446E00
713.84	1.0635E00
714.16	1.0542E00
714.48	1.0540E00
714.80	1.0742E00
715.11	1.0728E00
715.43	1.0812E00
715.75	1.0804E00
716.07	1.1095E00
716.39	1.0798E00
716.70	1.0971E00
717.02	1.0910E00
717.34	1.1148E00
717.66	1.1137E00
717.97	1.1158E00
718.29	1.1309E00
718.61	1.1337E00
718.93	1.1501E00
719.24	1.1484E00
719.56	1.1549E00
719.88	1.1673E00
720.20	1.1769E00
720.51	1.1870E00
720.83	1.1806E00
721.15	1.2080E00
721.46	1.2017E00
721.78	1.2149E00
722.10	1.2302E00
722.42	1.2298E00
722.73	1.2432E00
723.05	1.2412E00
723.37	1.2524E00
723.68	1.2807E00
724.00	1.2637E00
724.32	1.2848E00
724.63	1.2721E00
724.95	1.2831E00
725.27	1.2884E00
725.58	1.2948E00
725.90	1.2889E00
726.22	1.3099E00
726.53	1.3003E00
726.85	1.3078E00
727.16	1.3170E00
727.48	1.3212E00
727.80	1.3253E00
728.11	1.3370E00
728.43	1.3233E00
728.74	1.3240E00
729.06	1.3528E00
729.38	1.3494E00
729.69	1.3518E00
730.01	1.3617E00
730.32	1.3729E00
730.64	1.3706E00
730.96	1.3537E00
731.27	1.3898E00
731.59	1.3693E00
731.90	1.3677E00
732.22	1.3788E00
732.53	1.3963E00
732.85	1.4112E00
733.16	1.3988E00
733.48	1.3928E00
733.80	1.3888E00
734.11	1.4168E00
734.43	1.4392E00
734.74	1.4260E00
735.06	1.4398E00
735.37	1.4352E00
735.69	1.4415E00
736.00	1.4481E00
736.32	1.4464E00
736.63	1.4621E00
736.95	1.4704E00
737.26	1.4896E00
737.58	1.4786E00
737.89	1.4831E00
738.21	1.4776E00
738.52	1.4887E00
738.83	1.5095E00
739.15	1.4936E00
739.46	1.5185E00
739.78	1.5076E00
740.09	1.5169E00
740.41	1.5188E00
740.72	1.5174E00
741.04	1.5193E00
741.35	1.5287E00
741.66	1.5479E00
741.98	1.5361E00
742.29	1.5437E00
742.61	1.5553E00
742.92	1.5341E00
743.23	1.5474E00
743.55	1.5604E00
743.86	1.5496E00
744.18	1.5578E00
744.49	1.5459E00
744.80	1.5423E00
745.12	1.5468E00
745.43	1.5647E00
745.74	1.5617E00
746.06	1.5523E00
746.37	1.5516E00
746.68	1.5550E00
747.00	1.5607E00
747.31	1.5566E00
747.62	1.5468E00
747.94	1.5557E00
748.25	1.5545E00
748.56	1.5594E00
748.88	1.5481E00
749.19	1.5629E00
749.50	1.5529E00
749.82	1.5631E00
750.13	1.5587E00
750.44	1.5568E00
750.75	1.5448E00
751.07	1.5540E00
751.38	1.5765E00
751.69	1.5570E00
752.01	1.5795E00
752.32	1.5717E00
752.63	1.5569E00
752.94	1.5626E00
753.26	1.5645E00
753.57	1.5640E00
753.88	1.5808E00
754.19	1.5685E00
754.51	1.5822E00
754.82	1.5703E00
755.13	1.6021E00
755.44	1.5844E00
755.75	1.5922E00
756.07	1.6072E00
756.38	1.6170E00
756.69	1.6085E00
757.00	1.6318E00
757.31	1.6365E00
757.63	1.6387E00
757.94	1.6480E00
758.25	1.6645E00
758.56	1.6355E00
758.87	1.6740E00
759.18	1.6756E00
759.50	1.6688E00
759.81	1.6767E00
760.12	1.7005E00
760.43	1.7267E00
760.74	1.1701E00
761.05	8.2347E-01
761.36	8.8977E-01
761.67	1.0777E00
761.99	1.2254E00
762.30	1.3255E00
762.61	1.3175E00
762.92	1.2623E00
763.23	1.2564E00
763.54	1.2445E00
763.85	1.2837E00
764.16	1.3157E00
764.47	1.5107E00
764.78	1.4529E00
765.10	1.6063E00
765.41	1.6389E00
765.72	1.7763E00
766.03	1.7954E00
766.34	1.8522E00
766.65	1.9338E00
766.96	2.0016E00
767.27	2.0057E00
767.58	1.9926E00
767.89	2.0065E00
768.20	2.0500E00
768.51	2.0458E00
768.82	2.0405E00
769.13	2.0484E00
769.44	2.1014E00
769.75	2.0968E00
770.06	2.0985E00
770.37	2.1054E00
770.68	2.1364E00
770.99	2.1749E00
771.30	2.1916E00
771.61	2.2372E00
771.92	2.2176E00
772.23	2.2327E00
772.54	2.2622E00
772.85	2.2681E00
773.16	2.3043E00
773.47	2.3442E00
773.78	2.3451E00
774.09	2.3534E00
774.39	2.3764E00
774.70	2.3743E00
775.01	2.4413E00
775.32	2.4509E00
775.63	2.4588E00
775.94	2.4791E00
776.25	2.4672E00
776.56	2.5252E00
776.87	2.5741E00
777.18	2.5693E00
777.48	2.6103E00
777.79	2.6342E00
778.10	2.6590E00
778.41	2.6821E00
778.72	2.6926E00
779.03	2.6899E00
779.34	2.7502E00
779.65	2.7553E00
779.95	2.7625E00
780.26	2.8161E00
780.57	2.8138E00
780.88	2.8222E00
781.19	2.8760E00
781.50	2.8625E00
781.80	2.9232E00
782.11	2.9518E00
782.42	2.9643E00
782.73	2.9778E00
783.04	3.0604E00
783.34	3.0767E00
783.65	3.1236E00
783.96	3.0877E00
784.27	3.1101E00
784.57	3.1073E00
784.88	3.0094E00
785.19	3.0306E00
785.50	2.9438E00
785.81	2.9171E00
786.11	2.9113E00
786.42	2.9132E00
786.73	2.9553E00
787.04	3.0094E00
787.34	2.8950E00
787.65	2.8752E00
787.96	2.9112E00
788.26	2.9345E00
788.57	2.9274E00
788.88	2.8776E00
789.19	2.8126E00
789.49	2.8612E00
789.80	2.9357E00
790.11	2.8918E00
790.41	2.8714E00
790.72	2.9417E00
791.03	2.8807E00
791.33	2.8951E00
791.64	2.8712E00
791.95	2.9362E00
792.25	2.9536E00
792.56	2.9708E00
792.87	3.0367E00
793.17	2.9400E00
793.48	2.9914E00
793.79	3.0675E00
794.09	3.0461E00
794.40	3.1176E00
794.70	3.0623E00
795.01	3.1783E00
795.32	3.0783E00
795.62	3.1389E00
795.93	3.0367E00
796.23	3.0372E00
796.54	3.0108E00
796.85	3.0337E00
797.15	3.0434E00
797.46	3.0932E00
797.76	3.0970E00
798.07	3.2220E00
798.37	3.2018E00
798.68	3.2085E00
798.99	3.2359E00
799.29	3.2068E00
799.60	3.2609E00
799.90	3.1983E00
800.21	3.1422E00
800.51	3.1156E00
800.82	3.2569E00
801.12	3.1952E00
801.43	3.2523E00
801.73	3.1693E00
802.04	3.1643E00
802.34	3.1523E00
802.65	3.1909E00
802.95	3.2013E00
803.26	3.1855E00
803.56	3.1879E00
803.87	3.1791E00
804.17	3.1723E00
804.48	3.2406E00
804.78	3.2389E00
805.09	3.2176E00
805.39	3.2992E00
805.70	3.3660E00
806.00	3.3046E00
806.30	3.3439E00
806.61	3.3462E00
806.91	3.3663E00
807.22	3.3749E00
807.52	3.4637E00
807.83	3.3515E00
808.13	3.3992E00
808.43	3.3848E00
808.74	3.4062E00
809.04	3.3060E00
809.35	3.2419E00
809.65	3.3054E00
809.95	3.2744E00
810.26	3.1974E00
810.56	3.1882E00
810.86	3.2187E00
811.17	3.1675E00
811.47	3.1532E00
811.77	3.0325E00
812.08	3.0582E00
812.38	3.0002E00
812.69	2.9528E00
812.99	2.9181E00
813.29	2.7954E00
813.59	2.7103E00
813.90	2.6669E00
814.20	2.6370E00
814.50	2.5805E00
814.81	2.4972E00
815.11	2.4523E00
815.41	2.3694E00
815.72	2.3161E00
816.02	2.2467E00
816.32	2.1727E00
816.62	2.1355E00
816.93	2.1965E00
817.23	2.1473E00
817.53	2.1389E00
817.84	2.1963E00
818.14	2.1247E00
818.44	2.1750E00
818.74	2.2449E00
819.04	2.2141E00
819.35	2.2115E00
819.65	2.1920E00
819.95	2.2394E00
820.25	2.2899E00
820.56	2.3533E00
820.86	2.4096E00
821.16	2.5719E00
821.46	2.4993E00
821.76	2.4602E00
822.07	2.5598E00
822.37	2.4372E00
822.67	2.4745E00
822.97	2.2956E00
823.27	2.0623E00
823.57	1.9124E00
823.88	1.9898E00
824.18	2.0049E00
824.48	2.0226E00
824.78	2.0954E00
825.08	2.2609E00
825.38	2.2517E00
825.69	2.1786E00
825.99	2.2051E00
826.29	2.1741E00
826.59	2.1884E00
826.89	2.1845E00
827.19	2.3674E00
827.49	2.1619E00
827.79	2.0150E00
828.09	1.9621E00
828.39	1.9096E00
828.70	1.8484E00
829.00	1.9399E00
829.30	1.8416E00
829.60	1.7655E00
829.90	1.8566E00
830.20	1.7539E00
830.50	1.6983E00
830.80	1.7496E00
831.10	1.6801E00
831.40	1.7151E00
831.70	1.6998E00
832.00	1.6662E00
832.30	1.5969E00
832.60	1.5469E00
832.90	1.5541E00
833.20	1.5518E00
833.50	1.5288E00
833.80	1.5075E00
834.10	1.5144E00
834.40	1.5885E00
834.70	1.5496E00
835.00	1.5081E00
835.30	1.5027E00
835.60	1.5255E00
835.90	1.5111E00
836.20	1.5289E00
836.50	1.5334E00
836.80	1.7294E00
837.10	2.1075E00
837.40	1.5573E00
837.70	1.7135E00
838.00	1.5204E00
838.30	1.6025E00
838.60	1.6085E00
838.90	1.5771E00
839.19	1.9285E00
839.49	1.5266E00
839.79	1.6199E00
840.09	1.4972E00
840.39	1.6377E00
840.69	1.6235E00
840.99	1.8243E00
841.29	1.6243E00
841.59	1.5042E00
841.88	1.5235E00
842.18	1.5816E00
842.48	1.5199E00
842.78	1.5207E00
843.08	1.5554E00
843.38	1.5593E00
843.68	1.7632E00
843.97	1.7180E00
844.27	1.5515E00
844.57	1.4939E00
844.87	1.5077E00
845.17	1.5419E00
845.47	1.5280E00
845.76	1.6005E00
846.06	1.6528E00
846.36	2.2006E00
846.66	1.5028E00
846.96	1.5932E00
847.25	1.5406E00
847.55	1.4876E00
847.85	1.5626E00
848.15	1.5176E00
848.44	1.4708E00
848.74	1.4995E00
849.04	1.5028E00
849.34	1.6187E00
849.63	1.4772E00
849.93	1.4595E00
850.23	1.4635E00
850.53	1.4377E00
850.82	1.4496E00
851.12	1.4715E00
851.42	1.5501E00
851.71	1.4815E00
852.01	1.4500E00
852.31	1.4866E00
852.61	1.4002E00
852.90	1.4355E00
853.20	1.5376E00
853.50	1.8710E00
853.79	1.7051E00
854.09	1.4024E00
854.39	1.3847E00
854.68	1.3660E00
854.98	1.3061E00
855.28	1.4020E00
855.57	1.6456E00
855.87	1.4538E00
856.17	1.5033E00
856.46	1.3537E00
856.76	1.3713E00
857.05	1.5403E00
857.35	1.3665E00
857.65	1.7169E00
857.94	1.5708E00
858.24	1.6071E00
858.53	1.4369E00
858.83	2.1241E00
859.13	1.5055E00
859.42	1.4914E00
859.72	1.6052E00
860.01	1.4658E00
860.31	1.4812E00
860.60	1.4731E00
860.90	1.6192E00
861.20	1.5002E00
861.49	1.4294E00
861.79	1.5073E00
862.08	2.7490E00
862.38	1.8375E00
862.67	1.4864E00
862.97	1.4430E00
863.26	1.5210E00
863.56	1.7095E00
863.85	1.8724E00
864.15	1.4973E00
864.44	1.4690E00
864.74	1.4862E00
865.03	1.8483E00
865.33	1.7013E00
865.62	1.5191E00
865.92	1.4996E00
866.21	1.5575E00
866.51	1.4951E00
866.80	1.7236E00
867.10	1.8658E00
867.39	1.6489E00
867.69	1.8293E00
867.98	1.4097E00
868.27	1.4386E00
868.57	1.3970E00
868.86	1.6961E00
869.16	1.4006E00
869.45	1.4252E00
869.75	1.4835E00
870.04	1.4117E00
870.33	1.7209E00
870.63	1.4774E00
870.92	1.4509E00
871.22	2.7103E00
871.51	1.5740E00
871.80	1.7126E00
872.10	1.7126E00
>>>>>End Processed Spectral Data<<<<<
