SpectraSuite Data File
++++++++++++++++++++++++++++++++++++
Date: Wed May 13 16:48:00 PDT 2015
User: schluterlab
Dark Spectrum Present: Yes
Reference Spectrum Present: Yes
Number of Sampled Component Spectra: 1
Spectrometers: USB2E3373
Integration Time (usec): 3000 (USB2E3373)
Spectra Averaged: 3 (USB2E3373)
Boxcar Smoothing: 0 (USB2E3373)
Correct for Electrical Dark: No (USB2E3373)
Strobe/Lamp Enabled: No (USB2E3373)
Correct for Detector Non-linearity: No (USB2E3373)
Correct for Stray Light: No (USB2E3373)
Number of Pixels in Processed Spectrum: 2048
>>>>>Begin Processed Spectral Data<<<<<
178.53	0.000
178.91	-1425.000
179.29	-1275.000
179.67	-183.333
180.04	-975.000
180.42	2150.000
180.80	1060.000
181.18	-1225.000
181.56	585.714
181.94	0.000
182.31	-571.429
182.69	1900.000
183.07	-700.000
183.45	-388.889
183.83	490.909
184.20	-380.000
184.58	1950.000
184.96	5300.000
185.34	-780.000
185.72	-712.500
186.09	-2100.000
186.47	2650.000
186.85	2500.000
187.23	4800.000
187.61	-1800.000
187.98	1200.000
188.36	527.273
188.74	463.636
189.12	-1020.000
189.49	570.000
189.87	-4800.000
190.25	-1200.000
190.63	400.000
191.00	415.385
191.38	766.667
191.76	-1150.000
192.14	1225.000
192.51	687.500
192.89	866.667
193.27	537.500
193.65	-1100.000
194.02	420.000
194.40	960.000
194.78	490.000
195.15	533.333
195.53	510.000
195.91	-1550.000
196.29	231.250
196.66	310.526
197.04	-320.000
197.42	0.000
197.79	620.000
198.17	-4900.000
198.55	742.857
198.92	612.500
199.30	960.000
199.68	0.000
200.05	311.111
200.43	814.286
200.81	4900.000
201.18	1433.333
201.56	-1400.000
201.94	455.556
202.31	611.111
202.69	366.667
203.07	530.000
203.44	0.000
203.82	1150.000
204.19	814.286
204.57	428.571
204.95	650.000
205.32	1533.333
205.70	472.727
206.08	350.000
206.45	2400.000
206.83	312.500
207.20	833.333
207.58	880.000
207.96	277.778
208.33	650.000
208.71	-800.000
209.08	742.857
209.46	522.222
209.84	500.000
210.21	-1433.333
210.59	1375.000
210.96	-475.000
211.34	2500.000
211.71	540.000
212.09	683.333
212.46	0.000
212.84	1700.000
213.22	1450.000
213.59	-3900.000
213.97	716.667
214.34	785.714
214.72	590.909
215.09	900.000
215.47	-1950.000
215.84	-2250.000
216.22	1566.667
216.59	400.000
216.97	1425.000
217.34	454.545
217.72	-683.333
218.09	0.000
218.47	-4800.000
218.84	611.111
219.22	771.429
219.59	1466.667
219.97	-614.286
220.34	1040.000
220.72	-1833.333
221.09	385.714
221.47	1450.000
221.84	-766.667
222.22	0.000
222.59	1225.000
222.97	-2400.000
223.34	1100.000
223.72	423.077
224.09	1160.000
224.46	2000.000
224.84	-4400.000
225.21	-980.000
225.59	-5300.000
225.96	570.000
226.34	260.000
226.71	2650.000
227.08	625.000
227.46	530.000
227.83	-925.000
228.21	-2150.000
228.58	488.889
228.95	-1850.000
229.33	-2500.000
229.70	1466.667
230.08	742.857
230.45	-640.000
230.82	416.667
231.20	700.000
231.57	671.429
231.95	450.000
232.32	177.273
232.69	427.273
233.07	671.429
233.44	400.000
233.81	-1466.667
234.19	273.684
234.56	458.333
234.93	350.000
235.31	390.909
235.68	215.385
236.05	271.429
236.43	151.515
236.80	305.263
237.17	3800.000
237.55	219.048
237.92	175.000
238.29	166.667
238.67	145.161
239.04	172.414
239.41	125.000
239.79	102.174
240.16	111.905
240.53	113.636
240.91	74.510
241.28	96.000
241.65	68.000
242.02	78.261
242.40	85.484
242.77	75.000
243.14	60.215
243.51	61.798
243.89	51.765
244.26	43.333
244.63	44.086
245.00	41.489
245.38	47.525
245.75	32.710
246.12	34.862
246.49	42.336
246.87	44.800
247.24	36.923
247.61	35.000
247.98	32.680
248.36	24.324
248.73	24.204
249.10	33.758
249.47	29.379
249.84	31.016
250.22	15.508
250.59	24.852
250.96	27.273
251.33	25.592
251.70	30.198
252.08	24.286
252.45	17.040
252.82	20.000
253.19	19.149
253.56	20.392
253.94	26.141
254.31	21.875
254.68	20.385
255.05	19.188
255.42	13.008
255.79	18.382
256.16	18.051
256.54	15.548
256.91	21.708
257.28	14.748
257.65	16.172
258.02	18.323
258.39	16.088
258.76	18.729
259.14	17.262
259.51	15.805
259.88	13.975
260.25	16.012
260.62	14.740
260.99	11.180
261.36	14.114
261.73	13.754
262.10	11.047
262.47	14.366
262.85	11.142
263.22	12.251
263.59	15.954
263.96	12.912
264.33	14.099
264.70	13.947
265.07	16.368
265.44	10.354
265.81	10.706
266.18	12.563
266.55	12.927
266.92	10.811
267.29	12.500
267.66	12.844
268.03	10.682
268.40	12.850
268.77	9.785
269.14	12.387
269.51	12.415
269.88	13.287
270.25	12.641
270.62	11.011
270.99	12.258
271.36	11.588
271.73	9.579
272.10	8.913
272.47	13.978
272.84	11.255
273.21	11.950
273.58	9.607
273.95	9.853
274.32	10.331
274.69	8.994
275.06	11.024
275.43	10.213
275.80	9.820
276.17	9.776
276.54	11.019
276.91	9.486
277.28	9.570
277.65	8.897
278.02	8.696
278.39	11.328
278.76	10.364
279.13	11.132
279.50	11.546
279.87	9.960
280.23	8.583
280.60	7.350
280.97	8.133
281.34	10.796
281.71	10.182
282.08	8.829
282.45	8.364
282.82	7.460
283.19	5.882
283.56	7.895
283.92	8.629
284.29	7.231
284.66	6.534
285.03	7.233
285.40	8.803
285.77	7.744
286.14	8.981
286.51	9.833
286.87	8.205
287.24	10.261
287.61	9.631
287.98	8.279
288.35	8.875
288.72	8.255
289.08	7.981
289.45	6.425
289.82	7.154
290.19	6.593
290.56	7.198
290.93	7.855
291.29	7.362
291.66	7.375
292.03	10.029
292.40	7.636
292.77	7.840
293.13	7.761
293.50	7.872
293.87	7.407
294.24	5.926
294.60	5.677
294.97	6.831
295.34	8.181
295.71	7.528
296.08	6.838
296.44	7.153
296.81	6.473
297.18	8.266
297.55	4.881
297.91	4.354
298.28	7.898
298.65	7.702
299.02	7.246
299.38	5.843
299.75	4.582
300.12	5.236
300.48	5.750
300.85	6.289
301.22	5.732
301.59	5.177
301.95	6.423
302.32	6.033
302.69	6.691
303.05	5.091
303.42	5.802
303.79	5.436
304.15	4.662
304.52	4.287
304.89	6.969
305.25	6.497
305.62	5.549
305.99	6.257
306.35	6.152
306.72	5.493
307.09	6.215
307.45	6.757
307.82	4.129
308.19	6.181
308.55	6.041
308.92	5.800
309.29	5.385
309.65	5.302
310.02	5.074
310.38	5.484
310.75	5.280
311.12	5.629
311.48	5.956
311.85	6.918
312.22	6.035
312.58	5.613
312.95	7.392
313.31	5.049
313.68	5.509
314.05	7.594
314.41	4.925
314.78	5.438
315.14	5.462
315.51	5.767
315.87	6.337
316.24	5.760
316.61	6.335
316.97	5.479
317.34	3.523
317.70	5.545
318.07	6.449
318.43	5.577
318.80	6.373
319.16	6.968
319.53	6.285
319.89	7.143
320.26	6.500
320.62	6.647
320.99	6.061
321.35	5.758
321.72	6.776
322.08	6.219
322.45	7.164
322.81	6.977
323.18	6.069
323.54	6.679
323.91	6.981
324.27	5.258
324.64	4.660
325.00	6.312
325.37	7.643
325.73	5.925
326.10	5.914
326.46	5.376
326.83	7.852
327.19	7.003
327.56	6.272
327.92	6.212
328.29	7.010
328.65	7.182
329.01	6.047
329.38	6.846
329.74	6.279
330.11	7.163
330.47	6.520
330.84	7.261
331.20	6.375
331.56	6.697
331.93	5.833
332.29	7.187
332.66	7.345
333.02	6.216
333.38	6.323
333.75	7.665
334.11	6.673
334.48	6.477
334.84	6.710
335.20	7.273
335.57	5.984
335.93	6.071
336.29	5.952
336.66	7.574
337.02	5.792
337.38	7.037
337.75	5.526
338.11	7.073
338.47	5.801
338.84	5.958
339.20	5.505
339.56	7.026
339.93	5.364
340.29	5.616
340.65	6.506
341.02	6.545
341.38	6.762
341.74	5.614
342.11	7.074
342.47	5.551
342.83	6.507
343.20	6.494
343.56	6.066
343.92	6.404
344.28	6.803
344.65	7.051
345.01	6.313
345.37	4.889
345.73	5.499
346.10	5.627
346.46	6.441
346.82	6.096
347.19	5.430
347.55	6.650
347.91	6.392
348.27	6.984
348.63	5.602
349.00	5.987
349.36	6.486
349.72	5.694
350.08	5.997
350.45	7.242
350.81	5.686
351.17	6.645
351.53	5.487
351.89	5.446
352.26	7.340
352.62	6.095
352.98	5.835
353.34	5.752
353.70	4.828
354.07	5.565
354.43	5.873
354.79	5.792
355.15	5.986
355.51	6.155
355.87	5.388
356.24	5.700
356.60	5.694
356.96	6.034
357.32	5.724
357.68	6.142
358.04	5.305
358.40	7.047
358.77	5.321
359.13	5.919
359.49	5.647
359.85	4.127
360.21	4.944
360.57	5.447
360.93	5.846
361.29	5.291
361.66	5.341
362.02	6.866
362.38	5.247
362.74	5.804
363.10	4.367
363.46	5.209
363.82	5.593
364.18	5.874
364.54	6.538
364.90	6.091
365.26	5.294
365.62	5.771
365.98	4.967
366.35	5.372
366.71	5.929
367.07	4.661
367.43	5.660
367.79	6.495
368.15	6.537
368.51	4.869
368.87	5.496
369.23	6.437
369.59	5.214
369.95	5.515
370.31	6.054
370.67	6.304
371.03	5.693
371.39	5.758
371.75	5.000
372.11	5.619
372.47	6.085
372.83	7.061
373.19	5.780
373.55	5.913
373.91	6.627
374.27	5.773
374.63	5.455
374.99	6.285
375.35	5.094
375.71	6.032
376.07	5.624
376.42	6.121
376.78	6.296
377.14	5.970
377.50	5.695
377.86	5.918
378.22	6.131
378.58	5.639
378.94	6.034
379.30	4.962
379.66	6.091
380.02	5.713
380.38	5.586
380.74	5.402
381.09	5.807
381.45	5.900
381.81	6.327
382.17	6.433
382.53	6.541
382.89	6.049
383.25	5.754
383.61	6.568
383.97	6.004
384.32	7.049
384.68	5.948
385.04	5.839
385.40	5.759
385.76	5.713
386.12	6.088
386.48	6.608
386.83	6.799
387.19	6.555
387.55	6.555
387.91	4.958
388.27	6.009
388.62	7.007
388.98	6.634
389.34	6.696
389.70	6.622
390.06	6.971
390.42	6.874
390.77	7.697
391.13	5.999
391.49	6.980
391.85	6.747
392.20	5.489
392.56	6.250
392.92	6.651
393.28	4.970
393.64	6.055
393.99	6.842
394.35	6.328
394.71	6.713
395.07	5.981
395.42	6.057
395.78	7.125
396.14	6.580
396.50	6.955
396.85	6.866
397.21	5.919
397.57	6.820
397.92	5.950
398.28	5.661
398.64	6.511
399.00	5.876
399.35	5.640
399.71	6.539
400.07	6.446
400.42	6.748
400.78	7.057
401.14	6.098
401.49	6.269
401.85	6.352
402.21	5.329
402.57	6.292
402.92	6.242
403.28	6.621
403.63	5.569
403.99	5.924
404.35	6.727
404.70	5.635
405.06	6.523
405.42	6.114
405.77	6.229
406.13	5.813
406.49	5.736
406.84	6.379
407.20	6.087
407.55	5.935
407.91	6.600
408.27	5.743
408.62	5.960
408.98	6.005
409.34	6.273
409.69	6.581
410.05	6.320
410.40	6.300
410.76	5.735
411.11	6.574
411.47	6.326
411.83	6.414
412.18	6.061
412.54	5.791
412.89	6.566
413.25	6.021
413.60	5.744
413.96	5.889
414.31	6.440
414.67	6.971
415.03	5.960
415.38	6.894
415.74	6.045
416.09	6.924
416.45	5.689
416.80	5.948
417.16	6.501
417.51	6.835
417.87	6.230
418.22	6.498
418.58	6.585
418.93	6.880
419.29	6.556
419.64	6.927
420.00	6.829
420.35	6.377
420.71	6.396
421.06	5.668
421.42	6.667
421.77	6.558
422.12	6.176
422.48	4.641
422.83	5.824
423.19	6.022
423.54	6.036
423.90	6.145
424.25	6.644
424.61	6.786
424.96	5.948
425.31	6.423
425.67	5.899
426.02	6.229
426.38	6.227
426.73	5.968
427.09	6.322
427.44	5.865
427.79	6.038
428.15	6.310
428.50	6.085
428.85	7.092
429.21	5.908
429.56	5.391
429.92	5.637
430.27	4.965
430.62	5.632
430.98	5.760
431.33	6.186
431.68	5.916
432.04	6.230
432.39	5.540
432.74	6.104
433.10	5.659
433.45	6.122
433.80	5.599
434.16	6.197
434.51	5.737
434.86	5.929
435.22	5.058
435.57	6.201
435.92	5.500
436.28	6.168
436.63	6.512
436.98	5.209
437.34	6.500
437.69	6.184
438.04	5.340
438.39	6.388
438.75	6.392
439.10	6.145
439.45	5.962
439.81	5.680
440.16	5.534
440.51	5.858
440.86	5.964
441.22	5.673
441.57	5.573
441.92	6.039
442.27	6.136
442.63	5.213
442.98	6.254
443.33	6.250
443.68	5.834
444.03	5.368
444.39	5.063
444.74	5.844
445.09	6.146
445.44	5.522
445.79	5.690
446.15	5.929
446.50	5.385
446.85	5.190
447.20	5.966
447.55	5.416
447.91	6.012
448.26	5.954
448.61	5.709
448.96	6.035
449.31	5.906
449.66	5.853
450.02	5.404
450.37	6.293
450.72	5.753
451.07	5.180
451.42	5.897
451.77	6.694
452.12	5.543
452.47	5.597
452.83	5.594
453.18	6.235
453.53	6.803
453.88	5.907
454.23	6.635
454.58	6.784
454.93	6.167
455.28	5.860
455.63	5.340
455.98	6.905
456.34	6.407
456.69	6.763
457.04	6.749
457.39	6.020
457.74	6.094
458.09	6.325
458.44	5.473
458.79	5.694
459.14	6.321
459.49	6.188
459.84	5.374
460.19	6.128
460.54	6.076
460.89	6.199
461.24	6.072
461.59	6.392
461.94	5.610
462.29	6.172
462.64	5.935
462.99	6.441
463.34	6.600
463.69	5.691
464.04	6.261
464.39	6.551
464.74	6.061
465.09	5.730
465.44	5.817
465.79	5.705
466.14	5.692
466.49	5.895
466.84	6.188
467.19	6.035
467.54	6.937
467.89	6.182
468.24	5.992
468.59	6.166
468.94	5.742
469.29	5.784
469.64	7.095
469.99	6.766
470.34	5.548
470.68	6.250
471.03	6.667
471.38	6.602
471.73	6.462
472.08	5.855
472.43	6.721
472.78	6.057
473.13	6.290
473.48	6.305
473.83	5.854
474.17	6.036
474.52	5.831
474.87	6.421
475.22	6.268
475.57	5.588
475.92	5.151
476.27	5.806
476.61	5.681
476.96	5.607
477.31	5.965
477.66	5.088
478.01	6.012
478.36	5.711
478.70	5.763
479.05	5.911
479.40	5.783
479.75	5.796
480.10	5.716
480.45	5.616
480.79	5.733
481.14	5.333
481.49	5.173
481.84	5.121
482.19	5.452
482.53	5.917
482.88	5.491
483.23	5.514
483.58	5.732
483.92	6.279
484.27	4.662
484.62	5.000
484.97	5.282
485.31	4.418
485.66	4.130
486.01	3.740
486.36	3.771
486.70	3.605
487.05	4.014
487.40	3.933
487.75	4.436
488.09	4.732
488.44	4.636
488.79	4.919
489.13	5.271
489.48	5.016
489.83	5.136
490.17	5.217
490.52	5.004
490.87	5.246
491.22	4.911
491.56	4.328
491.91	5.305
492.26	5.053
492.60	5.115
492.95	4.724
493.30	5.514
493.64	5.273
493.99	5.432
494.34	4.903
494.68	5.540
495.03	5.169
495.37	5.910
495.72	5.604
496.07	5.893
496.41	4.779
496.76	4.793
497.11	5.403
497.45	5.356
497.80	5.566
498.14	5.217
498.49	5.220
498.84	5.177
499.18	5.810
499.53	5.033
499.87	5.499
500.22	5.370
500.56	5.631
500.91	4.904
501.26	5.311
501.60	5.838
501.95	5.087
502.29	5.670
502.64	4.888
502.98	4.815
503.33	5.256
503.67	4.965
504.02	5.192
504.36	5.803
504.71	5.129
505.06	5.735
505.40	5.882
505.75	5.159
506.09	5.782
506.44	4.884
506.78	5.358
507.13	5.401
507.47	5.101
507.82	5.471
508.16	5.370
508.51	4.668
508.85	5.660
509.19	5.459
509.54	5.663
509.88	5.100
510.23	5.347
510.57	6.089
510.92	5.593
511.26	5.293
511.61	6.172
511.95	5.585
512.30	5.090
512.64	6.072
512.98	5.949
513.33	5.621
513.67	6.083
514.02	4.708
514.36	6.062
514.70	5.921
515.05	5.912
515.39	6.338
515.74	6.250
516.08	5.646
516.42	6.049
516.77	6.466
517.11	5.105
517.46	6.546
517.80	5.807
518.14	4.806
518.49	5.951
518.83	5.966
519.17	6.351
519.52	5.546
519.86	6.332
520.20	6.532
520.55	6.164
520.89	6.204
521.23	6.454
521.58	6.122
521.92	6.736
522.26	5.247
522.61	6.542
522.95	5.893
523.29	5.782
523.64	6.280
523.98	6.223
524.32	6.273
524.66	6.073
525.01	6.373
525.35	5.576
525.69	6.034
526.04	6.667
526.38	6.589
526.72	6.626
527.06	6.591
527.41	5.384
527.75	6.495
528.09	5.973
528.43	7.266
528.78	6.638
529.12	6.242
529.46	6.369
529.80	6.312
530.15	6.854
530.49	6.031
530.83	6.646
531.17	6.984
531.51	6.420
531.86	7.161
532.20	6.714
532.54	7.047
532.88	6.226
533.22	6.496
533.57	6.914
533.91	6.141
534.25	6.501
534.59	5.979
534.93	5.889
535.27	5.673
535.62	6.654
535.96	6.968
536.30	5.594
536.64	6.310
536.98	6.768
537.32	5.925
537.66	6.867
538.01	6.583
538.35	6.464
538.69	6.828
539.03	6.238
539.37	5.687
539.71	5.444
540.05	5.882
540.39	6.445
540.73	6.210
541.07	7.008
541.42	6.067
541.76	6.581
542.10	6.986
542.44	5.828
542.78	7.642
543.12	5.438
543.46	6.689
543.80	6.376
544.14	5.777
544.48	6.857
544.82	6.479
545.16	6.636
545.50	5.463
545.84	6.586
546.18	6.330
546.52	6.951
546.86	5.773
547.20	6.204
547.54	6.613
547.88	6.696
548.22	6.600
548.56	5.597
548.90	6.274
549.24	6.195
549.58	7.503
549.92	6.525
550.26	6.605
550.60	6.155
550.94	6.901
551.28	5.779
551.62	6.039
551.96	5.825
552.30	6.826
552.64	6.153
552.98	6.441
553.32	6.608
553.66	6.885
554.00	5.903
554.34	6.970
554.68	7.439
555.02	6.206
555.36	6.263
555.69	6.428
556.03	6.258
556.37	6.071
556.71	6.685
557.05	6.863
557.39	7.068
557.73	6.704
558.07	6.744
558.41	6.512
558.75	6.539
559.08	7.233
559.42	6.198
559.76	6.765
560.10	6.281
560.44	6.429
560.78	6.188
561.12	6.398
561.45	6.845
561.79	6.658
562.13	5.634
562.47	6.626
562.81	5.649
563.15	6.689
563.48	6.432
563.82	6.067
564.16	5.952
564.50	6.120
564.84	6.131
565.17	5.663
565.51	5.942
565.85	5.774
566.19	5.573
566.52	6.840
566.86	5.546
567.20	5.719
567.54	5.537
567.88	5.269
568.21	6.190
568.55	5.157
568.89	5.253
569.23	5.169
569.56	5.385
569.90	4.679
570.24	4.342
570.57	4.488
570.91	4.525
571.25	4.077
571.59	4.448
571.92	4.119
572.26	4.766
572.60	4.294
572.93	4.138
573.27	4.496
573.61	4.188
573.95	4.522
574.28	3.869
574.62	3.839
574.96	3.871
575.29	4.025
575.63	3.760
575.97	3.983
576.30	4.381
576.64	3.740
576.98	3.865
577.31	3.835
577.65	3.800
577.98	3.458
578.32	3.475
578.66	3.962
578.99	3.812
579.33	3.752
579.67	3.673
580.00	4.124
580.34	4.129
580.67	3.663
581.01	4.093
581.35	3.886
581.68	3.720
582.02	3.586
582.35	3.436
582.69	3.733
583.02	3.746
583.36	3.851
583.70	3.946
584.03	3.631
584.37	4.321
584.70	3.762
585.04	4.183
585.37	4.101
585.71	4.206
586.04	4.156
586.38	3.945
586.72	4.308
587.05	3.912
587.39	3.905
587.72	3.994
588.06	3.629
588.39	4.088
588.73	4.195
589.06	4.425
589.40	4.310
589.73	4.294
590.07	4.733
590.40	4.165
590.73	4.176
591.07	5.128
591.40	4.597
591.74	4.935
592.07	5.061
592.41	4.754
592.74	4.419
593.08	4.730
593.41	4.366
593.75	4.060
594.08	4.358
594.41	4.242
594.75	4.436
595.08	4.617
595.42	4.028
595.75	4.238
596.09	4.769
596.42	4.872
596.75	4.728
597.09	5.368
597.42	4.890
597.75	4.700
598.09	4.739
598.42	4.725
598.76	4.783
599.09	4.523
599.42	4.913
599.76	4.356
600.09	4.481
600.42	4.492
600.76	4.464
601.09	4.189
601.42	4.452
601.76	4.668
602.09	4.585
602.42	4.459
602.76	5.079
603.09	4.957
603.42	4.647
603.76	4.573
604.09	4.537
604.42	4.688
604.76	4.850
605.09	4.806
605.42	4.959
605.75	4.801
606.09	4.270
606.42	4.495
606.75	4.811
607.09	4.939
607.42	4.536
607.75	4.684
608.08	4.386
608.42	4.931
608.75	5.275
609.08	5.088
609.41	4.855
609.75	5.050
610.08	5.231
610.41	4.050
610.74	4.636
611.07	4.792
611.41	4.416
611.74	5.329
612.07	5.642
612.40	5.299
612.73	5.316
613.07	5.065
613.40	5.161
613.73	4.772
614.06	5.108
614.39	5.558
614.72	5.632
615.06	5.777
615.39	4.883
615.72	5.521
616.05	4.625
616.38	5.281
616.71	5.463
617.05	5.595
617.38	5.893
617.71	5.465
618.04	5.589
618.37	5.204
618.70	5.849
619.03	6.645
619.36	6.178
619.69	6.127
620.03	6.250
620.36	7.152
620.69	6.233
621.02	5.678
621.35	5.638
621.68	5.685
622.01	5.263
622.34	6.732
622.67	6.160
623.00	5.576
623.33	5.575
623.66	6.076
623.99	5.081
624.32	6.562
624.65	5.932
624.99	4.745
625.32	6.010
625.65	6.161
625.98	6.149
626.31	7.154
626.64	6.449
626.97	6.983
627.30	6.151
627.63	7.301
627.96	6.644
628.29	7.087
628.62	7.685
628.95	8.019
629.28	8.029
629.61	7.883
629.94	7.333
630.26	6.196
630.59	6.673
630.92	7.184
631.25	6.120
631.58	7.007
631.91	6.592
632.24	6.224
632.57	7.555
632.90	8.004
633.23	8.054
633.56	7.910
633.89	7.928
634.22	8.286
634.55	7.456
634.88	6.946
635.20	8.244
635.53	9.518
635.86	7.921
636.19	7.647
636.52	7.728
636.85	8.477
637.18	7.604
637.51	9.574
637.83	6.658
638.16	8.056
638.49	8.564
638.82	8.470
639.15	7.875
639.48	8.603
639.81	7.105
640.13	9.375
640.46	9.396
640.79	9.247
641.12	8.666
641.45	7.123
641.77	8.100
642.10	9.649
642.43	8.408
642.76	7.740
643.09	8.589
643.41	9.712
643.74	11.111
644.07	9.604
644.40	10.736
644.73	11.339
645.05	9.667
645.38	8.057
645.71	8.374
646.04	8.472
646.36	11.686
646.69	11.371
647.02	10.544
647.35	10.825
647.67	10.442
648.00	11.545
648.33	6.931
648.66	9.242
648.98	10.195
649.31	8.969
649.64	9.417
649.96	9.240
650.29	9.953
650.62	9.385
650.94	11.831
651.27	11.993
651.60	9.817
651.92	9.904
652.25	9.446
652.58	9.657
652.90	11.532
653.23	8.166
653.56	9.921
653.88	9.350
654.21	10.900
654.54	8.581
654.86	9.190
655.19	6.757
655.52	3.885
655.84	2.656
656.17	2.853
656.49	3.784
656.82	3.896
657.15	3.163
657.47	2.376
657.80	1.926
658.13	2.134
658.45	3.343
658.78	3.426
659.10	3.858
659.43	4.493
659.75	4.690
660.08	5.443
660.41	7.635
660.73	10.546
661.06	8.599
661.38	11.636
661.71	10.962
662.03	11.243
662.36	10.736
662.68	12.450
663.01	10.303
663.33	10.828
663.66	11.555
663.98	11.015
664.31	11.555
664.63	12.753
664.96	11.268
665.28	13.730
665.61	10.916
665.93	9.054
666.26	10.142
666.58	10.460
666.91	12.474
667.23	12.360
667.56	11.015
667.88	13.889
668.21	14.712
668.53	11.280
668.86	10.823
669.18	14.499
669.50	14.130
669.83	14.597
670.15	14.444
670.48	10.458
670.80	11.422
671.13	11.890
671.45	11.277
671.77	13.849
672.10	11.645
672.42	9.717
672.75	9.619
673.07	9.331
673.39	10.307
673.72	9.375
674.04	9.608
674.37	10.097
674.69	11.656
675.01	9.414
675.34	14.374
675.66	14.105
675.98	11.202
676.31	14.076
676.63	12.951
676.95	14.046
677.28	10.748
677.60	11.429
677.92	13.502
678.25	12.936
678.57	11.355
678.89	10.822
679.22	12.377
679.54	11.450
679.86	10.826
680.18	12.343
680.51	11.702
680.83	11.210
681.15	11.887
681.48	13.422
681.80	9.478
682.12	10.920
682.44	10.058
682.77	13.238
683.09	14.807
683.41	12.639
683.73	11.479
684.06	12.397
684.38	10.372
684.70	10.659
685.02	12.570
685.34	11.355
685.67	10.664
685.99	8.763
686.31	10.922
686.63	7.774
686.96	10.714
687.28	10.650
687.60	10.145
687.92	11.335
688.24	11.217
688.56	14.056
688.89	11.203
689.21	12.445
689.53	13.570
689.85	13.082
690.17	13.251
690.49	13.376
690.82	12.617
691.14	11.607
691.46	10.759
691.78	10.040
692.10	11.777
692.42	12.575
692.74	10.373
693.06	14.894
693.39	15.400
693.71	12.227
694.03	13.474
694.35	10.173
694.67	12.128
694.99	13.171
695.31	14.951
695.63	14.833
695.95	13.936
696.27	10.406
696.59	13.472
696.91	15.285
697.23	8.216
697.56	14.925
697.88	9.816
698.20	9.792
698.52	12.688
698.84	12.695
699.16	12.903
699.48	13.539
699.80	13.768
700.12	15.065
700.44	14.854
700.76	13.536
701.08	14.943
701.40	14.804
701.72	16.618
702.04	18.182
702.36	12.465
702.68	15.297
703.00	14.958
703.32	13.564
703.64	15.550
703.96	13.649
704.28	14.244
704.60	15.249
704.91	17.804
705.23	17.889
705.55	16.279
705.87	19.601
706.19	15.194
706.51	18.069
706.83	18.182
707.15	14.566
707.47	13.636
707.79	14.251
708.11	15.525
708.43	12.143
708.74	14.286
709.06	16.623
709.38	15.486
709.70	17.733
710.02	17.507
710.34	13.030
710.66	18.209
710.98	17.330
711.29	15.116
711.61	18.289
711.93	15.705
712.25	17.685
712.57	20.221
712.89	16.263
713.20	18.237
713.52	17.105
713.84	15.190
714.16	17.378
714.48	15.517
714.80	16.109
715.11	16.715
715.43	14.837
715.75	15.362
716.07	15.974
716.39	16.928
716.70	15.282
717.02	18.705
717.34	19.788
717.66	18.284
717.97	23.108
718.29	19.630
718.61	19.343
718.93	18.750
719.24	18.339
719.56	18.305
719.88	18.644
720.20	19.932
720.51	21.603
720.83	20.818
721.15	17.537
721.46	18.440
721.78	22.939
722.10	20.755
722.42	20.301
722.73	22.472
723.05	18.443
723.37	19.838
723.68	20.077
724.00	19.106
724.32	22.984
724.63	21.951
724.95	18.410
725.27	23.077
725.58	18.750
725.90	20.438
726.22	16.604
726.53	19.097
726.85	19.454
727.16	19.573
727.48	22.340
727.80	21.212
728.11	20.652
728.43	16.538
728.74	18.280
729.06	21.533
729.38	22.426
729.69	18.505
730.01	18.771
730.32	18.056
730.64	19.064
730.96	16.832
731.27	20.861
731.59	16.820
731.90	18.659
732.22	15.217
732.53	14.551
732.85	16.026
733.16	16.399
733.48	19.269
733.80	18.182
734.11	22.930
734.43	17.751
734.74	12.571
735.06	13.754
735.37	19.364
735.69	15.287
736.00	19.608
736.32	19.626
736.63	17.252
736.95	17.891
737.26	10.204
737.58	15.806
737.89	20.736
738.21	21.843
738.52	19.643
738.83	16.604
739.15	18.846
739.46	23.358
739.78	20.139
740.09	19.077
740.41	18.710
740.72	18.815
741.04	17.407
741.35	19.167
741.66	30.667
741.98	20.283
742.29	26.794
742.61	29.741
742.92	19.005
743.23	20.940
743.55	23.600
743.86	20.614
744.18	25.221
744.49	28.230
744.80	27.230
745.12	30.000
745.43	25.991
745.74	24.324
746.06	25.229
746.37	24.664
746.68	19.457
747.00	29.167
747.31	24.286
747.62	23.009
747.94	18.062
748.25	17.872
748.56	21.586
748.88	19.802
749.19	26.500
749.50	22.326
749.82	18.293
750.13	14.286
750.44	21.898
750.75	18.246
751.07	22.186
751.38	20.906
751.69	18.051
752.01	18.797
752.32	18.051
752.63	23.050
752.94	22.131
753.26	24.400
753.57	20.732
753.88	21.094
754.19	18.571
754.51	20.486
754.82	19.495
755.13	19.623
755.44	20.677
755.75	20.438
756.07	21.277
756.38	17.883
756.69	18.792
757.00	17.365
757.31	17.507
757.63	16.959
757.94	15.013
758.25	15.686
758.56	15.556
758.87	15.323
759.18	18.485
759.50	17.868
759.81	18.692
760.12	15.313
760.43	18.052
760.74	16.304
761.05	16.102
761.36	13.904
761.67	15.341
761.99	17.081
762.30	18.056
762.61	18.321
762.92	22.656
763.23	20.588
763.54	24.400
763.85	17.969
764.16	25.000
764.47	20.913
764.78	17.314
765.10	15.506
765.41	19.174
765.72	17.066
766.03	17.555
766.34	16.667
766.65	25.957
766.96	23.077
767.27	29.442
767.58	25.521
767.89	26.842
768.20	28.736
768.51	24.873
768.82	22.018
769.13	20.732
769.44	19.838
769.75	18.455
770.06	18.349
770.37	23.529
770.68	25.463
770.99	21.778
771.30	18.852
771.61	22.870
771.92	21.311
772.23	27.311
772.54	28.205
772.85	28.796
773.16	29.255
773.47	31.522
773.78	28.934
774.09	24.405
774.39	35.673
774.70	33.333
775.01	38.406
775.32	36.601
775.63	27.632
775.94	29.496
776.25	39.370
776.56	39.552
776.87	43.443
777.18	32.813
777.48	44.275
777.79	46.212
778.10	36.296
778.41	40.179
778.72	32.847
779.03	34.899
779.34	24.161
779.65	32.432
779.95	26.380
780.26	34.641
780.57	40.000
780.88	43.750
781.19	38.346
781.50	47.297
781.80	34.591
782.11	31.638
782.42	30.380
782.73	37.423
783.04	36.486
783.34	39.437
783.65	45.205
783.96	36.567
784.27	39.860
784.57	33.813
784.88	35.185
785.19	52.381
785.50	41.509
785.81	49.254
786.11	49.180
786.42	44.961
786.73	36.283
787.04	41.509
787.34	49.107
787.65	39.000
787.96	37.838
788.26	44.628
788.57	53.390
788.88	44.628
789.19	41.667
789.49	45.455
789.80	29.008
790.11	47.619
790.41	52.475
790.72	48.193
791.03	60.870
791.33	48.837
791.64	54.639
791.95	51.485
792.25	63.333
792.56	72.727
792.87	56.410
793.17	63.291
793.48	71.264
793.79	58.621
794.09	67.045
794.40	42.857
794.70	45.588
795.01	31.111
795.32	32.374
795.62	33.858
795.93	37.069
796.23	54.867
796.54	55.294
796.85	58.108
797.15	70.423
797.46	63.636
797.76	69.880
798.07	72.152
798.37	64.615
798.68	68.182
798.99	69.014
799.29	66.234
799.60	53.409
799.90	75.342
800.21	76.119
800.51	75.862
800.82	80.702
801.12	70.492
801.43	80.303
801.73	59.459
802.04	68.254
802.34	72.840
802.65	84.375
802.95	89.831
803.26	70.313
803.56	62.857
803.87	70.769
804.17	95.588
804.48	105.556
804.78	67.241
805.09	67.647
805.39	75.000
805.70	67.857
806.00	78.689
806.30	72.727
806.61	62.195
806.91	53.165
807.22	46.053
807.52	53.731
807.83	78.873
808.13	87.500
808.43	78.333
808.74	68.421
809.04	75.362
809.35	91.045
809.65	63.158
809.95	95.161
810.26	74.576
810.56	85.714
810.86	113.636
811.17	95.238
811.47	98.333
811.77	98.148
812.08	98.182
812.38	110.000
812.69	141.667
812.99	134.091
813.29	95.918
813.59	97.619
813.90	108.163
814.20	74.545
814.50	70.769
814.81	94.118
815.11	102.041
815.41	83.607
815.72	130.952
816.02	112.727
816.32	111.905
816.62	122.500
816.93	124.390
817.23	123.810
817.53	118.182
817.84	148.485
818.14	123.913
818.44	111.111
818.74	123.529
819.04	107.500
819.35	134.286
819.65	167.647
819.95	160.714
820.25	175.000
820.56	130.769
820.86	115.909
821.16	134.884
821.46	105.128
821.76	104.000
822.07	151.429
822.37	120.000
822.67	148.485
822.97	98.039
823.27	178.571
823.57	124.324
823.88	145.000
824.18	160.000
824.48	135.714
824.78	216.000
825.08	133.333
825.38	129.730
825.69	126.829
825.99	170.833
826.29	144.828
826.59	121.053
826.89	121.053
827.19	155.882
827.49	161.290
827.79	136.364
828.09	125.000
828.39	102.128
828.70	108.163
829.00	159.259
829.30	141.935
829.60	110.000
829.90	240.000
830.20	167.857
830.50	169.565
830.80	186.957
831.10	180.000
831.40	146.667
831.70	152.174
832.00	200.000
832.30	188.889
832.60	275.000
832.90	183.333
833.20	378.571
833.50	187.097
833.80	151.724
834.10	175.000
834.40	207.692
834.70	194.444
835.00	304.762
835.30	140.000
835.60	284.615
835.90	158.621
836.20	271.429
836.50	182.759
836.80	196.000
837.10	127.778
837.40	223.810
837.70	276.471
838.00	181.481
838.30	247.619
838.60	214.286
838.90	211.538
839.19	225.000
839.49	328.571
839.79	320.000
840.09	185.000
840.39	219.048
840.69	230.435
840.99	266.667
841.29	390.000
841.59	316.667
841.88	318.750
842.18	155.172
842.48	271.429
842.78	163.333
843.08	204.348
843.38	159.375
843.68	783.333
843.97	184.615
844.27	186.207
844.57	242.857
844.87	337.500
845.17	214.815
845.47	1200.000
845.76	466.667
846.06	335.294
846.36	475.000
846.66	357.143
846.96	218.750
847.25	409.091
847.55	318.182
847.85	195.652
848.15	450.000
848.44	350.000
848.74	233.333
849.04	264.706
849.34	500.000
849.63	221.053
849.93	418.182
850.23	1080.000
850.53	378.571
850.82	2100.000
851.12	-4300.000
851.42	4900.000
851.71	270.000
852.01	-1266.667
852.31	237.500
852.61	1433.333
852.90	228.571
853.20	168.000
853.50	305.882
853.79	223.810
854.09	170.833
854.39	312.500
854.68	172.973
854.98	174.194
855.28	163.333
855.57	203.448
855.87	225.926
856.17	189.474
856.46	213.333
856.76	217.647
857.05	168.966
857.35	229.167
857.65	273.333
857.94	230.435
858.24	226.923
858.53	220.000
858.83	231.818
859.13	360.000
859.42	0.000
859.72	511.111
860.01	390.909
860.31	213.636
860.60	273.684
860.90	204.348
861.20	533.333
861.49	400.000
861.79	-3600.000
862.08	562.500
862.38	257.143
862.67	346.154
862.97	335.294
863.26	500.000
863.56	294.444
863.85	366.667
864.15	500.000
864.44	300.000
864.74	933.333
865.03	575.000
865.33	263.158
865.62	472.727
865.92	361.538
866.21	408.333
866.51	0.000
866.80	390.909
867.10	920.000
867.39	407.692
867.69	454.545
867.98	226.316
868.27	445.455
868.57	263.158
868.86	-3900.000
869.16	312.500
869.45	2250.000
869.75	-3500.000
870.04	433.333
870.33	742.857
870.63	1100.000
870.92	2200.000
871.22	757.143
871.51	311.765
871.80	157.143
872.10	342.857
>>>>>End Processed Spectral Data<<<<<
