SpectraSuite Data File
++++++++++++++++++++++++++++++++++++
Date: Wed May 13 16:21:26 PDT 2015
User: schluterlab
Dark Spectrum Present: Yes
Reference Spectrum Present: Yes
Number of Sampled Component Spectra: 1
Spectrometers: USB2E3373
Integration Time (usec): 3000 (USB2E3373)
Spectra Averaged: 3 (USB2E3373)
Boxcar Smoothing: 0 (USB2E3373)
Correct for Electrical Dark: No (USB2E3373)
Strobe/Lamp Enabled: No (USB2E3373)
Correct for Detector Non-linearity: No (USB2E3373)
Correct for Stray Light: No (USB2E3373)
Number of Pixels in Processed Spectrum: 2048
>>>>>Begin Processed Spectral Data<<<<<
178.53	0.000
178.91	-1225.000
179.29	-1075.000
179.67	-205.556
180.04	-1250.000
180.42	2200.000
180.80	960.000
181.18	-950.000
181.56	585.714
181.94	0.000
182.31	-514.286
182.69	1633.333
183.07	-525.000
183.45	-477.778
183.83	390.909
184.20	-320.000
184.58	2200.000
184.96	5200.000
185.34	-520.000
185.72	-425.000
186.09	-1950.000
186.47	2000.000
186.85	1750.000
187.23	4100.000
187.61	-1566.667
187.98	1100.000
188.36	563.636
188.74	472.727
189.12	-980.000
189.49	460.000
189.87	-3600.000
190.25	-1025.000
190.63	357.143
191.00	376.923
191.38	766.667
191.76	-1050.000
192.14	1200.000
192.51	637.500
192.89	800.000
193.27	475.000
193.65	-1075.000
194.02	460.000
194.40	900.000
194.78	550.000
195.15	500.000
195.53	590.000
195.91	-1650.000
196.29	293.750
196.66	284.211
197.04	-280.000
197.42	0.000
197.79	530.000
198.17	-4200.000
198.55	614.286
198.92	625.000
199.30	960.000
199.68	0.000
200.05	261.111
200.43	814.286
200.81	3200.000
201.18	1366.667
201.56	-1433.333
201.94	522.222
202.31	611.111
202.69	375.000
203.07	410.000
203.44	0.000
203.82	1075.000
204.19	728.571
204.57	400.000
204.95	537.500
205.32	1366.667
205.70	400.000
206.08	342.857
206.45	2350.000
206.83	300.000
207.20	883.333
207.58	780.000
207.96	288.889
208.33	612.500
208.71	-666.667
209.08	671.429
209.46	466.667
209.84	427.273
210.21	-1366.667
210.59	1275.000
210.96	-362.500
211.34	2550.000
211.71	520.000
212.09	750.000
212.46	0.000
212.84	1433.333
213.22	1050.000
213.59	-3500.000
213.97	666.667
214.34	628.571
214.72	563.636
215.09	860.000
215.47	-1950.000
215.84	-2050.000
216.22	1600.000
216.59	321.429
216.97	1200.000
217.34	481.818
217.72	-600.000
218.09	0.000
218.47	-4800.000
218.84	555.556
219.22	685.714
219.59	1466.667
219.97	-514.286
220.34	820.000
220.72	-1533.333
221.09	357.143
221.47	1525.000
221.84	-833.333
222.22	0.000
222.59	1450.000
222.97	-2250.000
223.34	1020.000
223.72	415.385
224.09	920.000
224.46	2000.000
224.84	-3500.000
225.21	-880.000
225.59	-3900.000
225.96	550.000
226.34	260.000
226.71	2250.000
227.08	637.500
227.46	490.000
227.83	-850.000
228.21	-1900.000
228.58	633.333
228.95	-2300.000
229.33	-1550.000
229.70	1633.333
230.08	614.286
230.45	-880.000
230.82	358.333
231.20	800.000
231.57	700.000
231.95	466.667
232.32	195.455
232.69	281.818
233.07	585.714
233.44	384.615
233.81	-1300.000
234.19	300.000
234.56	316.667
234.93	341.667
235.31	336.364
235.68	269.231
236.05	264.286
236.43	166.667
236.80	205.263
237.17	4500.000
237.55	195.238
237.92	185.714
238.29	214.286
238.67	167.742
239.04	168.966
239.41	116.667
239.79	113.043
240.16	126.190
240.53	97.727
240.91	80.392
241.28	86.000
241.65	66.000
242.02	75.362
242.40	67.742
242.77	83.333
243.14	45.161
243.51	49.438
243.89	50.588
244.26	53.333
244.63	48.387
245.00	35.106
245.38	44.554
245.75	28.972
246.12	32.110
246.49	33.577
246.87	38.400
247.24	39.231
247.61	30.000
247.98	33.333
248.36	28.378
248.73	31.847
249.10	29.299
249.47	28.814
249.84	26.203
250.22	23.529
250.59	21.302
250.96	26.263
251.33	25.592
251.70	24.752
252.08	20.952
252.45	21.076
252.82	17.826
253.19	19.574
253.56	23.922
253.94	18.672
254.31	20.313
254.68	20.769
255.05	21.402
255.42	18.293
255.79	15.809
256.16	19.134
256.54	15.194
256.91	20.996
257.28	15.468
257.65	13.861
258.02	18.323
258.39	11.672
258.76	13.043
259.14	15.774
259.51	13.982
259.88	13.975
260.25	18.731
260.62	14.740
260.99	13.354
261.36	17.417
261.73	14.900
262.10	11.337
262.47	14.366
262.85	15.042
263.22	11.681
263.59	15.385
263.96	13.462
264.33	13.577
264.70	12.105
265.07	13.811
265.44	12.626
265.81	12.895
266.18	13.317
266.55	13.171
266.92	12.531
267.29	13.657
267.66	10.092
268.03	13.864
268.40	12.150
268.77	10.501
269.14	9.685
269.51	11.964
269.88	9.790
270.25	13.544
270.62	10.787
270.99	11.613
271.36	12.876
271.73	9.346
272.10	11.087
272.47	11.828
272.84	12.554
273.21	11.321
273.58	8.952
273.95	9.644
274.32	9.091
274.69	10.278
275.06	9.646
275.43	8.085
275.80	8.617
276.17	9.572
276.54	10.395
276.91	7.905
277.28	8.398
277.65	11.412
278.02	10.559
278.39	10.742
278.76	10.545
279.13	8.868
279.50	12.104
279.87	9.562
280.23	8.583
280.60	7.350
280.97	8.688
281.34	10.619
281.71	10.182
282.08	9.405
282.45	9.455
282.82	9.947
283.19	7.843
283.56	10.175
283.92	11.337
284.29	9.171
284.66	9.437
285.03	7.595
285.40	7.746
285.77	8.418
286.14	7.427
286.51	9.167
286.87	8.718
287.24	7.492
287.61	8.347
287.98	8.279
288.35	8.241
288.72	7.788
289.08	8.294
289.45	7.743
289.82	7.480
290.19	8.320
290.56	7.963
290.93	6.193
291.29	6.442
291.66	7.965
292.03	10.174
292.40	10.279
292.77	6.065
293.13	5.672
293.50	7.434
293.87	7.852
294.24	5.630
294.60	3.785
294.97	8.866
295.34	9.168
295.71	6.108
296.08	7.123
296.44	6.740
296.81	6.209
297.18	7.453
297.55	5.145
297.91	6.728
298.28	6.961
298.65	6.397
299.02	6.851
299.38	7.304
299.75	4.178
300.12	6.769
300.48	6.125
300.85	6.289
301.22	6.369
301.59	5.303
301.95	7.179
302.32	5.135
302.69	6.691
303.05	6.545
303.42	5.556
303.79	6.229
304.15	6.061
304.52	5.678
304.89	6.272
305.25	5.684
305.62	6.682
305.99	6.021
306.35	5.369
306.72	5.157
307.09	6.659
307.45	6.532
307.82	5.469
308.19	6.071
308.55	6.904
308.92	5.693
309.29	5.069
309.65	5.832
310.02	6.025
310.38	4.516
310.75	4.963
311.12	6.039
311.48	6.479
311.85	6.604
312.22	5.827
312.58	4.886
312.95	5.702
313.31	4.272
313.68	6.029
314.05	7.199
314.41	5.930
314.78	4.834
315.14	6.058
315.51	5.355
315.87	5.347
316.24	4.866
316.61	5.361
316.97	4.990
317.34	3.914
317.70	4.971
318.07	5.294
318.43	6.067
318.80	6.186
319.16	5.367
319.53	4.972
319.89	5.143
320.26	5.400
320.62	6.647
320.99	5.859
321.35	5.657
321.72	5.749
322.08	6.219
322.45	7.164
322.81	5.911
323.18	6.358
323.54	6.586
323.91	6.792
324.27	5.545
324.64	6.431
325.00	5.591
325.37	6.733
325.73	7.630
326.10	6.973
326.46	5.287
326.83	6.299
327.19	6.149
327.56	6.359
327.92	6.649
328.29	7.098
328.65	6.630
329.01	7.130
329.38	5.088
329.74	5.817
330.11	6.126
330.47	6.520
330.84	7.904
331.20	6.102
331.56	6.606
331.93	6.389
332.29	6.300
332.66	7.168
333.02	6.856
333.38	6.775
333.75	6.863
334.11	6.050
334.48	6.389
334.84	6.801
335.20	6.091
335.57	5.893
335.93	5.804
336.29	5.037
336.66	7.124
337.02	5.611
337.38	6.296
337.75	6.506
338.11	6.983
338.47	5.985
338.84	6.141
339.20	4.954
339.56	6.843
339.93	6.000
340.29	6.522
340.65	5.793
341.02	6.108
341.38	6.851
341.74	6.140
342.11	6.201
342.47	5.639
342.83	6.421
343.20	7.100
343.56	6.487
343.92	5.614
344.28	6.973
344.65	6.191
345.01	5.808
345.37	5.575
345.73	6.853
346.10	6.138
346.46	6.102
346.82	6.755
347.19	5.764
347.55	5.665
347.91	6.392
348.27	6.574
348.63	5.936
349.00	5.421
349.36	4.680
349.72	6.736
350.08	5.835
350.45	6.265
350.81	6.011
351.17	5.592
351.53	4.832
351.89	5.446
352.26	6.867
352.62	6.255
352.98	6.564
353.34	6.327
353.70	5.237
354.07	5.726
354.43	5.714
354.79	6.597
355.15	5.666
355.51	5.596
355.87	5.633
356.24	6.515
356.60	5.132
356.96	5.712
357.32	5.478
357.68	6.378
358.04	5.384
358.40	6.413
358.77	5.556
359.13	5.051
359.49	5.882
359.85	4.365
360.21	6.220
360.57	5.603
360.93	6.308
361.29	5.140
361.66	5.186
362.02	6.269
362.38	5.399
362.74	5.134
363.10	6.144
363.46	5.136
363.82	4.913
364.18	6.314
364.54	5.498
364.90	6.232
365.26	5.294
365.62	5.698
365.98	4.602
366.35	4.943
366.71	5.568
367.07	5.317
367.43	5.225
367.79	5.996
368.15	6.034
368.51	4.724
368.87	5.211
369.23	5.267
369.59	5.865
369.95	4.926
370.31	5.983
370.67	6.087
371.03	5.768
371.39	5.977
371.75	5.882
372.11	5.334
372.47	6.085
372.83	5.908
373.19	5.202
373.55	4.508
373.91	5.965
374.27	5.292
374.63	5.018
374.99	5.650
375.35	4.815
375.71	5.072
376.07	6.104
376.42	4.677
376.78	5.633
377.14	5.224
377.50	5.828
377.86	4.521
378.22	5.436
378.58	4.762
378.94	4.903
379.30	4.644
379.66	5.013
380.02	5.713
380.38	4.614
380.74	5.522
381.09	5.196
381.45	5.593
381.81	6.020
382.17	5.478
382.53	5.220
382.89	5.988
383.25	5.128
383.61	5.762
383.97	6.004
384.32	5.490
384.68	5.390
385.04	5.532
385.40	5.015
385.76	5.467
386.12	5.181
386.48	5.412
386.83	5.581
387.19	6.308
387.55	5.318
387.91	5.381
388.27	5.702
388.62	6.146
388.98	4.791
389.34	6.383
389.70	5.579
390.06	6.717
390.42	6.161
390.77	6.489
391.13	5.297
391.49	5.584
391.85	5.474
392.20	4.732
392.56	5.366
392.92	5.709
393.28	4.970
393.64	5.635
393.99	5.376
394.35	5.335
394.71	5.646
395.07	5.794
395.42	5.871
395.78	5.662
396.14	5.835
396.50	6.266
396.85	5.976
397.21	4.809
397.57	5.642
397.92	5.829
398.28	4.821
398.64	5.735
399.00	5.260
399.35	5.133
399.71	5.961
400.07	5.914
400.42	5.337
400.78	5.790
401.14	5.122
401.49	5.672
401.85	5.324
402.21	5.269
402.57	4.627
402.92	5.485
403.28	5.746
403.63	5.507
403.99	5.223
404.35	5.576
404.70	5.815
405.06	5.009
405.42	5.427
405.77	5.257
406.13	5.926
406.49	5.795
406.84	5.611
407.20	5.024
407.55	5.424
407.91	4.800
408.27	4.467
408.62	5.479
408.98	6.127
409.34	5.105
409.69	5.355
410.05	4.957
410.40	5.688
410.76	5.795
411.11	5.790
411.47	5.367
411.83	6.292
412.18	5.442
412.54	5.666
412.89	6.205
413.25	4.959
413.60	4.632
413.96	5.889
414.31	5.772
414.67	5.767
415.03	5.894
415.38	5.348
415.74	5.466
416.09	6.205
416.45	5.556
416.80	6.015
417.16	6.971
417.51	5.109
417.87	5.138
418.22	5.741
418.58	6.327
418.93	6.388
419.29	5.665
419.64	6.801
420.00	6.037
420.35	5.623
420.71	6.097
421.06	5.489
421.42	5.906
421.77	5.886
422.12	5.278
422.48	4.425
422.83	5.766
423.19	5.967
423.54	5.107
423.90	5.565
424.25	5.695
424.61	5.417
424.96	5.306
425.31	5.759
425.67	5.843
426.02	5.143
426.38	5.861
426.73	6.027
427.09	5.653
427.44	5.233
427.79	5.060
428.15	5.833
428.50	5.910
428.85	6.257
429.21	5.522
429.56	5.236
429.92	5.284
430.27	5.164
430.62	4.813
430.98	5.138
431.33	5.567
431.68	5.497
432.04	5.698
432.39	5.768
432.74	5.566
433.10	5.886
433.45	5.889
433.80	5.432
434.16	5.556
434.51	5.526
434.86	6.271
435.22	4.947
435.57	4.863
435.92	5.325
436.28	6.050
436.63	6.291
436.98	5.381
437.34	5.665
437.69	6.184
438.04	5.958
438.39	6.149
438.75	6.275
439.10	4.916
439.45	6.494
439.81	5.801
440.16	5.534
440.51	5.975
440.86	5.559
441.22	5.284
441.57	5.573
441.92	5.527
442.27	5.490
442.63	5.635
442.98	6.423
443.33	6.087
443.68	5.318
444.03	5.076
444.39	5.161
444.74	4.870
445.09	5.984
445.44	5.194
445.79	5.839
446.15	6.141
446.50	5.170
446.85	5.396
447.20	5.150
447.55	5.416
447.91	5.516
448.26	5.620
448.61	5.879
448.96	5.869
449.31	5.849
449.66	5.909
450.02	4.568
450.37	5.612
450.72	5.358
451.07	5.728
451.42	5.410
451.77	6.283
452.12	5.543
452.47	4.851
452.83	5.186
453.18	5.134
453.53	5.937
453.88	5.729
454.23	5.678
454.58	5.754
454.93	5.785
455.28	5.424
455.63	5.583
455.98	6.845
456.34	5.967
456.69	5.823
457.04	5.201
457.39	5.728
457.74	5.630
458.09	5.923
458.44	5.416
458.79	5.043
459.14	6.038
459.49	5.312
459.84	5.596
460.19	5.893
460.54	5.787
460.89	6.308
461.24	5.768
461.59	6.217
461.94	6.473
462.29	6.291
462.64	5.871
462.99	5.075
463.34	6.267
463.69	5.566
464.04	6.029
464.39	5.739
464.74	5.585
465.09	5.549
465.44	5.817
465.79	5.257
466.14	6.130
466.49	5.617
466.84	5.196
467.19	5.492
467.54	5.812
467.89	5.822
468.24	6.399
468.59	6.288
468.94	5.559
469.29	5.848
469.64	6.292
469.99	6.901
470.34	5.152
470.68	5.675
471.03	5.986
471.38	6.185
471.73	6.129
472.08	6.447
472.43	5.653
472.78	5.991
473.13	6.290
473.48	6.305
473.83	6.280
474.17	5.476
474.52	6.203
474.87	6.421
475.22	5.514
475.57	5.535
475.92	5.204
476.27	5.411
476.61	5.847
476.96	5.333
477.31	5.338
477.66	6.182
478.01	5.332
478.36	5.764
478.70	5.192
479.05	4.899
479.40	5.834
479.75	5.440
480.10	5.517
480.45	5.236
480.79	5.065
481.14	5.626
481.49	5.126
481.84	5.350
482.19	4.952
482.53	5.550
482.88	5.491
483.23	5.140
483.58	5.505
483.92	5.576
484.27	4.662
484.62	5.345
484.97	4.927
485.31	4.966
485.66	3.982
486.01	3.740
486.36	3.400
486.70	3.477
487.05	3.383
487.40	4.290
487.75	4.107
488.09	4.489
488.44	4.270
488.79	4.593
489.13	5.004
489.48	4.608
489.83	4.618
490.17	4.866
490.52	5.536
490.87	4.885
491.22	5.002
491.56	4.465
491.91	5.119
492.26	4.823
492.60	5.207
492.95	4.397
493.30	5.654
493.64	4.153
493.99	4.828
494.34	5.273
494.68	5.266
495.03	5.404
495.37	5.444
495.72	4.678
496.07	5.104
496.41	4.823
496.76	4.881
497.11	4.818
497.45	5.170
497.80	5.086
498.14	4.734
498.49	4.780
498.84	5.609
499.18	4.810
499.53	4.653
499.87	5.033
500.22	4.993
500.56	5.291
500.91	4.712
501.26	4.931
501.60	5.695
501.95	4.904
502.29	4.780
502.64	4.702
502.98	4.956
503.33	4.707
503.67	5.383
504.02	5.239
504.36	5.101
504.71	5.520
505.06	5.446
505.40	5.202
505.75	5.014
506.09	5.151
506.44	5.032
506.78	5.066
507.13	5.856
507.47	5.404
507.82	6.028
508.16	5.674
508.51	5.885
508.85	4.767
509.19	5.153
509.54	5.714
509.88	4.534
510.23	4.730
510.57	5.934
510.92	4.868
511.26	5.396
511.61	5.394
511.95	5.219
512.30	5.302
512.64	5.642
512.98	5.305
513.33	5.942
513.67	5.763
514.02	4.600
514.36	5.516
514.70	5.645
515.05	4.685
515.39	5.328
515.74	5.631
516.08	5.981
516.42	5.882
516.77	6.020
517.11	5.438
517.46	5.756
517.80	5.226
518.14	5.790
518.49	5.951
518.83	5.625
519.17	5.196
519.52	5.433
519.86	5.476
520.20	6.012
520.55	6.044
520.89	5.657
521.23	6.333
521.58	6.182
521.92	6.124
522.26	5.003
522.61	5.483
522.95	5.586
523.29	5.904
523.64	6.341
523.98	5.730
524.32	6.092
524.66	6.915
525.01	5.515
525.35	5.452
525.69	6.219
526.04	5.421
526.38	5.735
526.72	5.828
527.06	6.529
527.41	5.569
527.75	5.852
528.09	5.780
528.43	6.437
528.78	6.454
529.12	5.939
529.46	6.246
529.80	6.188
530.15	5.919
530.49	5.723
530.83	6.203
531.17	7.180
531.51	6.420
531.86	6.194
532.20	6.845
532.54	6.919
532.88	6.996
533.22	5.684
533.57	6.235
533.91	5.599
534.25	6.744
534.59	6.040
534.93	5.949
535.27	5.794
535.62	6.899
535.96	5.399
536.30	6.357
536.64	6.504
536.98	6.702
537.32	6.188
537.66	6.600
538.01	6.386
538.35	6.076
538.69	6.318
539.03	5.848
539.37	5.815
539.71	5.120
540.05	5.817
540.39	5.648
540.73	5.692
541.07	6.814
541.42	6.784
541.76	6.710
542.10	6.921
542.44	5.960
542.78	6.851
543.12	6.078
543.46	7.213
543.80	6.766
544.14	5.905
544.48	6.222
544.82	5.516
545.16	6.051
545.50	6.684
545.84	6.452
546.18	7.071
546.52	6.056
546.86	6.323
547.20	6.541
547.54	6.413
547.88	7.207
548.22	5.853
548.56	6.038
548.90	6.146
549.24	6.061
549.58	6.207
549.92	5.495
550.26	6.321
550.60	6.846
550.94	6.408
551.28	5.486
551.62	6.470
551.96	5.825
552.30	6.280
552.64	7.099
552.98	6.576
553.32	6.608
553.66	6.680
554.00	6.520
554.34	6.487
554.68	6.509
555.02	6.559
555.36	6.263
555.69	6.089
556.03	5.989
556.37	6.889
556.71	5.389
557.05	6.373
557.39	6.158
557.73	6.634
558.07	6.309
558.41	5.716
558.75	6.392
559.08	7.084
559.42	6.047
559.76	6.912
560.10	6.852
560.44	6.219
560.78	6.188
561.12	6.201
561.45	6.454
561.79	6.592
562.13	6.372
562.47	6.762
562.81	6.137
563.15	6.355
563.48	6.565
563.82	6.393
564.16	6.475
564.50	5.404
564.84	6.195
565.17	5.792
565.51	5.879
565.85	6.155
566.19	6.011
566.52	5.383
566.86	5.787
567.20	6.545
567.54	5.879
567.88	5.432
568.21	5.926
568.55	5.258
568.89	4.961
569.23	5.080
569.56	4.980
569.90	4.717
570.24	4.449
570.57	4.454
570.91	4.072
571.25	3.891
571.59	4.860
571.92	3.888
572.26	4.362
572.60	4.414
572.93	4.348
573.27	4.614
573.61	4.327
573.95	4.522
574.28	4.045
574.62	3.839
574.96	4.134
575.29	3.952
575.63	4.294
575.97	4.035
576.30	4.302
576.64	4.220
576.98	3.962
577.31	4.043
577.65	3.713
577.98	3.639
578.32	3.753
578.66	3.941
578.99	3.995
579.33	3.873
579.67	4.014
580.00	3.860
580.34	4.010
580.67	3.923
581.01	4.430
581.35	3.702
581.68	3.738
582.02	3.691
582.35	3.653
582.69	3.771
583.02	3.683
583.36	4.035
583.70	4.196
584.03	3.918
584.37	4.506
584.70	4.232
585.04	4.256
585.37	4.077
585.71	4.065
586.04	3.842
586.38	4.467
586.72	4.529
587.05	4.156
587.39	3.799
587.72	3.788
588.06	4.002
588.39	4.280
588.73	4.136
589.06	4.487
589.40	4.714
589.73	4.576
590.07	4.591
590.40	4.457
590.73	4.528
591.07	5.332
591.40	5.230
591.74	4.935
592.07	5.585
592.41	4.713
592.74	4.682
593.08	4.464
593.41	4.271
593.75	4.341
594.08	4.291
594.41	4.383
594.75	4.769
595.08	4.366
595.42	5.289
595.75	4.416
596.09	4.807
596.42	5.344
596.75	5.699
597.09	5.671
597.42	4.511
597.75	4.614
598.09	5.087
598.42	5.284
598.76	4.540
599.09	4.447
599.42	4.658
599.76	4.539
600.09	4.554
600.42	4.492
600.76	4.107
601.09	4.444
601.42	4.414
601.76	4.744
602.09	4.822
602.42	5.533
602.76	5.441
603.09	4.799
603.42	5.115
603.76	4.726
604.09	4.188
604.42	4.362
604.76	5.820
605.09	4.500
605.42	5.002
605.75	4.967
606.09	4.555
606.42	4.373
606.75	4.770
607.09	5.232
607.42	4.664
607.75	5.190
608.08	4.907
608.42	5.379
608.75	4.869
609.08	5.227
609.41	5.236
609.75	5.098
610.08	5.278
610.41	4.749
610.74	5.156
611.07	5.583
611.41	5.839
611.74	5.732
612.07	5.797
612.40	5.194
612.73	5.158
613.07	5.280
613.40	6.056
613.73	5.034
614.06	5.108
614.39	5.716
614.72	5.684
615.06	5.305
615.39	5.255
615.72	5.164
616.05	4.625
616.38	5.948
616.71	5.582
617.05	6.360
617.38	5.833
617.71	5.886
618.04	5.649
618.37	5.855
618.70	5.227
619.03	6.184
619.36	6.246
619.69	5.423
620.03	6.044
620.36	6.417
620.69	6.712
621.02	6.195
621.35	6.578
621.68	5.997
622.01	6.347
622.34	6.732
622.67	6.084
623.00	5.796
623.33	5.933
623.66	6.576
623.99	5.817
624.32	6.990
624.65	6.638
624.99	5.170
625.32	6.010
625.65	6.536
625.98	6.841
626.31	7.698
626.64	7.510
626.97	5.902
627.30	6.151
627.63	6.645
627.96	6.897
628.29	7.174
628.62	7.136
628.95	8.679
629.28	7.117
629.61	7.974
629.94	7.810
630.26	7.340
630.59	7.436
630.92	6.705
631.25	6.614
631.58	7.608
631.91	6.897
632.24	7.173
632.57	8.604
632.90	6.908
633.23	8.725
633.56	9.379
633.89	7.814
634.22	8.286
634.55	8.284
634.88	8.024
635.20	8.124
635.53	9.277
635.86	8.045
636.19	7.529
636.52	8.304
636.85	9.622
637.18	7.488
637.51	9.102
637.83	6.412
638.16	8.824
638.49	8.564
638.82	9.229
639.15	9.125
639.48	9.975
639.81	8.847
640.13	9.115
640.46	9.262
640.79	10.436
641.12	8.116
641.45	7.682
641.77	8.100
642.10	8.333
642.43	8.408
642.76	8.669
643.09	11.350
643.41	10.015
643.74	9.414
644.07	10.213
644.40	11.196
644.73	9.449
645.05	10.618
645.38	9.163
645.71	9.823
646.04	10.465
646.36	10.684
646.69	11.873
647.02	10.034
647.35	9.966
647.67	8.673
648.00	12.033
648.33	8.251
648.66	10.000
648.98	11.694
649.31	8.819
649.64	9.865
649.96	10.134
650.29	9.163
650.62	8.576
650.94	12.318
651.27	10.811
651.60	12.146
651.92	11.022
652.25	9.283
652.58	10.592
652.90	11.058
653.23	8.012
653.56	9.921
653.88	11.410
654.21	12.006
654.54	11.716
654.86	9.657
655.19	7.297
655.52	4.842
655.84	2.837
656.17	3.108
656.49	4.056
656.82	4.354
657.15	3.511
657.47	2.860
657.80	2.197
658.13	2.511
658.45	3.875
658.78	4.349
659.10	4.783
659.43	5.514
659.75	6.163
660.08	6.266
660.41	8.752
660.73	10.038
661.06	9.395
661.38	10.545
661.71	11.923
662.03	14.596
662.36	9.742
662.68	11.044
663.01	10.101
663.33	11.677
663.66	12.395
663.98	12.743
664.31	11.134
664.63	12.753
664.96	10.865
665.28	12.910
665.61	11.111
665.93	12.274
666.26	11.765
666.58	11.088
666.91	14.165
667.23	13.258
667.56	12.095
667.88	13.034
668.21	14.286
668.53	11.497
668.86	11.688
669.18	12.154
669.50	12.609
669.83	15.686
670.15	12.000
670.48	14.379
670.80	14.224
671.13	12.527
671.45	12.553
671.77	13.238
672.10	12.939
672.42	12.014
672.75	11.609
673.07	8.803
673.39	9.584
673.72	9.570
674.04	11.373
674.37	11.845
674.69	11.247
675.01	9.623
675.34	14.990
675.66	15.158
675.98	12.220
676.31	13.655
676.63	11.677
676.95	13.417
677.28	13.084
677.60	10.769
677.92	13.713
678.25	13.142
678.57	12.351
678.89	10.621
679.22	11.984
679.54	12.023
679.86	12.477
680.18	11.091
680.51	12.766
680.83	12.278
681.15	11.698
681.48	12.287
681.80	10.445
682.12	11.686
682.44	7.930
682.77	13.035
683.09	15.021
683.41	11.973
683.73	12.804
684.06	13.636
684.38	12.329
684.70	12.209
685.02	11.820
685.34	9.707
685.67	9.790
685.99	9.622
686.31	9.556
686.63	9.894
686.96	10.536
687.28	12.455
687.60	9.420
687.92	12.797
688.24	10.266
688.56	14.056
688.89	12.656
689.21	12.882
689.53	10.856
689.85	12.860
690.17	12.215
690.49	14.013
690.82	13.318
691.14	11.161
691.46	10.549
691.78	12.249
692.10	14.050
692.42	13.373
692.74	8.714
693.06	11.702
693.39	10.472
693.71	11.354
694.03	13.263
694.35	11.905
694.67	10.984
694.99	14.146
695.31	12.500
695.63	15.789
695.95	13.936
696.27	13.706
696.59	14.767
696.91	15.026
697.23	10.563
697.56	13.433
697.88	10.225
698.20	13.750
698.52	12.903
698.84	13.363
699.16	13.364
699.48	14.014
699.80	13.043
700.12	16.104
700.44	15.915
700.76	15.746
701.08	13.218
701.40	15.084
701.72	17.784
702.04	19.318
702.36	12.465
702.68	16.997
703.00	15.512
703.32	14.894
703.64	15.550
703.96	15.320
704.28	16.570
704.60	17.009
704.91	16.024
705.23	14.956
705.55	16.944
705.87	21.927
706.19	15.194
706.51	18.692
706.83	16.061
707.15	17.087
707.47	13.636
707.79	13.759
708.11	15.297
708.43	14.524
708.74	13.265
709.06	16.883
709.38	14.436
709.70	18.023
710.02	16.914
710.34	15.152
710.66	16.119
710.98	16.761
711.29	18.895
711.61	20.354
711.93	13.782
712.25	17.685
712.57	14.338
712.89	18.339
713.20	20.365
713.52	22.039
713.84	13.608
714.16	17.378
714.48	14.368
714.80	17.933
715.11	16.427
715.43	15.134
715.75	17.971
716.07	14.696
716.39	17.868
716.70	15.615
717.02	17.986
717.34	15.901
717.66	22.015
717.97	21.514
718.29	18.519
718.61	18.613
718.93	18.382
719.24	18.685
719.56	16.949
719.88	16.610
720.20	21.959
720.51	15.679
720.83	19.703
721.15	18.284
721.46	14.894
721.78	19.355
722.10	22.642
722.42	21.805
722.73	17.603
723.05	19.672
723.37	22.267
723.68	23.552
724.00	18.699
724.32	21.774
724.63	19.919
724.95	19.247
725.27	21.862
725.58	17.969
725.90	16.423
726.22	18.113
726.53	19.444
726.85	20.478
727.16	17.082
727.48	18.794
727.80	18.939
728.11	18.478
728.43	19.231
728.74	16.487
729.06	25.547
729.38	21.324
729.69	18.505
730.01	16.382
730.32	17.708
730.64	21.739
730.96	15.512
731.27	17.881
731.59	15.902
731.90	18.659
732.22	18.012
732.53	16.099
732.85	15.385
733.16	15.434
733.48	14.286
733.80	14.935
734.11	16.561
734.43	16.272
734.74	13.143
735.06	15.186
735.37	18.208
735.69	15.924
736.00	19.281
736.32	19.938
736.63	15.974
736.95	20.447
737.26	11.565
737.58	14.516
737.89	17.057
738.21	19.454
738.52	20.357
738.83	18.113
739.15	15.000
739.46	20.073
739.78	20.486
740.09	18.769
740.41	20.968
740.72	18.467
741.04	15.185
741.35	17.917
741.66	26.222
741.98	16.981
742.29	24.402
742.61	28.879
742.92	19.910
743.23	21.368
743.55	22.400
743.86	22.368
744.18	26.106
744.49	22.010
744.80	26.761
745.12	25.909
745.43	22.907
745.74	28.378
746.06	22.477
746.37	26.906
746.68	21.719
747.00	28.704
747.31	21.905
747.62	15.929
747.94	20.264
748.25	17.872
748.56	27.313
748.88	23.762
749.19	26.000
749.50	20.465
749.82	20.325
750.13	15.918
750.44	20.438
750.75	19.298
751.07	21.222
751.38	17.073
751.69	20.578
752.01	17.669
752.32	18.412
752.63	18.794
752.94	16.803
753.26	25.200
753.57	19.106
753.88	21.094
754.19	17.857
754.51	20.139
754.82	14.079
755.13	22.264
755.44	17.293
755.75	17.883
756.07	18.440
756.38	17.518
756.69	18.456
757.00	15.868
757.31	18.694
757.63	15.497
757.94	15.818
758.25	15.196
758.56	12.840
758.87	11.828
759.18	17.576
759.50	15.987
759.81	17.445
760.12	11.875
760.43	17.192
760.74	12.772
761.05	16.384
761.36	11.230
761.67	17.045
761.99	15.839
762.30	17.014
762.61	16.031
762.92	19.531
763.23	20.588
763.54	21.600
763.85	16.406
764.16	20.385
764.47	22.433
764.78	16.961
765.10	16.139
765.41	18.289
765.72	12.874
766.03	17.868
766.34	15.333
766.65	23.830
766.96	21.368
767.27	20.812
767.58	28.125
767.89	25.263
768.20	31.034
768.51	25.888
768.82	27.064
769.13	20.325
769.44	19.838
769.75	19.742
770.06	15.596
770.37	24.887
770.68	27.778
770.99	23.111
771.30	19.672
771.61	20.628
771.92	20.902
772.23	27.731
772.54	29.231
772.85	33.508
773.16	28.723
773.47	31.522
773.78	27.411
774.09	23.214
774.39	28.655
774.70	33.333
775.01	34.058
775.32	32.680
775.63	32.895
775.94	26.619
776.25	39.370
776.56	38.806
776.87	34.426
777.18	35.938
777.48	39.695
777.79	40.152
778.10	40.741
778.41	36.607
778.72	35.036
779.03	32.886
779.34	35.570
779.65	28.378
779.95	29.448
780.26	30.719
780.57	39.310
780.88	35.938
781.19	36.842
781.50	41.216
781.80	23.270
782.11	28.249
782.42	34.177
782.73	27.607
783.04	35.811
783.34	38.732
783.65	41.096
783.96	36.567
784.27	32.168
784.57	31.655
784.88	31.481
785.19	46.825
785.50	39.623
785.81	42.537
786.11	44.262
786.42	37.984
786.73	44.248
787.04	41.509
787.34	38.393
787.65	34.000
787.96	38.739
788.26	37.190
788.57	43.220
788.88	41.322
789.19	38.889
789.49	49.242
789.80	36.641
790.11	55.238
790.41	51.485
790.72	53.012
791.03	47.826
791.33	50.000
791.64	47.423
791.95	53.465
792.25	36.667
792.56	51.948
792.87	73.077
793.17	78.481
793.48	59.770
793.79	52.874
794.09	47.727
794.40	36.134
794.70	46.324
795.01	37.037
795.32	33.813
795.62	30.709
795.93	37.931
796.23	41.593
796.54	58.824
796.85	62.162
797.15	74.648
797.46	72.727
797.76	51.807
798.07	50.633
798.37	69.231
798.68	53.030
798.99	52.113
799.29	71.429
799.60	55.682
799.90	67.123
800.21	71.642
800.51	55.172
800.82	82.456
801.12	77.049
801.43	69.697
801.73	62.162
802.04	80.952
802.34	64.198
802.65	71.875
802.95	86.441
803.26	87.500
803.56	61.429
803.87	63.077
804.17	61.765
804.48	85.185
804.78	74.138
805.09	61.765
805.39	82.692
805.70	69.643
806.00	73.770
806.30	77.273
806.61	65.854
806.91	36.709
807.22	56.579
807.52	46.269
807.83	69.014
808.13	71.875
808.43	71.667
808.74	67.105
809.04	68.116
809.35	64.179
809.65	65.789
809.95	91.935
810.26	71.186
810.56	84.127
810.86	77.273
811.17	104.762
811.47	83.333
811.77	92.593
812.08	78.182
812.38	106.000
812.69	127.778
812.99	106.818
813.29	93.878
813.59	69.048
813.90	110.204
814.20	81.818
814.50	64.615
814.81	79.412
815.11	91.837
815.41	65.574
815.72	111.905
816.02	100.000
816.32	100.000
816.62	132.500
816.93	131.707
817.23	123.810
817.53	111.364
817.84	163.636
818.14	106.522
818.44	120.000
818.74	126.471
819.04	110.000
819.35	131.429
819.65	120.588
819.95	135.714
820.25	160.000
820.56	110.256
820.86	100.000
821.16	125.581
821.46	115.385
821.76	100.000
822.07	131.429
822.37	122.500
822.67	109.091
822.97	96.078
823.27	167.857
823.57	143.243
823.88	142.500
824.18	150.000
824.48	123.810
824.78	208.000
825.08	154.167
825.38	127.027
825.69	97.561
825.99	179.167
826.29	93.103
826.59	110.526
826.89	139.474
827.19	132.353
827.49	158.065
827.79	122.727
828.09	122.727
828.39	104.255
828.70	116.327
829.00	92.593
829.30	129.032
829.60	122.500
829.90	266.667
830.20	182.143
830.50	186.957
830.80	156.522
831.10	123.333
831.40	126.667
831.70	156.522
832.00	161.538
832.30	181.481
832.60	206.250
832.90	160.000
833.20	321.429
833.50	187.097
833.80	151.724
834.10	187.500
834.40	211.538
834.70	200.000
835.00	223.810
835.30	128.571
835.60	238.462
835.90	165.517
836.20	257.143
836.50	155.172
836.80	172.000
837.10	125.000
837.40	223.810
837.70	258.824
838.00	188.889
838.30	195.238
838.60	233.333
838.90	165.385
839.19	260.000
839.49	357.143
839.79	330.000
840.09	275.000
840.39	238.095
840.69	204.348
840.99	294.444
841.29	380.000
841.59	225.000
841.88	312.500
842.18	155.172
842.48	233.333
842.78	163.333
843.08	191.304
843.38	165.625
843.68	700.000
843.97	180.769
844.27	148.276
844.57	300.000
844.87	306.250
845.17	203.704
845.47	1233.333
845.76	344.444
846.06	247.059
846.36	487.500
846.66	235.714
846.96	212.500
847.25	327.273
847.55	327.273
847.85	247.826
848.15	400.000
848.44	292.857
848.74	188.889
849.04	235.294
849.34	400.000
849.63	236.842
849.93	381.818
850.23	880.000
850.53	407.143
850.82	2100.000
851.12	-3100.000
851.42	4200.000
851.71	235.000
852.01	-900.000
852.31	233.333
852.61	1600.000
852.90	223.810
853.20	224.000
853.50	288.235
853.79	223.810
854.09	166.667
854.39	293.750
854.68	129.730
854.98	148.387
855.28	156.667
855.57	182.759
855.87	174.074
856.17	205.263
856.46	233.333
856.76	200.000
857.05	137.931
857.35	183.333
857.65	253.333
857.94	243.478
858.24	215.385
858.53	220.000
858.83	218.182
859.13	306.667
859.42	0.000
859.72	500.000
860.01	381.818
860.31	213.636
860.60	263.158
860.90	169.565
861.20	511.111
861.49	416.667
861.79	-4300.000
862.08	537.500
862.38	242.857
862.67	276.923
862.97	311.765
863.26	411.111
863.56	188.889
863.85	358.333
864.15	537.500
864.44	366.667
864.74	750.000
865.03	487.500
865.33	252.632
865.62	390.909
865.92	407.692
866.21	300.000
866.51	0.000
866.80	409.091
867.10	1120.000
867.39	430.769
867.69	436.364
867.98	215.789
868.27	463.636
868.57	242.105
868.86	-3500.000
869.16	268.750
869.45	1450.000
869.75	-3700.000
870.04	325.000
870.33	585.714
870.63	800.000
870.92	2450.000
871.22	614.286
871.51	300.000
871.80	171.429
872.10	378.571
>>>>>End Processed Spectral Data<<<<<
