SpectraSuite Data File
++++++++++++++++++++++++++++++++++++
Date: Fri May 15 20:12:48 PDT 2015
User: schluterlab
Dark Spectrum Present: Yes
Reference Spectrum Present: Yes
Number of Sampled Component Spectra: 1
Spectrometers: USB2E3373
Integration Time (usec): 3000 (USB2E3373)
Spectra Averaged: 3 (USB2E3373)
Boxcar Smoothing: 0 (USB2E3373)
Correct for Electrical Dark: No (USB2E3373)
Strobe/Lamp Enabled: No (USB2E3373)
Correct for Detector Non-linearity: No (USB2E3373)
Correct for Stray Light: No (USB2E3373)
Number of Pixels in Processed Spectrum: 2048
>>>>>Begin Processed Spectral Data<<<<<
178.53	0.000
178.91	0.000
179.29	175.000
179.67	250.000
180.04	-57.143
180.42	150.000
180.80	500.000
181.18	133.333
181.56	-150.000
181.94	-100.000
182.31	1100.000
182.69	160.000
183.07	-166.667
183.45	-100.000
183.83	-16.667
184.20	36.364
184.58	111.111
184.96	-50.000
185.34	-233.333
185.72	-150.000
186.09	92.308
186.47	-100.000
186.85	233.333
187.23	88.889
187.61	-100.000
187.98	-200.000
188.36	111.111
188.74	-133.333
189.12	70.588
189.49	55.556
189.87	0.000
190.25	28.571
190.63	-50.000
191.00	66.667
191.38	15.789
191.76	500.000
192.14	-50.000
192.51	600.000
192.89	-11.111
193.27	57.143
193.65	83.333
194.02	145.455
194.40	50.000
194.78	-175.000
195.15	0.000
195.53	-87.500
195.91	200.000
196.29	-275.000
196.66	23.077
197.04	71.429
197.42	-11.111
197.79	-166.667
198.17	-46.154
198.55	600.000
198.92	133.333
199.30	300.000
199.68	-40.000
200.05	-100.000
200.43	0.000
200.81	66.667
201.18	200.000
201.56	1100.000
201.94	-100.000
202.31	200.000
202.69	-80.000
203.07	-50.000
203.44	-200.000
203.82	0.000
204.19	107.143
204.57	-400.000
204.95	-37.500
205.32	40.000
205.70	114.286
206.08	-175.000
206.45	200.000
206.83	28.571
207.20	14.286
207.58	-400.000
207.96	-200.000
208.33	-30.000
208.71	100.000
209.08	-166.667
209.46	0.000
209.84	100.000
210.21	-1000.000
210.59	28.571
210.96	-66.667
211.34	-125.000
211.71	46.667
212.09	-14.286
212.46	-700.000
212.84	0.000
213.22	130.000
213.59	200.000
213.97	23.077
214.34	81.818
214.72	16.667
215.09	275.000
215.47	46.154
215.84	-100.000
216.22	-133.333
216.59	37.500
216.97	-400.000
217.34	-225.000
217.72	-180.000
218.09	-25.000
218.47	75.000
218.84	-200.000
219.22	-11.111
219.59	40.000
219.97	233.333
220.34	250.000
220.72	42.857
221.09	-275.000
221.47	-100.000
221.84	-400.000
222.22	-800.000
222.59	-18.182
222.97	125.000
223.34	66.667
223.72	-107.143
224.09	28.571
224.46	25.000
224.84	233.333
225.21	60.000
225.59	20.000
225.96	-400.000
226.34	275.000
226.71	-14.286
227.08	100.000
227.46	-12.500
227.83	-500.000
228.21	-44.444
228.58	-63.636
228.95	-75.000
229.33	40.000
229.70	43.750
230.08	-87.500
230.45	-57.143
230.82	-71.429
231.20	40.000
231.57	64.286
231.95	28.571
232.32	10.000
232.69	7.143
233.07	-133.333
233.44	240.000
233.81	-50.000
234.19	55.556
234.56	-17.647
234.93	300.000
235.31	-225.000
235.68	-360.000
236.05	-84.615
236.43	-20.000
236.80	11.765
237.17	12.500
237.55	-5.000
237.92	-33.333
238.29	16.667
238.67	-33.333
239.04	-5.882
239.41	-24.390
239.79	-6.667
240.16	19.512
240.53	-18.421
240.91	-4.348
241.28	9.524
241.65	8.929
242.02	17.808
242.40	6.667
242.77	13.559
243.14	-15.152
243.51	-7.500
243.89	8.046
244.26	-5.747
244.63	3.571
245.00	0.000
245.38	6.186
245.75	-3.371
246.12	-0.862
246.49	10.744
246.87	1.923
247.24	-1.681
247.61	-4.386
247.98	-0.813
248.36	6.250
248.73	3.947
249.10	-1.948
249.47	1.899
249.84	-5.229
250.22	3.529
250.59	-1.961
250.96	4.695
251.33	-0.581
251.70	1.765
252.08	0.508
252.45	-2.475
252.82	-1.005
253.19	1.382
253.56	-5.140
253.94	0.901
254.31	6.957
254.68	2.193
255.05	1.969
255.42	3.493
255.79	3.475
256.16	0.778
256.54	3.358
256.91	-2.662
257.28	0.372
257.65	-2.622
258.02	-0.709
258.39	2.020
258.76	3.297
259.14	3.654
259.51	2.265
259.88	-1.031
260.25	0.327
260.62	4.167
260.99	-2.034
261.36	-3.425
261.73	0.000
262.10	5.471
262.47	2.761
262.85	3.448
263.22	0.615
263.59	2.804
263.96	3.416
264.33	0.909
264.70	0.298
265.07	0.298
265.44	2.266
265.81	1.977
266.18	0.820
266.55	2.571
266.92	0.259
267.29	-1.828
267.66	1.790
268.03	2.094
268.40	1.044
268.77	4.278
269.14	2.638
269.51	4.370
269.88	0.998
270.25	-2.551
270.62	-1.220
270.99	-2.302
271.36	1.711
271.73	6.338
272.10	2.190
272.47	2.364
272.84	2.970
273.21	2.784
273.58	3.133
273.95	1.602
274.32	0.462
274.69	2.262
275.06	0.670
275.43	1.814
275.80	-0.221
276.17	-0.690
276.54	1.499
276.91	1.096
277.28	1.310
277.65	2.479
278.02	1.489
278.39	-0.219
278.76	0.629
279.13	-0.622
279.50	3.151
279.87	1.512
280.23	0.000
280.60	2.144
280.97	2.626
281.34	0.192
281.71	1.437
282.08	0.000
282.45	-0.196
282.82	-0.579
283.19	1.161
283.56	2.697
283.92	0.569
284.29	0.769
284.66	0.388
285.03	2.358
285.40	-0.378
285.77	-0.176
286.14	0.361
286.51	1.845
286.87	0.914
287.24	0.552
287.61	-2.293
287.98	2.807
288.35	-0.347
288.72	4.203
289.08	0.868
289.45	1.230
289.82	1.573
290.19	1.195
290.56	0.515
290.93	1.347
291.29	-0.308
291.66	1.260
292.03	1.116
292.40	2.419
292.77	0.638
293.13	-0.162
293.50	0.000
293.87	1.832
294.24	1.855
294.60	1.788
294.97	3.125
295.34	0.460
295.71	0.596
296.08	0.897
296.44	-0.853
296.81	1.250
297.18	-0.145
297.55	2.846
297.91	1.233
298.28	3.298
298.65	1.221
299.02	2.291
299.38	-0.821
299.75	-0.414
300.12	0.785
300.48	-0.659
300.85	1.901
301.22	0.779
301.59	0.132
301.95	2.785
302.32	1.167
302.69	0.249
303.05	1.361
303.42	1.370
303.79	2.103
304.15	2.867
304.52	-0.119
304.89	1.170
305.25	-0.605
305.62	0.583
305.99	0.468
306.35	0.231
306.72	-0.337
307.09	0.684
307.45	2.067
307.82	-0.347
308.19	1.510
308.55	1.854
308.92	1.961
309.29	-0.112
309.65	0.861
310.02	0.110
310.38	1.647
310.75	0.328
311.12	1.076
311.48	1.485
311.85	1.675
312.22	0.211
312.58	2.123
312.95	0.640
313.31	0.000
313.68	-0.105
314.05	0.408
314.41	0.619
314.78	1.753
315.14	1.439
315.51	0.725
315.87	0.512
316.24	2.932
316.61	1.673
316.97	1.190
317.34	0.586
317.70	0.860
318.07	1.058
318.43	1.373
318.80	1.231
319.16	1.562
319.53	2.279
319.89	0.886
320.26	1.012
320.62	1.505
320.99	0.731
321.35	0.925
321.72	1.142
322.08	1.913
322.45	0.203
322.81	1.670
323.18	0.981
323.54	0.386
323.91	0.974
324.27	1.758
324.64	2.528
325.00	2.555
325.37	2.479
325.73	1.541
326.10	0.817
326.46	2.152
326.83	1.312
327.19	1.395
327.56	2.172
327.92	1.673
328.29	1.339
328.65	1.509
329.01	2.665
329.38	2.212
329.74	0.944
330.11	1.946
330.47	0.278
330.84	0.673
331.20	2.376
331.56	1.944
331.93	2.557
332.29	2.291
332.66	1.719
333.02	2.788
333.38	1.558
333.75	2.198
334.11	1.522
334.48	2.629
334.84	2.015
335.20	1.830
335.57	1.813
335.93	2.078
336.29	2.578
336.66	0.817
337.02	0.929
337.38	1.944
337.75	2.182
338.11	1.713
338.47	2.646
338.84	1.664
339.20	1.828
339.56	2.110
339.93	2.417
340.29	2.936
340.65	2.419
341.02	2.128
341.38	2.124
341.74	1.060
342.11	0.780
342.47	1.868
342.83	3.374
343.20	1.655
343.56	1.043
343.92	1.949
344.28	2.562
344.65	1.554
345.01	1.642
345.37	1.934
345.73	3.013
346.10	2.416
346.46	1.934
346.82	1.800
347.19	1.413
347.55	2.924
347.91	2.670
348.27	2.587
348.63	1.789
349.00	1.395
349.36	1.663
349.72	2.570
350.08	3.033
350.45	3.033
350.81	2.243
351.17	2.280
351.53	3.265
351.89	1.486
352.26	2.000
352.62	2.823
352.98	1.687
353.34	2.093
353.70	2.670
354.07	2.581
354.43	1.601
354.79	2.808
355.15	2.143
355.51	3.323
355.87	3.236
356.24	1.142
356.60	1.374
356.96	2.619
357.32	2.476
357.68	2.346
358.04	1.131
358.40	2.170
358.77	2.233
359.13	1.441
359.49	1.926
359.85	2.574
360.21	1.675
360.57	2.525
360.93	3.253
361.29	2.039
361.66	2.586
362.02	2.348
362.38	1.752
362.74	1.893
363.10	2.558
363.46	2.298
363.82	3.231
364.18	2.657
364.54	1.912
364.90	2.581
365.26	1.674
365.62	3.139
365.98	2.126
366.35	3.277
366.71	2.587
367.07	2.758
367.43	1.797
367.79	2.261
368.15	2.656
368.51	2.185
368.87	1.938
369.23	1.588
369.59	1.458
369.95	2.493
370.31	2.746
370.67	1.791
371.03	1.419
371.39	1.896
371.75	3.077
372.11	3.709
372.47	2.367
372.83	2.555
373.19	3.210
373.55	2.238
373.91	2.520
374.27	2.126
374.63	2.943
374.99	2.482
375.35	2.786
375.71	2.937
376.07	2.458
376.42	3.605
376.78	2.483
377.14	2.708
377.50	2.390
377.86	2.477
378.22	2.936
378.58	2.500
378.94	1.386
379.30	2.932
379.66	3.762
380.02	2.636
380.38	2.191
380.74	2.873
381.09	3.558
381.45	2.813
381.81	2.961
382.17	3.046
382.53	2.623
382.89	2.637
383.25	3.111
383.61	2.927
383.97	2.476
384.32	2.814
384.68	3.220
385.04	2.696
385.40	3.049
385.76	3.522
386.12	3.493
386.48	3.831
386.83	3.297
387.19	3.236
387.55	3.701
387.91	3.056
388.27	3.297
388.62	2.706
388.98	4.236
389.34	4.435
389.70	4.537
390.06	3.713
390.42	2.591
390.77	2.878
391.13	3.783
391.49	3.622
391.85	3.509
392.20	3.704
392.56	3.179
392.92	4.463
393.28	3.774
393.64	3.844
393.99	4.013
394.35	4.048
394.71	4.598
395.07	4.274
395.42	4.432
395.78	3.844
396.14	4.161
396.50	4.185
396.85	4.572
397.21	4.637
397.57	4.577
397.92	4.374
398.28	4.885
398.64	3.855
399.00	4.402
399.35	4.233
399.71	4.595
400.07	3.990
400.42	4.712
400.78	5.695
401.14	4.295
401.49	5.360
401.85	4.692
402.21	4.880
402.57	5.313
402.92	4.078
403.28	5.138
403.63	4.224
403.99	4.018
404.35	4.934
404.70	4.286
405.06	4.054
405.42	4.786
405.77	3.777
406.13	4.657
406.49	4.914
406.84	4.645
407.20	5.659
407.55	4.636
407.91	5.080
408.27	4.780
408.62	4.985
408.98	5.299
409.34	5.081
409.69	4.780
410.05	5.172
410.40	5.247
410.76	5.066
411.11	4.875
411.47	4.668
411.83	4.708
412.18	5.019
412.54	4.869
412.89	4.741
413.25	4.813
413.60	4.286
413.96	4.847
414.31	6.037
414.67	5.516
415.03	4.860
415.38	5.614
415.74	5.212
416.09	4.899
416.45	5.199
416.80	5.354
417.16	5.387
417.51	5.730
417.87	5.867
418.22	5.440
418.58	5.084
418.93	5.455
419.29	4.673
419.64	4.666
420.00	6.927
420.35	5.433
420.71	6.075
421.06	4.788
421.42	5.769
421.77	5.896
422.12	5.335
422.48	6.010
422.83	5.916
423.19	5.756
423.54	4.997
423.90	5.300
424.25	6.372
424.61	6.487
424.96	5.633
425.31	6.239
425.67	5.869
426.02	6.125
426.38	4.759
426.73	5.751
427.09	6.139
427.44	6.765
427.79	5.716
428.15	7.039
428.50	5.694
428.85	5.897
429.21	6.169
429.56	5.876
429.92	6.780
430.27	6.316
430.62	5.646
430.98	6.316
431.33	6.625
431.68	5.913
432.04	5.925
432.39	6.218
432.74	5.472
433.10	7.241
433.45	6.332
433.80	5.456
434.16	5.873
434.51	6.559
434.86	6.098
435.22	6.450
435.57	5.115
435.92	5.749
436.28	6.738
436.63	5.876
436.98	6.141
437.34	5.687
437.69	6.559
438.04	6.268
438.39	6.231
438.75	6.193
439.10	5.999
439.45	6.756
439.81	6.544
440.16	6.057
440.51	7.463
440.86	7.190
441.22	6.674
441.57	6.181
441.92	7.083
442.27	6.596
442.63	7.120
442.98	6.720
443.33	6.233
443.68	6.101
444.03	6.557
444.39	6.296
444.74	7.246
445.09	6.904
445.44	6.097
445.79	6.911
446.15	5.947
446.50	6.101
446.85	6.642
447.20	6.621
447.55	7.031
447.91	6.486
448.26	7.057
448.61	6.621
448.96	6.655
449.31	5.780
449.66	6.098
450.02	6.560
450.37	6.283
450.72	6.873
451.07	7.152
451.42	6.929
451.77	6.450
452.12	6.878
452.47	5.860
452.83	6.832
453.18	6.641
453.53	7.206
453.88	6.982
454.23	6.945
454.58	6.675
454.93	7.474
455.28	5.587
455.63	6.820
455.98	7.336
456.34	6.897
456.69	7.497
457.04	7.120
457.39	6.744
457.74	6.711
458.09	6.769
458.44	6.027
458.79	7.227
459.14	7.437
459.49	6.925
459.84	7.163
460.19	7.160
460.54	7.274
460.89	6.705
461.24	6.087
461.59	7.542
461.94	6.415
462.29	7.238
462.64	7.442
462.99	8.125
463.34	6.467
463.69	7.207
464.04	7.143
464.39	6.974
464.74	7.239
465.09	7.735
465.44	6.924
465.79	7.029
466.14	7.754
466.49	6.325
466.84	7.139
467.19	8.010
467.54	7.791
467.89	6.949
468.24	7.603
468.59	7.683
468.94	6.921
469.29	7.934
469.64	7.177
469.99	6.938
470.34	6.894
470.68	7.457
471.03	7.077
471.38	7.204
471.73	7.563
472.08	7.056
472.43	6.309
472.78	6.511
473.13	6.667
473.48	6.645
473.83	7.347
474.17	6.930
474.52	7.786
474.87	7.394
475.22	7.444
475.57	6.719
475.92	7.460
476.27	7.916
476.61	6.887
476.96	6.637
477.31	7.626
477.66	6.461
478.01	6.625
478.36	7.353
478.70	7.830
479.05	7.033
479.40	7.631
479.75	6.882
480.10	7.271
480.45	7.450
480.79	8.157
481.14	7.582
481.49	6.847
481.84	7.384
482.19	6.455
482.53	7.338
482.88	7.112
483.23	7.054
483.58	7.075
483.92	6.728
484.27	7.475
484.62	7.261
484.97	7.629
485.31	6.611
485.66	7.308
486.01	7.327
486.36	7.161
486.70	7.441
487.05	6.991
487.40	6.954
487.75	7.493
488.09	6.953
488.44	7.050
488.79	7.060
489.13	7.692
489.48	7.097
489.83	6.368
490.17	6.652
490.52	7.436
490.87	7.497
491.22	7.163
491.56	6.831
491.91	7.457
492.26	7.389
492.60	7.486
492.95	7.575
493.30	7.426
493.64	7.417
493.99	7.391
494.34	6.796
494.68	7.333
495.03	7.153
495.37	7.213
495.72	7.118
496.07	7.610
496.41	7.264
496.76	7.508
497.11	7.033
497.45	7.494
497.80	7.114
498.14	7.650
498.49	6.805
498.84	7.585
499.18	7.781
499.53	7.292
499.87	6.955
500.22	7.765
500.56	6.707
500.91	7.882
501.26	7.612
501.60	7.231
501.95	6.938
502.29	7.458
502.64	7.625
502.98	6.660
503.33	7.829
503.67	6.843
504.02	7.429
504.36	8.214
504.71	7.121
505.06	6.945
505.40	7.614
505.75	7.629
506.09	7.603
506.44	7.598
506.78	8.010
507.13	7.342
507.47	7.467
507.82	6.731
508.16	7.079
508.51	8.027
508.85	7.274
509.19	7.451
509.54	7.721
509.88	7.443
510.23	7.208
510.57	7.376
510.92	6.823
511.26	7.747
511.61	7.261
511.95	7.836
512.30	7.373
512.64	8.125
512.98	7.580
513.33	8.506
513.67	7.447
514.02	8.009
514.36	7.943
514.70	7.751
515.05	7.697
515.39	7.733
515.74	7.246
516.08	8.368
516.42	8.481
516.77	8.602
517.11	8.131
517.46	8.019
517.80	7.688
518.14	7.900
518.49	7.212
518.83	7.594
519.17	7.459
519.52	7.756
519.86	7.023
520.20	7.412
520.55	6.379
520.89	8.218
521.23	8.106
521.58	8.202
521.92	7.692
522.26	8.263
522.61	7.857
522.95	7.616
523.29	8.895
523.64	8.069
523.98	8.296
524.32	7.603
524.66	8.515
525.01	9.026
525.35	8.620
525.69	7.946
526.04	7.209
526.38	8.236
526.72	7.717
527.06	7.523
527.41	8.443
527.75	7.172
528.09	8.040
528.43	9.048
528.78	7.855
529.12	8.258
529.46	7.992
529.80	8.170
530.15	9.373
530.49	7.071
530.83	7.250
531.17	7.589
531.51	8.345
531.86	7.002
532.20	8.490
532.54	7.897
532.88	8.008
533.22	8.333
533.57	8.585
533.91	7.898
534.25	8.333
534.59	7.633
534.93	7.867
535.27	7.487
535.62	7.129
535.96	8.480
536.30	9.235
536.64	7.857
536.98	8.432
537.32	9.175
537.66	8.275
538.01	7.063
538.35	8.322
538.69	8.722
539.03	7.724
539.37	8.210
539.71	7.771
540.05	8.622
540.39	7.825
540.73	8.229
541.07	8.564
541.42	8.737
541.76	8.603
542.10	7.708
542.44	7.227
542.78	7.846
543.12	8.310
543.46	8.762
543.80	7.217
544.14	7.610
544.48	8.794
544.82	8.476
545.16	8.607
545.50	8.411
545.84	8.428
546.18	9.291
546.52	8.508
546.86	8.339
547.20	8.298
547.54	7.915
547.88	9.171
548.22	8.218
548.56	8.773
548.90	8.288
549.24	7.713
549.58	9.027
549.92	8.649
550.26	8.425
550.60	8.773
550.94	8.290
551.28	7.805
551.62	9.231
551.96	8.722
552.30	8.333
552.64	7.264
552.98	8.087
553.32	7.989
553.66	7.910
554.00	8.394
554.34	8.936
554.68	8.038
555.02	9.301
555.36	8.826
555.69	7.033
556.03	6.852
556.37	8.399
556.71	8.592
557.05	8.203
557.39	8.327
557.73	8.546
558.07	8.597
558.41	8.270
558.75	8.730
559.08	8.274
559.42	8.413
559.76	8.006
560.10	8.180
560.44	7.818
560.78	8.531
561.12	8.886
561.45	8.082
561.79	7.843
562.13	8.233
562.47	7.194
562.81	8.141
563.15	8.815
563.48	8.628
563.82	8.442
564.16	8.008
564.50	7.365
564.84	8.166
565.17	8.182
565.51	8.538
565.85	8.642
566.19	8.090
566.52	8.445
566.86	8.226
567.20	7.597
567.54	7.421
567.88	8.319
568.21	8.937
568.55	8.043
568.89	8.368
569.23	8.040
569.56	8.625
569.90	8.242
570.24	8.113
570.57	7.636
570.91	8.330
571.25	7.991
571.59	7.910
571.92	8.296
572.26	8.092
572.60	8.093
572.93	8.127
573.27	7.806
573.61	7.757
573.95	8.165
574.28	7.627
574.62	7.679
574.96	7.654
575.29	7.749
575.63	7.955
575.97	7.509
576.30	7.844
576.64	7.682
576.98	8.031
577.31	8.086
577.65	8.142
577.98	7.925
578.32	8.050
578.66	7.286
578.99	7.885
579.33	7.769
579.67	7.923
580.00	7.848
580.34	7.786
580.67	8.210
581.01	7.997
581.35	8.010
581.68	7.774
582.02	7.873
582.35	8.115
582.69	7.966
583.02	7.947
583.36	7.831
583.70	8.359
584.03	7.868
584.37	8.300
584.70	7.940
585.04	7.435
585.37	7.838
585.71	7.875
586.04	7.590
586.38	7.655
586.72	8.293
587.05	7.972
587.39	8.051
587.72	8.147
588.06	8.331
588.39	8.288
588.73	8.181
589.06	8.513
589.40	8.365
589.73	8.835
590.07	7.893
590.40	7.663
590.73	8.155
591.07	8.736
591.40	7.524
591.74	8.100
592.07	9.045
592.41	9.099
592.74	8.204
593.08	8.034
593.41	8.303
593.75	8.570
594.08	7.999
594.41	8.661
594.75	7.481
595.08	7.756
595.42	8.208
595.75	8.299
596.09	7.936
596.42	8.061
596.75	8.082
597.09	8.565
597.42	7.995
597.75	8.016
598.09	7.560
598.42	7.987
598.76	8.065
599.09	8.133
599.42	7.806
599.76	8.202
600.09	7.956
600.42	8.302
600.76	7.727
601.09	7.824
601.42	7.638
601.76	8.337
602.09	7.384
602.42	8.340
602.76	8.489
603.09	8.056
603.42	8.403
603.76	7.540
604.09	8.141
604.42	8.333
604.76	8.233
605.09	7.861
605.42	8.533
605.75	8.625
606.09	8.408
606.42	7.548
606.75	8.268
607.09	8.176
607.42	7.931
607.75	8.082
608.08	7.907
608.42	7.812
608.75	8.675
609.08	8.421
609.41	8.477
609.75	8.518
610.08	7.988
610.41	8.261
610.74	7.655
611.07	7.442
611.41	7.992
611.74	8.742
612.07	8.351
612.40	8.643
612.73	7.345
613.07	8.380
613.40	9.409
613.73	7.387
614.06	8.459
614.39	8.235
614.72	7.899
615.06	7.765
615.39	8.024
615.72	7.589
616.05	8.659
616.38	7.806
616.71	8.440
617.05	8.153
617.38	8.108
617.71	8.113
618.04	8.698
618.37	9.269
618.70	7.195
619.03	8.819
619.36	7.091
619.69	7.430
620.03	8.912
620.36	8.941
620.69	8.494
621.02	8.639
621.35	8.714
621.68	7.568
622.01	8.083
622.34	8.300
622.67	9.306
623.00	8.193
623.33	8.918
623.66	7.853
623.99	8.396
624.32	9.125
624.65	7.744
624.99	8.728
625.32	7.430
625.65	8.013
625.98	9.106
626.31	7.232
626.64	8.406
626.97	8.115
627.30	8.932
627.63	8.059
627.96	7.188
628.29	8.326
628.62	8.653
628.95	7.615
629.28	7.863
629.61	8.175
629.94	9.189
630.26	6.818
630.59	7.284
630.92	8.718
631.25	8.718
631.58	8.150
631.91	7.675
632.24	7.454
632.57	9.432
632.90	7.711
633.23	7.647
633.56	7.557
633.89	7.522
634.22	9.259
634.55	7.116
634.88	8.557
635.20	6.538
635.53	7.333
635.86	6.892
636.19	8.279
636.52	9.056
636.85	7.072
637.18	7.170
637.51	7.421
637.83	8.936
638.16	9.413
638.49	5.858
638.82	8.684
639.15	8.412
639.48	8.391
639.81	8.787
640.13	8.369
640.46	8.309
640.79	8.689
641.12	9.601
641.45	7.808
641.77	9.185
642.10	7.741
642.43	8.682
642.76	9.571
643.09	8.401
643.41	9.547
643.74	7.578
644.07	9.688
644.40	10.811
644.73	9.807
645.05	8.557
645.38	7.584
645.71	5.851
646.04	7.720
646.36	8.511
646.69	10.252
647.02	7.940
647.35	8.582
647.67	10.055
648.00	8.582
648.33	8.874
648.66	8.136
648.98	6.700
649.31	7.934
649.64	9.419
649.96	6.807
650.29	8.007
650.62	9.060
650.94	7.222
651.27	7.263
651.60	9.009
651.92	7.517
652.25	5.506
652.58	8.333
652.90	9.262
653.23	8.571
653.56	8.291
653.88	6.701
654.21	6.305
654.54	7.640
654.86	10.526
655.19	6.871
655.52	8.901
655.84	7.714
656.17	8.499
656.49	11.596
656.82	11.661
657.15	8.946
657.47	6.499
657.80	4.848
658.13	4.763
658.45	7.122
658.78	6.828
659.10	6.285
659.43	6.799
659.75	7.400
660.08	7.310
660.41	8.784
660.73	7.320
661.06	6.759
661.38	7.436
661.71	5.133
662.03	7.082
662.36	7.912
662.68	6.637
663.01	6.987
663.33	7.889
663.66	7.209
663.98	6.047
664.31	9.595
664.63	7.373
664.96	4.783
665.28	5.519
665.61	7.359
665.93	6.739
666.26	9.328
666.58	6.935
666.91	7.765
667.23	9.670
667.56	9.953
667.88	6.475
668.21	6.444
668.53	9.220
668.86	10.613
669.18	6.840
669.50	5.327
669.83	6.512
670.15	7.925
670.48	5.981
670.80	9.908
671.13	8.054
671.45	7.078
671.77	10.944
672.10	8.119
672.42	8.240
672.75	8.881
673.07	10.197
673.39	9.358
673.72	4.931
674.04	8.125
674.37	8.263
674.69	6.424
675.01	9.778
675.34	8.559
675.66	6.250
675.98	7.982
676.31	7.798
676.63	3.563
676.95	6.591
677.28	8.471
677.60	9.639
677.92	7.110
678.25	10.066
678.57	3.896
678.89	8.193
679.22	6.935
679.54	8.434
679.86	5.964
680.18	7.767
680.51	8.712
680.83	7.555
681.15	8.000
681.48	8.197
681.80	8.678
682.12	7.460
682.44	5.439
682.77	7.064
683.09	6.407
683.41	6.136
683.73	9.447
684.06	7.522
684.38	4.516
684.70	6.972
685.02	6.017
685.34	5.138
685.67	6.567
685.99	7.233
686.31	7.611
686.63	8.720
686.96	7.795
687.28	3.434
687.60	6.464
687.92	8.687
688.24	8.468
688.56	4.803
688.89	6.250
689.21	10.444
689.53	6.032
689.85	6.047
690.17	8.705
690.49	6.619
690.82	8.252
691.14	6.429
691.46	7.944
691.78	6.982
692.10	8.172
692.42	7.792
692.74	8.120
693.06	8.108
693.39	8.371
693.71	4.977
694.03	7.390
694.35	8.178
694.67	8.333
694.99	5.483
695.31	10.705
695.63	8.500
695.95	5.303
696.27	8.290
696.59	8.056
696.91	6.723
697.23	3.856
697.56	6.188
697.88	7.097
698.20	5.239
698.52	6.824
698.84	8.612
699.16	6.500
699.48	5.764
699.80	8.685
700.12	4.043
700.44	5.042
700.76	4.360
701.08	3.333
701.40	3.916
701.72	11.111
702.04	7.261
702.36	5.017
702.68	5.706
703.00	6.667
703.32	6.158
703.64	7.345
703.96	5.217
704.28	7.669
704.60	7.619
704.91	6.309
705.23	5.316
705.55	8.481
705.87	10.830
706.19	4.074
706.51	6.529
706.83	7.395
707.15	7.165
707.47	6.723
707.79	7.031
708.11	10.250
708.43	10.000
708.74	6.718
709.06	7.042
709.38	7.951
709.70	8.876
710.02	7.962
710.34	12.693
710.66	0.321
710.98	5.298
711.29	4.262
711.61	4.407
711.93	10.423
712.25	8.935
712.57	5.128
712.89	5.597
713.20	10.381
713.52	6.272
713.84	5.119
714.16	3.436
714.48	4.194
714.80	6.410
715.11	6.687
715.43	3.762
715.75	3.000
716.07	5.648
716.39	5.705
716.70	7.749
717.02	3.053
717.34	8.907
717.66	7.965
717.97	7.391
718.29	7.950
718.61	8.661
718.93	5.426
719.24	8.365
719.56	6.426
719.88	8.935
720.20	2.652
720.51	3.448
720.83	11.197
721.15	5.462
721.46	5.242
721.78	1.976
722.10	7.063
722.42	3.734
722.73	9.796
723.05	12.245
723.37	13.983
723.68	6.306
724.00	10.684
724.32	5.333
724.63	5.455
724.95	4.367
725.27	7.834
725.58	6.356
725.90	4.365
726.22	6.950
726.53	11.864
726.85	10.487
727.16	9.811
727.48	3.644
727.80	9.717
728.11	3.390
728.43	7.843
728.74	1.613
729.06	4.000
729.38	14.286
729.69	6.375
730.01	5.769
730.32	10.075
730.64	5.300
730.96	4.528
731.27	5.667
731.59	5.763
731.90	5.732
732.22	9.779
732.53	6.312
732.85	9.220
733.16	11.111
733.48	2.158
733.80	5.435
734.11	5.763
734.43	5.842
734.74	10.303
735.06	1.629
735.37	8.157
735.69	6.734
736.00	8.014
736.32	6.711
736.63	4.225
736.95	10.239
737.26	5.694
737.58	10.403
737.89	4.762
738.21	5.263
738.52	6.584
738.83	11.354
739.15	4.803
739.46	11.811
739.78	5.861
740.09	9.804
740.41	6.159
740.72	3.543
741.04	7.287
741.35	7.660
741.66	6.635
741.98	5.102
742.29	3.465
742.61	1.047
742.92	1.422
743.23	0.926
743.55	9.050
743.86	9.091
744.18	5.742
744.49	0.000
744.80	-0.543
745.12	5.348
745.43	3.902
745.74	5.729
746.06	8.780
746.37	5.759
746.68	8.057
747.00	-1.064
747.31	9.453
747.62	2.427
747.94	5.742
748.25	3.465
748.56	9.290
748.88	5.759
749.19	4.255
749.50	4.433
749.82	-1.887
750.13	2.752
750.44	10.902
750.75	10.448
751.07	13.869
751.38	4.598
751.69	5.098
752.01	9.690
752.32	5.976
752.63	5.929
752.94	2.155
753.26	17.573
753.57	4.072
753.88	6.637
754.19	1.250
754.51	2.066
754.82	4.049
755.13	10.417
755.44	6.855
755.75	9.375
756.07	8.560
756.38	4.528
756.69	1.149
757.00	4.000
757.31	1.307
757.63	4.878
757.94	7.500
758.25	4.384
758.56	5.053
758.87	5.382
759.18	7.477
759.50	5.455
759.81	3.679
760.12	8.065
760.43	6.061
760.74	6.481
761.05	5.846
761.36	7.102
761.67	10.909
761.99	7.483
762.30	7.273
762.61	7.510
762.92	3.620
763.23	5.405
763.54	4.206
763.85	4.237
764.16	4.979
764.47	4.032
764.78	6.593
765.10	7.071
765.41	6.940
765.72	8.889
766.03	3.759
766.34	8.759
766.65	11.554
766.96	3.030
767.27	4.787
767.58	5.172
767.89	0.709
768.20	9.659
768.51	3.846
768.82	10.345
769.13	4.608
769.44	6.438
769.75	4.110
770.06	8.621
770.37	7.212
770.68	7.107
770.99	4.977
771.30	7.843
771.61	8.145
771.92	4.741
772.23	6.897
772.54	12.366
772.85	5.556
773.16	5.056
773.47	13.072
773.78	3.268
774.09	4.790
774.39	6.667
774.70	6.369
775.01	9.655
775.32	0.714
775.63	-0.826
775.94	4.580
776.25	7.087
776.56	3.333
776.87	0.962
777.18	-1.709
777.48	8.621
777.79	8.696
778.10	3.810
778.41	-0.901
778.72	-2.381
779.03	9.023
779.34	7.092
779.65	11.644
779.95	3.425
780.26	8.276
780.57	-3.252
780.88	7.874
781.19	5.172
781.50	6.202
781.80	3.550
782.11	0.629
782.42	4.615
782.73	-4.317
783.04	5.185
783.34	5.556
783.65	-5.128
783.96	-2.459
784.27	13.103
784.57	4.878
784.88	4.687
785.19	4.000
785.50	7.000
785.81	11.207
786.11	14.655
786.42	0.971
786.73	10.909
787.04	5.102
787.34	8.929
787.65	0.000
787.96	2.655
788.26	6.364
788.57	5.128
788.88	12.500
789.19	10.317
789.49	3.478
789.80	2.041
790.11	6.061
790.41	10.909
790.72	16.304
791.03	2.273
791.33	0.000
791.64	-6.250
791.95	3.488
792.25	6.383
792.56	11.236
792.87	1.370
793.17	7.246
793.48	-13.333
793.79	-1.250
794.09	8.750
794.40	5.660
794.70	1.942
795.01	8.130
795.32	-2.564
795.62	-6.667
795.93	5.882
796.23	4.717
796.54	5.208
796.85	2.941
797.15	1.408
797.46	11.111
797.76	21.212
798.07	8.140
798.37	10.526
798.68	-1.515
798.99	4.938
799.29	8.571
799.60	15.942
799.90	5.333
800.21	19.672
800.51	18.462
800.82	6.780
801.12	8.696
801.43	14.754
801.73	11.111
802.04	-8.000
802.34	-4.478
802.65	3.846
802.95	-19.643
803.26	11.538
803.56	-5.882
803.87	-30.435
804.17	14.667
804.48	19.048
804.78	-7.407
805.09	-10.870
805.39	-11.111
805.70	7.407
806.00	-3.509
806.30	8.451
806.61	8.571
806.91	-6.944
807.22	15.789
807.52	12.000
807.83	3.636
808.13	6.944
808.43	10.294
808.74	7.463
809.04	5.085
809.35	-19.231
809.65	-6.250
809.95	-32.432
810.26	-27.273
810.56	28.767
810.86	-9.524
811.17	14.000
811.47	18.367
811.77	-13.158
812.08	4.545
812.38	0.000
812.69	0.000
812.99	-15.152
813.29	-28.947
813.59	-14.286
813.90	4.545
814.20	-12.821
814.50	0.000
814.81	-3.774
815.11	-8.511
815.41	25.424
815.72	-9.524
816.02	23.529
816.32	-10.417
816.62	-2.439
816.93	-18.919
817.23	5.714
817.53	6.250
817.84	-6.522
818.14	19.231
818.44	7.895
818.74	15.217
819.04	-7.500
819.35	-8.108
819.65	-8.824
819.95	-19.444
820.25	-7.143
820.56	17.500
820.86	-17.241
821.16	47.500
821.46	21.277
821.76	-2.500
822.07	4.651
822.37	-21.622
822.67	-18.750
822.97	11.905
823.27	-14.286
823.57	-24.000
823.88	-51.852
824.18	-7.143
824.48	-2.941
824.78	-6.452
825.08	-26.087
825.38	-9.091
825.69	-25.000
825.99	18.421
826.29	25.000
826.59	-60.000
826.89	-23.810
827.19	21.739
827.49	5.000
827.79	0.000
828.09	-17.857
828.39	-3.030
828.70	43.243
829.00	14.286
829.30	4.762
829.60	16.667
829.90	-6.250
830.20	42.105
830.50	-14.815
830.80	-8.696
831.10	0.000
831.40	51.515
831.70	29.032
832.00	-9.524
832.30	-42.857
832.60	-16.667
832.90	10.345
833.20	-15.000
833.50	21.212
833.80	-14.815
834.10	11.538
834.40	3.125
834.70	22.222
835.00	-52.632
835.30	42.308
835.60	46.667
835.90	22.581
836.20	-9.091
836.50	28.571
836.80	-53.846
837.10	3.571
837.40	-533.333
837.70	9.091
838.00	-18.182
838.30	-13.043
838.60	-46.154
838.90	13.636
839.19	25.000
839.49	26.667
839.79	-46.154
840.09	-100.000
840.39	10.714
840.69	3.571
840.99	-15.385
841.29	-78.947
841.59	-40.000
841.88	-63.636
842.18	-120.000
842.48	12.500
842.78	-40.000
843.08	11.111
843.38	-210.000
843.68	-8.696
843.97	26.667
844.27	-13.333
844.57	5.000
844.87	16.667
845.17	19.048
845.47	0.000
845.76	-47.619
846.06	52.941
846.36	-50.000
846.66	-7.143
846.96	13.333
847.25	-75.000
847.55	0.000
847.85	-37.500
848.15	-13.636
848.44	-366.667
848.74	25.000
849.04	48.148
849.34	9.091
849.63	-116.667
849.93	-120.000
850.23	-27.778
850.53	80.000
850.82	61.538
851.12	-22.222
851.42	-33.333
851.71	-7.692
852.01	-57.143
852.31	-275.000
852.61	-54.545
852.90	5.000
853.20	52.632
853.50	-16.667
853.79	30.435
854.09	33.333
854.39	-15.789
854.68	-29.167
854.98	12.903
855.28	34.615
855.57	30.000
855.87	72.222
856.17	40.741
856.46	-21.429
856.76	-53.333
857.05	33.333
857.35	12.000
857.65	5.556
857.94	15.385
858.24	62.069
858.53	11.111
858.83	25.926
859.13	9.091
859.42	4.348
859.72	150.000
860.01	-366.667
860.31	20.000
860.60	-23.810
860.90	-166.667
861.20	-13.333
861.49	-400.000
861.79	26.667
862.08	45.000
862.38	93.333
862.67	-160.000
862.97	-50.000
863.26	-16.667
863.56	-5.556
863.85	-433.333
864.15	61.111
864.44	-20.000
864.74	57.143
865.03	325.000
865.33	-80.000
865.62	-266.667
865.92	-100.000
866.21	-283.333
866.51	37.500
866.80	-81.818
867.10	-300.000
867.39	50.000
867.69	0.000
867.98	7.692
868.27	-33.333
868.57	-13.333
868.86	33.333
869.16	-15.385
869.45	40.000
869.75	-800.000
870.04	0.000
870.33	-128.571
870.63	66.667
870.92	200.000
871.22	-320.000
871.51	-400.000
871.80	100.000
872.10	133.333
>>>>>End Processed Spectral Data<<<<<
