SpectraSuite Data File
++++++++++++++++++++++++++++++++++++
Date: Fri May 15 20:04:55 PDT 2015
User: schluterlab
Dark Spectrum Present: Yes
Reference Spectrum Present: Yes
Number of Sampled Component Spectra: 1
Spectrometers: USB2E3373
Integration Time (usec): 3000 (USB2E3373)
Spectra Averaged: 3 (USB2E3373)
Boxcar Smoothing: 0 (USB2E3373)
Correct for Electrical Dark: No (USB2E3373)
Strobe/Lamp Enabled: No (USB2E3373)
Correct for Detector Non-linearity: No (USB2E3373)
Correct for Stray Light: No (USB2E3373)
Number of Pixels in Processed Spectrum: 2048
>>>>>Begin Processed Spectral Data<<<<<
178.53	0.000
178.91	0.000
179.29	87.500
179.67	-600.000
180.04	14.286
180.42	150.000
180.80	-500.000
181.18	-33.333
181.56	1000.000
181.94	150.000
182.31	-100.000
182.69	60.000
183.07	-233.333
183.45	-300.000
183.83	133.333
184.20	27.273
184.58	88.889
184.96	-25.000
185.34	-0.000
185.72	-300.000
186.09	38.462
186.47	500.000
186.85	16.667
187.23	122.222
187.61	-700.000
187.98	-433.333
188.36	55.556
188.74	-200.000
189.12	64.706
189.49	66.667
189.87	0.000
190.25	42.857
190.63	200.000
191.00	-33.333
191.38	26.316
191.76	700.000
192.14	-25.000
192.51	100.000
192.89	-44.444
193.27	-14.286
193.65	166.667
194.02	118.182
194.40	-10.000
194.78	-100.000
195.15	-33.333
195.53	-100.000
195.91	150.000
196.29	-175.000
196.66	153.846
197.04	14.286
197.42	-66.667
197.79	-566.667
198.17	-115.385
198.55	1800.000
198.92	-233.333
199.30	-400.000
199.68	-80.000
200.05	-533.333
200.43	0.000
200.81	66.667
201.18	-366.667
201.56	200.000
201.94	-650.000
202.31	-133.333
202.69	-200.000
203.07	75.000
203.44	200.000
203.82	0.000
204.19	35.714
204.57	-566.667
204.95	200.000
205.32	10.000
205.70	-14.286
206.08	-250.000
206.45	166.667
206.83	57.143
207.20	-142.857
207.58	-100.000
207.96	-400.000
208.33	-60.000
208.71	-75.000
209.08	-216.667
209.46	-200.000
209.84	-20.000
210.21	-900.000
210.59	0.000
210.96	-33.333
211.34	0.000
211.71	66.667
212.09	-128.571
212.46	-200.000
212.84	0.000
213.22	-20.000
213.59	500.000
213.97	0.000
214.34	-9.091
214.72	-83.333
215.09	350.000
215.47	0.000
215.84	72.727
216.22	-400.000
216.59	-50.000
216.97	400.000
217.34	25.000
217.72	-180.000
218.09	-75.000
218.47	87.500
218.84	-600.000
219.22	22.222
219.59	20.000
219.97	133.333
220.34	225.000
220.72	57.143
221.09	-200.000
221.47	-350.000
221.84	-450.000
222.22	-500.000
222.59	72.727
222.97	-16.667
223.34	66.667
223.72	-42.857
224.09	9.524
224.46	-7.143
224.84	366.667
225.21	30.000
225.59	-13.333
225.96	0.000
226.34	250.000
226.71	-171.429
227.08	-133.333
227.46	-62.500
227.83	-350.000
228.21	122.222
228.58	27.273
228.95	-137.500
229.33	70.000
229.70	56.250
230.08	-87.500
230.45	14.286
230.82	42.857
231.20	-6.667
231.57	64.286
231.95	-28.571
232.32	-120.000
232.69	28.571
233.07	33.333
233.44	0.000
233.81	-100.000
234.19	44.444
234.56	29.412
234.93	500.000
235.31	-25.000
235.68	-300.000
236.05	-92.308
236.43	-35.000
236.80	-29.412
237.17	-9.375
237.55	-50.000
237.92	-33.333
238.29	8.333
238.67	13.333
239.04	-14.706
239.41	-7.317
239.79	6.667
240.16	-2.439
240.53	-28.947
240.91	-8.696
241.28	-1.587
241.65	5.357
242.02	19.178
242.40	3.333
242.77	-1.695
243.14	-6.061
243.51	-3.750
243.89	9.195
244.26	-9.195
244.63	-8.333
245.00	5.155
245.38	-1.031
245.75	-15.730
246.12	-7.759
246.49	8.264
246.87	-0.962
247.24	-5.042
247.61	-7.018
247.98	-4.878
248.36	0.625
248.73	3.289
249.10	-5.844
249.47	-4.430
249.84	-0.654
250.22	4.706
250.59	7.190
250.96	6.103
251.33	-9.302
251.70	0.000
252.08	-2.030
252.45	3.960
252.82	2.010
253.19	5.069
253.56	-4.206
253.94	4.054
254.31	2.609
254.68	6.579
255.05	5.906
255.42	4.367
255.79	1.158
256.16	3.891
256.54	2.985
256.91	4.563
257.28	2.602
257.65	3.371
258.02	-1.418
258.39	5.051
258.76	1.832
259.14	5.316
259.51	1.294
259.88	3.780
260.25	0.654
260.62	4.861
260.99	0.678
261.36	-4.110
261.73	1.899
262.10	0.912
262.47	2.147
262.85	-1.254
263.22	2.769
263.59	2.804
263.96	5.590
264.33	3.939
264.70	1.190
265.07	1.488
265.44	1.983
265.81	0.847
266.18	4.645
266.55	6.170
266.92	4.404
267.29	1.044
267.66	1.023
268.03	3.665
268.40	2.872
268.77	4.011
269.14	2.878
269.51	2.828
269.88	2.494
270.25	-0.255
270.62	0.732
270.99	-0.767
271.36	0.489
271.73	2.582
272.10	2.676
272.47	1.182
272.84	0.743
273.21	3.248
273.58	1.928
273.95	3.432
274.32	0.693
274.69	0.679
275.06	2.232
275.43	1.361
275.80	0.662
276.17	1.609
276.54	3.426
276.91	2.851
277.28	0.437
277.65	3.306
278.02	2.766
278.39	1.969
278.76	0.839
279.13	0.830
279.50	3.361
279.87	3.456
280.23	-0.430
280.60	2.924
280.97	1.414
281.34	2.500
281.71	4.723
282.08	1.022
282.45	2.348
282.82	1.351
283.19	1.934
283.56	3.468
283.92	-1.328
284.29	0.577
284.66	0.581
285.03	-0.393
285.40	1.512
285.77	1.406
286.14	3.069
286.51	3.506
286.87	1.828
287.24	0.552
287.61	-0.529
287.98	2.807
288.35	2.253
288.72	2.102
289.08	1.736
289.45	2.988
289.82	2.273
290.19	3.413
290.56	1.029
290.93	1.178
291.29	1.387
291.66	2.047
292.03	1.435
292.40	1.129
292.77	1.754
293.13	0.325
293.50	1.214
293.87	2.595
294.24	0.773
294.60	1.192
294.97	3.125
295.34	1.074
295.71	2.235
296.08	0.149
296.44	0.711
296.81	1.528
297.18	1.739
297.55	2.575
297.91	2.329
298.28	3.694
298.65	1.221
299.02	1.078
299.38	-0.137
299.75	1.379
300.12	1.702
300.48	0.659
300.85	1.901
301.22	1.429
301.59	1.316
301.95	3.038
302.32	1.297
302.69	1.368
303.05	0.990
303.42	1.121
303.79	3.388
304.15	3.584
304.52	1.070
304.89	2.339
305.25	1.332
305.62	0.583
305.99	0.585
306.35	0.000
306.72	0.787
307.09	1.824
307.45	2.526
307.82	0.231
308.19	1.394
308.55	1.418
308.92	1.634
309.29	0.894
309.65	1.722
310.02	2.200
310.38	1.317
310.75	1.311
311.12	1.184
311.48	1.166
311.85	0.838
312.22	0.211
312.58	0.000
312.95	0.320
313.31	0.725
313.68	0.419
314.05	1.122
314.41	2.371
314.78	1.959
315.14	2.775
315.51	0.828
315.87	1.844
316.24	2.730
316.61	2.067
316.97	2.381
317.34	1.953
317.70	0.956
318.07	1.538
318.43	2.059
318.80	1.231
319.16	2.344
319.53	1.899
319.89	1.673
320.26	1.721
320.62	1.705
320.99	1.044
321.35	1.953
321.72	1.765
322.08	2.216
322.45	0.914
322.81	1.375
323.18	0.393
323.54	1.448
323.91	1.655
324.27	0.684
324.64	1.124
325.00	3.102
325.37	2.938
325.73	1.541
326.10	1.544
326.46	2.063
326.83	2.625
327.19	1.831
327.56	2.780
327.92	2.641
328.29	2.500
328.65	1.321
329.01	2.665
329.38	2.949
329.74	1.228
330.11	2.780
330.47	1.763
330.84	1.442
331.20	2.852
331.56	2.130
331.93	2.100
332.29	2.566
332.66	3.258
333.02	0.836
333.38	1.833
333.75	2.381
334.11	1.701
334.48	2.992
334.84	2.015
335.20	2.745
335.57	1.995
335.93	1.626
336.29	1.289
336.66	1.726
337.02	1.208
337.38	1.574
337.75	1.909
338.11	2.615
338.47	2.190
338.84	2.773
339.20	1.645
339.56	2.294
339.93	3.581
340.29	2.385
340.65	3.584
341.02	2.128
341.38	1.504
341.74	1.767
342.11	1.560
342.47	1.690
342.83	2.336
343.20	2.352
343.56	3.043
343.92	1.860
344.28	3.074
344.65	1.382
345.01	1.642
345.37	2.439
345.73	3.347
346.10	2.934
346.46	2.439
346.82	3.028
347.19	1.829
347.55	2.924
347.91	2.751
348.27	2.829
348.63	2.300
349.00	2.379
349.36	1.579
349.72	3.317
350.08	2.623
350.45	3.751
350.81	0.581
351.17	2.443
351.53	2.286
351.89	1.652
352.26	2.320
352.62	2.258
352.98	2.490
353.34	3.060
353.70	3.155
354.07	2.016
354.43	2.962
354.79	1.734
355.15	2.778
355.51	3.085
355.87	2.265
356.24	1.958
356.60	2.668
356.96	2.619
357.32	2.476
357.68	2.267
358.04	2.100
358.40	2.653
358.77	2.073
359.13	1.681
359.49	1.772
359.85	1.794
360.21	2.153
360.57	2.066
360.93	2.950
361.29	1.208
361.66	2.429
362.02	2.500
362.38	2.209
362.74	2.044
363.10	2.182
363.46	2.743
363.82	3.080
364.18	3.100
364.54	2.132
364.90	2.437
365.26	2.256
365.62	3.139
365.98	2.126
366.35	3.277
366.71	2.365
367.07	2.395
367.43	2.157
367.79	2.473
368.15	2.800
368.51	2.913
368.87	1.436
369.23	2.527
369.59	2.915
369.95	2.933
370.31	2.529
370.67	1.940
371.03	1.942
371.39	2.407
371.75	2.857
372.11	3.352
372.47	1.923
372.83	2.626
373.19	3.067
373.55	1.300
373.91	2.880
374.27	2.835
374.63	2.800
374.99	2.340
375.35	3.134
375.71	3.636
376.07	2.809
376.42	2.653
376.78	3.154
377.14	2.167
377.50	2.988
377.86	2.945
378.22	3.318
378.58	2.500
378.94	2.773
379.30	2.932
379.66	3.574
380.02	2.820
380.38	3.165
380.74	3.172
381.09	3.742
381.45	2.752
381.81	2.344
382.17	2.411
382.53	2.124
382.89	2.448
383.25	2.987
383.61	3.841
383.97	2.540
384.32	3.252
384.68	3.034
385.04	2.757
385.40	3.049
385.76	3.333
386.12	3.299
386.48	2.937
386.83	2.917
387.19	3.663
387.55	3.764
387.91	3.362
388.27	3.236
388.62	3.650
388.98	3.499
389.34	3.748
389.70	3.978
390.06	3.398
390.42	3.627
390.77	3.074
391.13	3.279
391.49	3.558
391.85	3.119
392.20	2.950
392.56	2.606
392.92	4.169
393.28	3.361
393.64	3.483
393.99	4.389
394.35	2.404
394.71	3.448
395.07	4.085
395.42	3.157
395.78	3.062
396.14	4.035
396.50	3.551
396.85	3.413
397.21	2.820
397.57	2.884
397.92	3.895
398.28	3.678
398.64	3.072
399.00	3.894
399.35	3.047
399.71	3.791
400.07	3.990
400.42	4.039
400.78	4.287
401.14	3.509
401.49	4.169
401.85	4.083
402.21	3.313
402.57	4.563
402.92	3.639
403.28	4.261
403.63	3.594
403.99	3.635
404.35	3.435
404.70	3.690
405.06	3.937
405.42	4.413
405.77	2.499
406.13	3.201
406.49	3.671
406.84	3.362
407.20	3.853
407.55	3.091
407.91	3.409
408.27	3.569
408.62	4.308
408.98	4.251
409.34	4.399
409.69	3.295
410.05	4.249
410.40	4.259
410.76	4.282
411.11	3.875
411.47	3.485
411.83	3.390
412.18	3.861
412.54	4.182
412.89	3.510
413.25	4.152
413.60	3.913
413.96	3.988
414.31	4.024
414.67	4.169
415.03	4.128
415.38	4.373
415.74	3.974
416.09	5.617
416.45	4.254
416.80	3.966
417.16	4.489
417.51	4.330
417.87	4.759
418.22	4.016
418.58	4.013
418.93	3.824
419.29	3.841
419.64	3.694
420.00	4.408
420.35	4.119
420.71	4.374
421.06	4.604
421.42	4.688
421.77	4.162
422.12	4.200
422.48	4.819
422.83	4.176
423.19	4.345
423.54	3.586
423.90	4.122
424.25	3.961
424.61	4.406
424.96	5.343
425.31	4.795
425.67	4.812
426.02	4.653
426.38	4.133
426.73	3.814
427.09	4.494
427.44	4.706
427.79	4.302
428.15	5.279
428.50	4.179
428.85	4.054
429.21	4.697
429.56	5.229
429.92	4.879
430.27	4.712
430.62	4.548
430.98	4.565
431.33	4.416
431.68	4.919
432.04	4.080
432.39	4.621
432.74	4.510
433.10	5.057
433.45	4.958
433.80	4.411
434.16	3.823
434.51	4.570
434.86	5.110
435.22	4.206
435.57	4.367
435.92	5.030
436.28	5.307
436.63	4.735
436.98	4.577
437.34	4.295
437.69	4.592
438.04	4.103
438.39	4.643
438.75	3.947
439.10	4.641
439.45	4.869
439.81	4.465
440.16	4.335
440.51	5.134
440.86	5.378
441.22	4.581
441.57	5.243
441.92	5.299
442.27	4.989
442.63	5.996
442.98	4.710
443.33	4.897
443.68	4.615
444.03	5.266
444.39	4.968
444.74	5.072
445.09	5.568
445.44	4.900
445.79	5.570
446.15	5.231
446.50	4.437
446.85	4.676
447.20	4.692
447.55	5.525
447.91	5.133
448.26	5.293
448.61	5.815
448.96	5.164
449.31	4.566
449.66	4.704
450.02	5.191
450.37	4.979
450.72	4.811
451.07	5.380
451.42	5.431
451.77	4.882
452.12	4.605
452.47	4.636
452.83	4.947
453.18	5.566
453.53	5.373
453.88	5.343
454.23	5.655
454.58	4.597
454.93	5.606
455.28	4.190
455.63	5.890
455.98	5.893
456.34	5.109
456.69	5.781
457.04	5.860
457.39	5.893
457.74	5.139
458.09	4.944
458.44	4.798
458.79	4.986
459.14	5.664
459.49	6.090
459.84	5.189
460.19	5.400
460.54	5.685
460.89	5.341
461.24	5.963
461.59	6.116
461.94	4.843
462.29	5.127
462.64	5.581
462.99	5.416
463.34	4.520
463.69	5.148
464.04	5.993
464.39	5.155
464.74	5.583
465.09	6.176
465.44	5.424
465.79	5.215
466.14	5.758
466.49	5.175
466.84	5.116
467.19	5.131
467.54	5.556
467.89	5.938
468.24	4.684
468.59	5.397
468.94	6.222
469.29	5.705
469.64	6.152
469.99	5.676
470.34	4.437
470.68	5.444
471.03	5.520
471.38	5.991
471.73	4.832
472.08	4.206
472.43	4.966
472.78	4.729
473.13	5.102
473.48	5.472
473.83	5.168
474.17	5.959
474.52	4.978
474.87	6.182
475.22	5.308
475.57	5.703
475.92	5.431
476.27	6.112
476.61	5.266
476.96	4.685
477.31	6.382
477.66	5.618
478.01	5.503
478.36	5.065
478.70	5.927
479.05	6.429
479.40	6.041
479.75	5.422
480.10	5.735
480.45	4.900
480.79	5.690
481.14	4.969
481.49	5.025
481.84	5.454
482.19	5.379
482.53	5.899
482.88	5.680
483.23	5.518
483.58	6.132
483.92	5.615
484.27	5.059
484.62	5.872
484.97	5.348
485.31	5.347
485.66	5.373
486.01	5.362
486.36	5.275
486.70	5.604
487.05	5.539
487.40	5.274
487.75	5.408
488.09	5.253
488.44	5.571
488.79	5.977
489.13	5.449
489.48	5.558
489.83	5.785
490.17	5.528
490.52	5.727
490.87	5.553
491.22	5.587
491.56	5.645
491.91	6.071
492.26	5.639
492.60	5.326
492.95	6.542
493.30	5.471
493.64	5.501
493.99	5.942
494.34	5.680
494.68	5.762
495.03	4.672
495.37	5.643
495.72	5.351
496.07	6.098
496.41	5.849
496.76	5.527
497.11	5.543
497.45	6.110
497.80	5.903
498.14	5.961
498.49	5.637
498.84	5.888
499.18	5.622
499.53	5.109
499.87	4.669
500.22	5.984
500.56	5.446
500.91	5.873
501.26	5.289
501.60	5.607
501.95	5.822
502.29	5.714
502.64	5.695
502.98	5.180
503.33	5.764
503.67	5.398
504.02	6.647
504.36	5.789
504.71	5.253
505.06	6.341
505.40	5.330
505.75	6.237
506.09	5.271
506.44	6.571
506.78	6.122
507.13	6.256
507.47	5.744
507.82	4.861
508.16	6.075
508.51	5.299
508.85	5.442
509.19	4.949
509.54	5.737
509.88	5.717
510.23	5.433
510.57	5.986
510.92	4.797
511.26	5.565
511.61	5.721
511.95	5.644
512.30	6.153
512.64	6.233
512.98	5.053
513.33	6.323
513.67	5.685
514.02	6.693
514.36	6.057
514.70	5.594
515.05	5.817
515.39	5.903
515.74	6.168
516.08	5.977
516.42	6.419
516.77	6.319
517.11	5.935
517.46	6.403
517.80	6.377
518.14	5.756
518.49	6.010
518.83	5.650
519.17	6.428
519.52	5.447
519.86	4.862
520.20	6.075
520.55	5.128
520.89	6.399
521.23	5.890
521.58	6.435
521.92	5.577
522.26	5.660
522.61	6.494
522.95	6.291
523.29	6.226
523.64	6.163
523.98	5.833
524.32	5.026
524.66	6.530
525.01	6.104
525.35	6.416
525.69	5.320
526.04	6.151
526.38	6.939
526.72	6.082
527.06	5.901
527.41	6.530
527.75	5.228
528.09	5.449
528.43	6.550
528.78	6.205
529.12	6.129
529.46	5.848
529.80	6.143
530.15	5.809
530.49	6.061
530.83	6.635
531.17	6.313
531.51	7.045
531.86	6.118
532.20	5.637
532.54	6.399
532.88	6.639
533.22	6.317
533.57	6.356
533.91	5.614
534.25	6.966
534.59	6.222
534.93	6.671
535.27	5.457
535.62	5.898
535.96	6.327
536.30	6.003
536.64	6.340
536.98	5.575
537.32	6.472
537.66	6.662
538.01	6.224
538.35	5.617
538.69	6.192
539.03	6.083
539.37	7.201
539.71	6.067
540.05	6.993
540.39	7.410
540.73	5.927
541.07	6.699
541.42	7.258
541.76	7.158
542.10	6.332
542.44	5.976
542.78	6.332
543.12	6.113
543.46	5.911
543.80	6.176
544.14	5.874
544.48	6.529
544.82	6.152
545.16	7.172
545.50	6.809
545.84	6.657
546.18	6.525
546.52	5.984
546.86	6.686
547.20	6.438
547.54	4.806
547.88	6.861
548.22	5.851
548.56	6.266
548.90	7.075
549.24	6.474
549.58	6.841
549.92	5.861
550.26	6.374
550.60	6.320
550.94	6.945
551.28	7.187
551.62	7.154
551.96	6.617
552.30	6.067
552.64	5.712
552.98	6.259
553.32	6.491
553.66	5.298
554.00	6.204
554.34	6.721
554.68	5.900
555.02	5.729
555.36	6.208
555.69	5.128
556.03	5.853
556.37	6.263
556.71	6.715
557.05	5.742
557.39	6.171
557.73	6.222
558.07	6.712
558.41	5.972
558.75	6.080
559.08	5.753
559.42	5.952
559.76	6.405
560.10	6.040
560.44	5.882
560.78	6.014
561.12	5.642
561.45	6.746
561.79	6.443
562.13	6.742
562.47	5.468
562.81	6.628
563.15	6.206
563.48	6.082
563.82	7.344
564.16	6.685
564.50	6.216
564.84	6.426
565.17	5.567
565.51	7.582
565.85	5.830
566.19	6.233
566.52	6.099
566.86	6.812
567.20	6.476
567.54	6.752
567.88	6.034
568.21	6.052
568.55	6.304
568.89	6.468
569.23	5.874
569.56	6.130
569.90	6.171
570.24	5.917
570.57	6.000
570.91	5.925
571.25	5.459
571.59	5.948
571.92	5.511
572.26	5.586
572.60	5.736
572.93	6.244
573.27	5.455
573.61	5.698
573.95	6.144
574.28	5.376
574.62	5.517
574.96	5.261
575.29	5.603
575.63	5.831
575.97	5.584
576.30	5.426
576.64	5.377
576.98	5.869
577.31	5.603
577.65	5.826
577.98	5.833
578.32	5.652
578.66	5.609
578.99	5.569
579.33	5.821
579.67	5.829
580.00	5.494
580.34	5.697
580.67	5.663
581.01	5.572
581.35	5.469
581.68	5.570
582.02	5.469
582.35	5.701
582.69	5.473
583.02	5.597
583.36	5.583
583.70	5.841
584.03	5.560
584.37	6.522
584.70	5.852
585.04	5.466
585.37	5.946
585.71	5.776
586.04	5.698
586.38	5.815
586.72	6.341
587.05	6.066
587.39	6.039
587.72	5.796
588.06	5.840
588.39	5.753
588.73	5.983
589.06	6.099
589.40	5.980
589.73	6.243
590.07	6.231
590.40	6.269
590.73	6.178
591.07	6.234
591.40	6.144
591.74	6.561
592.07	6.818
592.41	6.272
592.74	5.974
593.08	5.623
593.41	5.898
593.75	5.725
594.08	5.905
594.41	6.223
594.75	5.992
595.08	6.129
595.42	6.441
595.75	6.046
596.09	5.590
596.42	5.953
596.75	6.083
597.09	6.105
597.42	6.504
597.75	6.047
598.09	6.519
598.42	5.776
598.76	5.877
599.09	6.250
599.42	6.025
599.76	6.057
600.09	5.845
600.42	5.876
600.76	5.349
601.09	5.649
601.42	5.758
601.76	5.875
602.09	5.652
602.42	6.318
602.76	6.070
603.09	6.478
603.42	6.522
603.76	5.363
604.09	6.116
604.42	5.880
604.76	6.053
605.09	6.261
605.42	6.050
605.75	5.823
606.09	5.817
606.42	6.047
606.75	5.801
607.09	6.286
607.42	5.848
607.75	5.995
608.08	5.660
608.42	5.939
608.75	6.313
609.08	5.979
609.41	6.193
609.75	5.948
610.08	5.791
610.41	6.039
610.74	6.338
611.07	5.478
611.41	5.968
611.74	5.917
612.07	5.728
612.40	6.072
612.73	6.215
613.07	4.949
613.40	6.291
613.73	4.757
614.06	6.678
614.39	6.317
614.72	5.826
615.06	6.145
615.39	6.168
615.72	5.597
616.05	6.648
616.38	5.470
616.71	6.361
617.05	5.806
617.38	6.348
617.71	6.038
618.04	6.476
618.37	6.873
618.70	6.601
619.03	6.250
619.36	5.355
619.69	6.596
620.03	7.232
620.36	5.722
620.69	5.710
621.02	5.657
621.35	6.141
621.68	6.293
622.01	6.083
622.34	6.624
622.67	6.151
623.00	6.508
623.33	6.555
623.66	5.834
623.99	5.598
624.32	7.605
624.65	5.414
624.99	6.321
625.32	5.231
625.65	6.599
625.98	7.091
626.31	6.151
626.64	6.586
626.97	7.155
627.30	6.830
627.63	7.539
627.96	5.930
628.29	6.938
628.62	5.506
628.95	7.615
629.28	6.653
629.61	4.686
629.94	6.745
630.26	6.621
630.59	5.723
630.92	7.590
631.25	7.282
631.58	5.066
631.91	5.702
632.24	6.881
632.57	7.273
632.90	5.575
633.23	8.235
633.56	6.045
633.89	5.919
634.22	7.284
634.55	5.972
634.88	6.897
635.20	5.513
635.53	8.133
635.86	5.462
636.19	8.021
636.52	5.995
636.85	4.467
637.18	5.409
637.51	7.296
637.83	6.833
638.16	6.821
638.49	6.267
638.82	8.158
639.15	6.784
639.48	6.327
639.81	6.974
640.13	5.483
640.46	8.601
640.79	5.744
641.12	4.284
641.45	6.757
641.77	7.407
642.10	6.951
642.43	6.752
642.76	6.106
643.09	6.462
643.41	8.414
643.74	5.601
644.07	7.553
644.40	8.784
644.73	7.531
645.05	4.698
645.38	8.818
645.71	4.787
646.04	6.104
646.36	7.447
646.69	8.273
647.02	5.671
647.35	7.649
647.67	7.861
648.00	7.649
648.33	7.679
648.66	7.288
648.98	5.025
649.31	4.132
649.64	6.907
649.96	4.700
650.29	5.792
650.62	8.034
650.94	6.296
651.27	4.469
651.60	6.306
651.92	7.343
652.25	4.263
652.58	5.500
652.90	6.175
653.23	7.059
653.56	6.937
653.88	6.357
654.21	4.553
654.54	6.112
654.86	6.112
655.19	5.263
655.52	5.728
655.84	5.096
656.17	5.382
656.49	7.265
656.82	8.177
657.15	6.407
657.47	4.872
657.80	3.681
658.13	3.602
658.45	5.868
658.78	6.247
659.10	6.089
659.43	6.112
659.75	7.153
660.08	6.414
660.41	7.048
660.73	7.873
661.06	7.279
661.38	4.892
661.71	5.749
662.03	6.867
662.36	9.011
662.68	5.310
663.01	7.860
663.33	4.176
663.66	4.186
663.98	4.186
664.31	4.478
664.63	3.917
664.96	4.348
665.28	2.208
665.61	6.277
665.93	8.043
666.26	8.894
666.58	4.474
666.91	2.588
667.23	7.311
667.56	8.531
667.88	5.036
668.21	4.057
668.53	6.856
668.86	6.840
669.18	5.189
669.50	5.569
669.83	4.651
670.15	6.993
670.48	7.177
670.80	5.760
671.13	6.040
671.45	5.479
671.77	7.725
672.10	7.723
672.42	7.303
672.75	6.927
673.07	7.692
673.39	6.972
673.72	3.550
674.04	6.042
674.37	9.322
674.69	7.709
675.01	8.222
675.34	6.982
675.66	6.019
675.98	5.322
676.31	7.339
676.63	3.800
676.95	5.909
677.28	8.706
677.60	5.783
677.92	6.193
678.25	7.002
678.57	7.143
678.89	6.513
679.22	4.698
679.54	3.614
679.86	5.567
680.18	4.078
680.51	5.492
680.83	4.771
681.15	6.800
681.48	9.426
681.80	7.231
682.12	6.250
682.44	7.950
682.77	7.506
683.09	8.238
683.41	5.227
683.73	8.065
684.06	7.965
684.38	3.226
684.70	5.664
685.02	4.772
685.34	6.126
685.67	6.379
685.99	7.052
686.31	7.965
686.63	7.236
686.96	3.992
687.28	1.818
687.60	3.232
687.92	5.859
688.24	7.056
688.56	4.803
688.89	6.696
689.21	9.333
689.53	6.497
689.85	6.977
690.17	4.464
690.49	2.837
690.82	5.583
691.14	2.857
691.46	6.075
691.78	4.955
692.10	6.667
692.42	5.411
692.74	8.120
693.06	4.505
693.39	5.656
693.71	5.430
694.03	4.850
694.35	5.841
694.67	5.556
694.99	3.133
695.31	6.789
695.63	5.750
695.95	4.798
696.27	5.440
696.59	9.167
696.91	4.202
697.23	1.799
697.56	2.723
697.88	7.097
698.20	7.289
698.52	4.941
698.84	4.306
699.16	5.250
699.48	5.013
699.80	6.700
700.12	5.391
700.44	5.602
700.76	0.872
701.08	6.061
701.40	5.422
701.72	8.642
702.04	2.640
702.36	6.355
702.68	5.706
703.00	6.970
703.32	4.399
703.64	0.000
703.96	4.348
704.28	5.215
704.60	3.175
704.91	2.524
705.23	1.329
705.55	6.360
705.87	5.415
706.19	7.778
706.51	4.124
706.83	7.074
707.15	0.312
707.47	4.202
707.79	2.083
708.11	8.000
708.43	5.500
708.74	6.460
709.06	4.789
709.38	3.976
709.70	6.805
710.02	7.006
710.34	7.740
710.66	3.205
710.98	3.311
711.29	6.557
711.61	3.051
711.93	3.583
712.25	9.966
712.57	5.495
712.89	2.985
713.20	6.920
713.52	9.059
713.84	6.143
714.16	6.186
714.48	6.452
714.80	6.731
715.11	7.295
715.43	2.508
715.75	5.667
716.07	4.319
716.39	2.685
716.70	2.952
717.02	2.290
717.34	10.526
717.66	7.965
717.97	7.391
718.29	5.439
718.61	6.299
718.93	5.039
719.24	7.985
719.56	6.426
719.88	5.842
720.20	0.379
720.51	3.448
720.83	9.266
721.15	8.403
721.46	6.452
721.78	5.138
722.10	7.435
722.42	0.830
722.73	6.939
723.05	11.020
723.37	6.780
723.68	6.757
724.00	1.709
724.32	3.111
724.63	1.818
724.95	3.057
725.27	6.452
725.58	7.627
725.90	2.381
726.22	1.931
726.53	8.814
726.85	6.742
727.16	13.585
727.48	3.239
727.80	7.287
728.11	5.508
728.43	5.098
728.74	3.629
729.06	6.000
729.38	6.767
729.69	4.382
730.01	3.077
730.32	6.343
730.64	6.360
730.96	4.906
731.27	5.667
731.59	3.729
731.90	4.459
732.22	4.732
732.53	6.312
732.85	5.674
733.16	5.724
733.48	1.439
733.80	2.536
734.11	6.780
734.43	6.873
734.74	6.970
735.06	0.977
735.37	5.136
735.69	8.754
736.00	2.787
736.32	6.040
736.63	4.225
736.95	8.191
737.26	2.491
737.58	6.376
737.89	5.128
738.21	4.135
738.52	5.350
738.83	3.057
739.15	2.183
739.46	1.969
739.78	0.733
740.09	3.922
740.41	5.072
740.72	5.512
741.04	5.668
741.35	3.830
741.66	0.474
741.98	5.102
742.29	6.436
742.61	4.188
742.92	-1.422
743.23	0.926
743.55	8.597
743.86	4.785
744.18	-0.478
744.49	0.532
744.80	2.174
745.12	9.626
745.43	0.000
745.74	6.250
746.06	2.927
746.37	7.330
746.68	9.005
747.00	1.064
747.31	6.965
747.62	2.427
747.94	3.349
748.25	0.990
748.56	-0.546
748.88	0.524
749.19	5.319
749.50	6.897
749.82	2.358
750.13	0.917
750.44	9.398
750.75	8.209
751.07	9.489
751.38	4.981
751.69	2.745
752.01	5.426
752.32	4.382
752.63	1.581
752.94	5.603
753.26	13.808
753.57	5.430
753.88	3.097
754.19	3.333
754.51	2.479
754.82	6.883
755.13	11.667
755.44	2.823
755.75	3.906
756.07	1.946
756.38	2.642
756.69	1.149
757.00	2.667
757.31	7.516
757.63	1.524
757.94	5.278
758.25	1.370
758.56	4.787
758.87	1.983
759.18	3.738
759.50	-0.364
759.81	5.351
760.12	4.194
760.43	4.545
760.74	5.864
761.05	4.615
761.36	2.273
761.67	9.394
761.99	6.122
762.30	4.727
762.61	6.324
762.92	4.072
763.23	1.802
763.54	-3.271
763.85	4.237
764.16	2.490
764.47	6.048
764.78	4.396
765.10	6.397
765.41	5.678
765.72	6.984
766.03	-1.128
766.34	6.204
766.65	6.375
766.96	5.051
767.27	6.915
767.58	2.299
767.89	-4.255
768.20	2.273
768.51	6.044
768.82	1.478
769.13	0.922
769.44	0.429
769.75	0.913
770.06	7.328
770.37	4.327
770.68	6.599
770.99	5.882
771.30	6.863
771.61	5.430
771.92	9.052
772.23	4.926
772.54	4.301
772.85	6.173
773.16	3.933
773.47	8.497
773.78	1.961
774.09	4.790
774.39	3.333
774.70	8.917
775.01	11.034
775.32	-5.714
775.63	-1.653
775.94	5.344
776.25	7.874
776.56	2.500
776.87	0.962
777.18	6.838
777.48	9.483
777.79	-3.478
778.10	-15.238
778.41	0.901
778.72	11.111
779.03	0.752
779.34	4.965
779.65	10.959
779.95	2.055
780.26	10.345
780.57	-5.691
780.88	-0.787
781.19	-3.448
781.50	3.876
781.80	2.959
782.11	-3.145
782.42	6.923
782.73	5.755
783.04	0.741
783.34	-2.778
783.65	-17.949
783.96	3.279
784.27	11.724
784.57	0.000
784.88	7.031
785.19	9.000
785.50	14.000
785.81	6.034
786.11	-1.724
786.42	3.883
786.73	8.182
787.04	0.000
787.34	-4.464
787.65	-4.762
787.96	0.885
788.26	-1.818
788.57	0.000
788.88	12.500
789.19	3.175
789.49	5.217
789.80	-6.122
790.11	4.040
790.41	6.364
790.72	10.870
791.03	-2.273
791.33	15.000
791.64	5.000
791.95	-1.163
792.25	1.064
792.56	5.618
792.87	1.370
793.17	18.841
793.48	-18.667
793.79	-1.250
794.09	2.500
794.40	4.717
794.70	-6.796
795.01	-5.691
795.32	5.128
795.62	-5.714
795.93	3.922
796.23	11.321
796.54	8.333
796.85	4.412
797.15	-1.408
797.46	13.889
797.76	10.606
798.07	1.163
798.37	-14.474
798.68	-15.152
798.99	-2.469
799.29	-11.429
799.60	-1.449
799.90	13.333
800.21	6.557
800.51	-13.846
800.82	5.085
801.12	18.841
801.43	-4.918
801.73	11.111
802.04	-4.000
802.34	-1.493
802.65	1.923
802.95	3.571
803.26	-3.846
803.56	-15.686
803.87	-26.087
804.17	10.667
804.48	0.000
804.78	-9.259
805.09	-8.696
805.39	-8.889
805.70	0.000
806.00	-36.842
806.30	-4.225
806.61	5.714
806.91	-12.500
807.22	13.158
807.52	8.000
807.83	-14.545
808.13	-5.556
808.43	-1.471
808.74	-4.478
809.04	1.695
809.35	-15.385
809.65	1.563
809.95	-43.243
810.26	-18.182
810.56	0.000
810.86	-30.952
811.17	12.000
811.47	12.245
811.77	-18.421
812.08	-2.273
812.38	1.887
812.69	-7.500
812.99	-39.394
813.29	23.684
813.59	-45.714
813.90	4.545
814.20	-41.026
814.50	-1.923
814.81	5.660
815.11	-14.894
815.41	11.864
815.72	-19.048
816.02	3.922
816.32	8.333
816.62	-2.439
816.93	2.703
817.23	11.429
817.53	12.500
817.84	13.043
818.14	5.769
818.44	0.000
818.74	34.783
819.04	-45.000
819.35	13.514
819.65	-20.588
819.95	-11.111
820.25	-21.429
820.56	15.000
820.86	-31.034
821.16	35.000
821.46	12.766
821.76	2.500
822.07	-6.977
822.37	-27.027
822.67	-15.625
822.97	16.667
823.27	-42.857
823.57	-28.000
823.88	-29.630
824.18	0.000
824.48	11.765
824.78	-32.258
825.08	-82.609
825.38	-24.242
825.69	-25.000
825.99	-13.158
826.29	5.556
826.59	-53.333
826.89	-57.143
827.19	0.000
827.49	-10.000
827.79	8.571
828.09	17.857
828.39	18.182
828.70	10.811
829.00	-17.857
829.30	-42.857
829.60	-3.333
829.90	-15.625
830.20	34.211
830.50	-29.630
830.80	-43.478
831.10	-4.545
831.40	36.364
831.70	32.258
832.00	4.762
832.30	-23.810
832.60	-91.667
832.90	-20.690
833.20	-10.000
833.50	6.061
833.80	0.000
834.10	34.615
834.40	12.500
834.70	-122.222
835.00	-15.789
835.30	19.231
835.60	60.000
835.90	16.129
836.20	-18.182
836.50	-3.571
836.80	-26.923
837.10	-25.000
837.40	-300.000
837.70	9.091
838.00	-18.182
838.30	-17.391
838.60	7.692
838.90	22.727
839.19	-32.143
839.49	33.333
839.79	-23.077
840.09	-100.000
840.39	3.571
840.69	25.000
840.99	-53.846
841.29	-26.316
841.59	-170.000
841.88	-36.364
842.18	-40.000
842.48	-12.500
842.78	-26.667
843.08	-22.222
843.38	-30.000
843.68	4.348
843.97	-26.667
844.27	-73.333
844.57	-10.000
844.87	22.222
845.17	-14.286
845.47	-73.333
845.76	-38.095
846.06	11.765
846.36	-110.000
846.66	-21.429
846.96	13.333
847.25	-87.500
847.55	71.429
847.85	-50.000
848.15	-4.545
848.44	-533.333
848.74	-60.000
849.04	44.444
849.34	-54.545
849.63	-250.000
849.93	-420.000
850.23	-38.889
850.53	-50.000
850.82	7.692
851.12	44.444
851.42	20.000
851.71	34.615
852.01	0.000
852.31	-75.000
852.61	-72.727
852.90	-15.000
853.20	5.263
853.50	-8.333
853.79	-8.696
854.09	45.833
854.39	-42.105
854.68	-16.667
854.98	12.903
855.28	19.231
855.57	-25.000
855.87	-16.667
856.17	14.815
856.46	-71.429
856.76	-53.333
857.05	-55.556
857.35	4.000
857.65	33.333
857.94	-61.538
858.24	41.379
858.53	11.111
858.83	-3.704
859.13	0.000
859.42	-17.391
859.72	-150.000
860.01	-566.667
860.31	20.000
860.60	14.286
860.90	-300.000
861.20	-40.000
861.49	-700.000
861.79	-6.667
862.08	-30.000
862.38	33.333
862.67	-140.000
862.97	-183.333
863.26	-8.333
863.56	0.000
863.85	-266.667
864.15	16.667
864.44	-20.000
864.74	71.429
865.03	-50.000
865.33	-40.000
865.62	-33.333
865.92	-8.333
866.21	-233.333
866.51	68.750
866.80	-63.636
867.10	-450.000
867.39	0.000
867.69	0.000
867.98	-61.538
868.27	-133.333
868.57	-46.667
868.86	-27.778
869.16	-30.769
869.45	33.333
869.75	-1600.000
870.04	0.000
870.33	-42.857
870.63	42.857
870.92	366.667
871.22	-200.000
871.51	-1500.000
871.80	0.000
872.10	366.667
>>>>>End Processed Spectral Data<<<<<
