SpectraSuite Data File
++++++++++++++++++++++++++++++++++++
Date: Wed May 13 20:26:16 PDT 2015
User: schluterlab
Dark Spectrum Present: Yes
Reference Spectrum Present: Yes
Number of Sampled Component Spectra: 1
Spectrometers: USB2E3373
Integration Time (usec): 3000 (USB2E3373)
Spectra Averaged: 3 (USB2E3373)
Boxcar Smoothing: 0 (USB2E3373)
Correct for Electrical Dark: No (USB2E3373)
Strobe/Lamp Enabled: No (USB2E3373)
Correct for Detector Non-linearity: No (USB2E3373)
Correct for Stray Light: No (USB2E3373)
Number of Pixels in Processed Spectrum: 2048
>>>>>Begin Processed Spectral Data<<<<<
178.53	0.000
178.91	-1050.000
179.29	-1150.000
179.67	-250.000
180.04	-1150.000
180.42	2600.000
180.80	840.000
181.18	-725.000
181.56	685.714
181.94	0.000
182.31	-585.714
182.69	1533.333
183.07	-400.000
183.45	-488.889
183.83	409.091
184.20	-220.000
184.58	2350.000
184.96	4700.000
185.34	-780.000
185.72	-525.000
186.09	-2100.000
186.47	2600.000
186.85	2300.000
187.23	3900.000
187.61	-1466.667
187.98	1225.000
188.36	490.909
188.74	481.818
189.12	-680.000
189.49	500.000
189.87	-4600.000
190.25	-725.000
190.63	414.286
191.00	446.154
191.38	733.333
191.76	-975.000
192.14	1275.000
192.51	737.500
192.89	866.667
193.27	537.500
193.65	-1025.000
194.02	450.000
194.40	840.000
194.78	570.000
195.15	500.000
195.53	560.000
195.91	-1750.000
196.29	318.750
196.66	273.684
197.04	-330.000
197.42	0.000
197.79	540.000
198.17	-4300.000
198.55	728.571
198.92	550.000
199.30	880.000
199.68	0.000
200.05	266.667
200.43	785.714
200.81	4100.000
201.18	1333.333
201.56	-1466.667
201.94	433.333
202.31	544.444
202.69	358.333
203.07	490.000
203.44	0.000
203.82	1150.000
204.19	842.857
204.57	350.000
204.95	650.000
205.32	1266.667
205.70	500.000
206.08	378.571
206.45	2150.000
206.83	375.000
207.20	816.667
207.58	640.000
207.96	316.667
208.33	712.500
208.71	-683.333
209.08	728.571
209.46	566.667
209.84	436.364
210.21	-1466.667
210.59	1125.000
210.96	-400.000
211.34	2250.000
211.71	570.000
212.09	600.000
212.46	0.000
212.84	1500.000
213.22	1200.000
213.59	-3100.000
213.97	750.000
214.34	657.143
214.72	572.727
215.09	880.000
215.47	-1800.000
215.84	-2300.000
216.22	1566.667
216.59	285.714
216.97	1050.000
217.34	445.455
217.72	-466.667
218.09	0.000
218.47	-5200.000
218.84	644.444
219.22	700.000
219.59	1533.333
219.97	-557.143
220.34	940.000
220.72	-1700.000
221.09	371.429
221.47	1325.000
221.84	-766.667
222.22	0.000
222.59	1225.000
222.97	-2550.000
223.34	960.000
223.72	453.846
224.09	980.000
224.46	1700.000
224.84	-4200.000
225.21	-1000.000
225.59	-4400.000
225.96	560.000
226.34	225.000
226.71	2100.000
227.08	687.500
227.46	400.000
227.83	-1125.000
228.21	-2350.000
228.58	433.333
228.95	-2250.000
229.33	-1550.000
229.70	1600.000
230.08	628.571
230.45	-960.000
230.82	433.333
231.20	633.333
231.57	600.000
231.95	333.333
232.32	240.909
232.69	318.182
233.07	671.429
233.44	276.923
233.81	-1233.333
234.19	252.632
234.56	383.333
234.93	341.667
235.31	418.182
235.68	284.615
236.05	314.286
236.43	160.606
236.80	231.579
237.17	3600.000
237.55	152.381
237.92	185.714
238.29	200.000
238.67	141.935
239.04	175.862
239.41	130.556
239.79	100.000
240.16	107.143
240.53	93.182
240.91	84.314
241.28	92.000
241.65	70.000
242.02	76.812
242.40	74.194
242.77	55.000
243.14	49.462
243.51	58.427
243.89	45.882
244.26	41.111
244.63	46.237
245.00	47.872
245.38	51.485
245.75	32.710
246.12	30.275
246.49	45.255
246.87	39.200
247.24	35.385
247.61	30.714
247.98	31.373
248.36	27.703
248.73	33.758
249.10	33.758
249.47	28.814
249.84	30.481
250.22	27.273
250.59	23.669
250.96	28.283
251.33	31.754
251.70	24.257
252.08	20.952
252.45	20.628
252.82	19.565
253.19	20.000
253.56	19.608
253.94	21.577
254.31	21.094
254.68	24.231
255.05	19.188
255.42	19.512
255.79	19.485
256.16	18.051
256.54	17.314
256.91	17.794
257.28	15.827
257.65	15.512
258.02	16.460
258.39	17.035
258.76	17.726
259.14	16.667
259.51	13.678
259.88	16.149
260.25	17.523
260.62	15.029
260.99	14.286
261.36	15.916
261.73	13.754
262.10	15.116
262.47	13.521
262.85	15.320
263.22	10.826
263.59	16.239
263.96	11.538
264.33	11.227
264.70	14.737
265.07	13.555
265.44	14.141
265.81	12.165
266.18	13.819
266.55	13.659
266.92	12.285
267.29	14.583
267.66	13.073
268.03	12.500
268.40	12.617
268.77	10.024
269.14	13.288
269.51	13.770
269.88	11.189
270.25	11.964
270.62	12.135
270.99	14.409
271.36	12.446
271.73	11.215
272.10	10.000
272.47	14.624
272.84	12.987
273.21	11.740
273.58	12.009
273.95	11.111
274.32	9.091
274.69	8.994
275.06	9.055
275.43	9.574
275.80	9.820
276.17	12.016
276.54	11.850
276.91	11.858
277.28	9.570
277.65	10.058
278.02	10.145
278.39	12.109
278.76	11.818
279.13	12.264
279.50	13.222
279.87	9.960
280.23	10.778
280.60	8.511
280.97	9.242
281.34	8.496
281.71	10.545
282.08	9.405
282.45	10.000
282.82	9.414
283.19	8.200
283.56	10.351
283.92	10.660
284.29	8.995
284.66	7.985
285.03	10.127
285.40	8.627
285.77	9.596
286.14	10.190
286.51	9.167
286.87	9.573
287.24	11.726
287.61	10.273
287.98	8.766
288.35	10.301
288.72	9.657
289.08	7.668
289.45	7.743
289.82	9.106
290.19	8.948
290.56	9.035
290.93	7.402
291.29	7.822
291.66	8.555
292.03	9.302
292.40	9.692
292.77	8.136
293.13	7.463
293.50	8.892
293.87	8.000
294.24	6.815
294.60	7.715
294.97	8.866
295.34	9.309
295.71	7.955
296.08	7.977
296.44	8.528
296.81	7.133
297.18	8.130
297.55	5.805
297.91	7.520
298.28	8.032
298.65	9.138
299.02	8.959
299.38	7.437
299.75	5.256
300.12	5.364
300.48	6.750
300.85	8.508
301.22	6.624
301.59	6.439
301.95	5.542
302.32	6.162
302.69	6.571
303.05	6.788
303.42	5.309
303.79	7.928
304.15	6.410
304.52	5.562
304.89	5.575
305.25	5.684
305.62	6.908
305.99	6.612
306.35	6.376
306.72	6.390
307.09	6.437
307.45	7.545
307.82	5.692
308.19	6.843
308.55	6.257
308.92	5.478
309.29	6.125
309.65	6.257
310.02	6.342
310.38	7.204
310.75	5.702
311.12	6.551
311.48	7.106
311.85	6.709
312.22	6.243
312.58	6.237
312.95	6.336
313.31	6.311
313.68	5.925
314.05	7.199
314.41	6.633
314.78	6.546
315.14	5.760
315.51	6.591
315.87	6.535
316.24	5.958
316.61	6.043
316.97	5.773
317.34	5.577
317.70	6.119
318.07	7.218
318.43	5.186
318.80	6.373
319.16	5.461
319.53	5.722
319.89	6.000
320.26	6.000
320.62	6.349
320.99	6.263
321.35	6.768
321.72	5.544
322.08	6.120
322.45	7.463
322.81	7.074
323.18	6.551
323.54	6.494
323.91	6.981
324.27	7.075
324.64	6.058
325.00	5.591
325.37	6.551
325.73	6.912
326.10	5.914
326.46	5.645
326.83	6.040
327.19	6.746
327.56	5.575
327.92	6.124
328.29	6.655
328.65	6.354
329.01	6.588
329.38	6.846
329.74	4.986
330.11	6.126
330.47	7.071
330.84	7.261
331.20	5.464
331.56	5.872
331.93	5.648
332.29	6.655
332.66	6.637
333.02	5.667
333.38	6.143
333.75	6.684
334.11	6.406
334.48	6.389
334.84	6.250
335.20	6.455
335.57	6.709
335.93	5.446
336.29	6.685
336.66	6.763
337.02	5.611
337.38	5.833
337.75	5.615
338.11	6.714
338.47	5.341
338.84	5.683
339.20	5.688
339.56	6.296
339.93	5.909
340.29	5.435
340.65	6.061
341.02	5.497
341.38	6.050
341.74	4.912
342.11	6.201
342.47	6.696
342.83	6.164
343.20	6.147
343.56	6.066
343.92	6.228
344.28	6.548
344.65	5.675
345.01	5.387
345.37	4.545
345.73	6.261
346.10	5.968
346.46	5.847
346.82	5.766
347.19	5.430
347.55	5.829
347.91	6.877
348.27	6.163
348.63	6.940
349.00	6.230
349.36	6.404
349.72	5.293
350.08	5.511
350.45	6.347
350.81	6.093
351.17	5.835
351.53	5.979
351.89	4.455
352.26	6.788
352.62	6.576
352.98	5.592
353.34	5.670
353.70	4.583
354.07	5.565
354.43	5.000
354.79	5.551
355.15	4.868
355.51	6.395
355.87	5.143
356.24	5.537
356.60	5.774
356.96	5.792
357.32	5.478
357.68	6.614
358.04	5.463
358.40	6.413
358.77	5.947
359.13	5.525
359.49	5.490
359.85	3.730
360.21	4.147
360.57	5.525
360.93	5.154
361.29	4.460
361.66	4.721
362.02	6.045
362.38	5.627
362.74	4.985
363.10	4.293
363.46	4.109
363.82	4.686
364.18	4.846
364.54	6.315
364.90	5.949
365.26	4.044
365.62	5.332
365.98	4.675
366.35	4.799
366.71	5.061
367.07	4.443
367.43	4.427
367.79	5.282
368.15	5.603
368.51	4.288
368.87	5.282
369.23	5.048
369.59	5.214
369.95	4.044
370.31	4.915
370.67	4.783
371.03	6.367
371.39	5.175
371.75	4.559
372.11	4.979
372.47	5.718
372.83	5.043
373.19	4.408
373.55	4.582
373.91	5.449
374.27	4.742
374.63	4.436
374.99	5.226
375.35	3.908
375.71	5.141
376.07	5.487
376.42	4.058
376.78	5.235
377.14	4.885
377.50	4.901
377.86	4.588
378.22	5.689
378.58	3.885
378.94	4.840
379.30	4.326
379.66	4.695
380.02	4.853
380.38	3.886
380.74	4.622
381.09	4.645
381.45	4.733
381.81	5.283
382.17	5.096
382.53	4.277
382.89	5.123
383.25	4.440
383.61	4.523
383.97	4.628
384.32	4.741
384.68	4.089
385.04	4.364
385.40	4.334
385.76	4.484
386.12	4.145
386.48	4.720
386.83	4.554
387.19	4.947
387.55	4.515
387.91	5.018
388.27	4.231
388.62	5.409
388.98	4.361
389.34	5.382
389.70	4.782
390.06	5.387
390.42	4.280
390.77	5.089
391.13	4.276
391.49	4.695
391.85	4.265
392.20	3.912
392.56	4.040
392.92	3.649
393.28	3.728
393.64	5.216
393.99	4.948
394.35	4.404
394.71	4.329
395.07	3.801
395.42	3.770
395.78	4.644
396.14	4.407
396.50	5.388
396.85	4.704
397.21	3.884
397.57	4.712
397.92	4.327
398.28	3.419
398.64	4.421
399.00	4.701
399.35	3.948
399.71	4.456
400.07	5.263
400.42	4.785
400.78	4.704
401.14	3.841
401.49	3.701
401.85	3.932
402.21	4.611
402.57	3.825
402.92	4.540
403.28	4.622
403.63	3.775
403.99	3.376
404.35	4.788
404.70	4.017
405.06	3.553
405.42	4.304
405.77	4.229
406.13	4.120
406.49	4.376
406.84	4.784
407.20	3.842
407.55	4.276
407.91	4.200
408.27	3.701
408.62	4.094
408.98	4.105
409.34	4.305
409.69	5.032
410.05	5.019
410.40	4.159
410.76	4.182
411.11	4.644
411.47	3.514
411.83	4.398
412.18	4.143
412.54	4.359
412.89	5.120
413.25	4.132
413.60	4.200
413.96	4.250
414.31	5.043
414.67	4.626
415.03	4.305
415.38	5.477
415.74	4.373
416.09	4.964
416.45	4.351
416.80	4.494
417.16	4.558
417.51	5.043
417.87	4.239
418.22	5.047
418.58	4.454
418.93	4.914
419.29	5.156
419.64	4.786
420.00	4.695
420.35	4.464
420.71	4.005
421.06	4.952
421.42	4.795
421.77	4.709
422.12	3.650
422.48	3.076
422.83	3.902
423.19	4.586
423.54	4.295
423.90	4.928
424.25	4.690
424.61	4.048
424.96	3.907
425.31	4.762
425.67	4.157
426.02	3.771
426.38	4.029
426.73	4.213
427.09	4.438
427.44	3.450
427.79	3.910
428.15	5.060
428.50	4.974
428.85	4.887
429.21	3.589
429.56	3.525
429.92	4.026
430.27	3.327
430.62	3.584
430.98	4.152
431.33	4.330
431.68	4.346
432.04	4.686
432.39	4.226
432.74	3.950
433.10	4.358
433.45	4.431
433.80	4.102
434.16	3.953
434.51	4.579
434.86	4.561
435.22	4.113
435.57	4.924
435.92	4.096
436.28	4.152
436.63	4.857
436.98	4.121
437.34	4.234
437.69	4.317
438.04	4.047
438.39	4.716
438.75	4.358
439.10	4.972
439.45	4.900
439.81	4.230
440.16	3.501
440.51	3.808
440.86	4.459
441.22	4.004
441.57	4.140
441.92	4.862
442.27	4.198
442.63	3.949
442.98	5.296
443.33	4.348
443.68	4.027
444.03	4.441
444.39	3.895
444.74	4.329
445.09	4.960
445.44	4.265
445.79	4.750
446.15	5.135
446.50	4.308
446.85	4.573
447.20	4.437
447.55	4.578
447.91	4.026
448.26	4.118
448.61	4.127
448.96	4.540
449.31	5.006
449.66	4.615
450.02	4.123
450.37	4.138
450.72	4.456
451.07	3.900
451.42	4.985
451.77	5.461
452.12	4.677
452.47	4.229
452.83	4.312
453.18	4.890
453.53	4.886
453.88	4.253
454.23	4.901
454.58	5.088
454.93	5.594
455.28	4.613
455.63	4.854
455.98	5.179
456.34	4.837
456.69	5.385
457.04	4.706
457.39	4.500
457.74	4.701
458.09	4.830
458.44	4.960
458.79	3.905
459.14	4.345
459.49	5.254
459.84	4.543
460.19	4.537
460.54	4.977
460.89	4.443
461.24	4.675
461.59	5.636
461.94	4.439
462.29	5.282
462.64	4.084
462.99	4.880
463.34	6.467
463.69	5.066
464.04	4.812
464.39	4.928
464.74	5.051
465.09	4.704
465.44	4.820
465.79	4.362
466.14	5.255
466.49	4.505
466.84	4.904
467.19	5.613
467.54	4.938
467.89	4.982
468.24	5.585
468.59	5.128
468.94	4.582
469.29	4.499
469.64	6.158
469.99	5.007
470.34	4.557
470.68	4.741
471.03	4.762
471.38	5.212
471.73	5.730
472.08	5.526
472.43	5.465
472.78	5.925
473.13	5.584
473.48	5.493
473.83	5.000
474.17	4.978
474.52	4.653
474.87	5.137
475.22	4.585
475.57	5.105
475.92	4.620
476.27	4.453
476.61	4.357
476.96	4.673
477.31	4.657
477.66	4.978
478.01	4.339
478.36	4.759
478.70	3.894
479.05	5.059
479.40	4.401
479.75	4.677
480.10	4.225
480.45	4.569
480.79	4.348
481.14	4.746
481.49	4.841
481.84	4.527
482.19	4.453
482.53	4.266
482.88	4.746
483.23	4.579
483.58	4.686
483.92	4.686
484.27	3.573
484.62	3.664
484.97	4.060
485.31	3.870
485.66	3.097
486.01	2.800
486.36	2.804
486.70	2.873
487.05	3.022
487.40	3.218
487.75	3.039
488.09	3.609
488.44	3.469
488.79	3.834
489.13	4.202
489.48	3.915
489.83	3.927
490.17	4.077
490.52	4.384
490.87	4.025
491.22	4.366
491.56	4.191
491.91	4.421
492.26	4.180
492.60	4.470
492.95	3.742
493.30	4.860
493.64	3.733
493.99	4.503
494.34	4.672
494.68	4.670
495.03	4.605
495.37	4.467
495.72	4.435
496.07	4.316
496.41	4.646
496.76	4.398
497.11	4.052
497.45	4.611
497.80	4.367
498.14	4.058
498.49	4.488
498.84	4.554
499.18	4.571
499.53	4.179
499.87	4.240
500.22	4.569
500.56	4.320
500.91	4.375
501.26	4.362
501.60	4.794
501.95	3.712
502.29	4.639
502.64	4.376
502.98	3.974
503.33	4.479
503.67	4.965
504.02	4.537
504.36	4.913
504.71	4.494
505.06	4.771
505.40	4.959
505.75	4.581
506.09	4.908
506.44	4.341
506.78	4.481
507.13	4.594
507.47	5.051
507.82	4.863
508.16	4.965
508.51	4.871
508.85	4.469
509.19	4.388
509.54	4.694
509.88	4.997
510.23	4.165
510.57	5.728
510.92	4.661
511.26	4.779
511.61	5.342
511.95	4.593
512.30	4.772
512.64	5.212
512.98	4.930
513.33	5.567
513.67	4.376
514.02	4.221
514.36	5.025
514.70	4.981
515.05	4.852
515.39	5.160
515.74	5.068
516.08	5.646
516.42	6.215
516.77	5.686
517.11	4.440
517.46	5.474
517.80	5.168
518.14	4.748
518.49	5.426
518.83	5.909
519.17	5.543
519.52	4.754
519.86	5.191
520.20	5.549
520.55	5.745
520.89	5.900
521.23	5.850
521.58	5.702
521.92	6.001
522.26	4.881
522.61	5.296
522.95	5.218
523.29	5.539
523.64	5.610
523.98	5.915
524.32	5.850
524.66	4.931
525.01	6.250
525.35	5.638
525.69	5.234
526.04	5.047
526.38	5.796
526.72	5.828
527.06	5.587
527.41	4.394
527.75	5.981
528.09	5.716
528.43	4.971
528.78	5.655
529.12	5.879
529.46	5.573
529.80	5.755
530.15	6.044
530.49	5.169
530.83	5.949
531.17	6.332
531.51	7.004
531.86	5.226
532.20	5.997
532.54	6.534
532.88	5.456
533.22	4.747
533.57	6.049
533.91	5.960
534.25	5.711
534.59	5.125
534.93	5.175
535.27	5.130
535.62	5.617
535.96	5.838
536.30	4.450
536.64	6.246
536.98	6.370
537.32	5.003
537.66	5.400
538.01	5.530
538.35	5.947
538.69	6.126
539.03	5.458
539.37	4.792
539.71	3.953
540.05	5.359
540.39	4.917
540.73	5.433
541.07	5.711
541.42	5.675
541.76	6.387
542.10	5.886
542.44	5.033
542.78	6.456
543.12	4.862
543.46	6.361
543.80	5.205
544.14	5.520
544.48	5.841
544.82	4.682
545.16	5.140
545.50	5.334
545.84	5.108
546.18	5.724
546.52	5.919
546.86	5.430
547.20	6.001
547.54	5.478
547.88	6.569
548.22	5.729
548.56	5.849
548.90	5.122
549.24	5.118
549.58	5.457
549.92	5.495
550.26	5.895
550.60	5.533
550.94	5.986
551.28	4.170
551.62	5.607
551.96	5.684
552.30	5.939
552.64	6.829
552.98	6.373
553.32	6.608
553.66	5.794
554.00	5.971
554.34	6.349
554.68	5.436
555.02	5.994
555.36	5.915
555.69	5.210
556.03	5.114
556.37	5.935
556.71	5.935
557.05	5.742
557.39	4.689
557.73	5.646
558.07	6.091
558.41	5.499
558.75	5.952
559.08	6.339
559.42	5.442
559.76	5.441
560.10	5.782
560.44	5.940
560.78	4.857
561.12	5.937
561.45	5.802
561.79	5.801
562.13	5.835
562.47	6.079
562.81	5.439
563.15	5.886
563.48	5.769
563.82	5.871
564.16	5.232
564.50	4.948
564.84	5.879
565.17	5.663
565.51	5.431
565.85	6.155
566.19	5.322
566.52	5.256
566.86	5.124
567.20	5.955
567.54	4.623
567.88	4.726
568.21	5.238
568.55	4.550
568.89	4.767
569.23	4.545
569.56	4.251
569.90	4.302
570.24	3.660
570.57	3.842
570.91	3.620
571.25	3.830
571.59	3.623
571.92	3.456
572.26	3.640
572.60	3.694
572.93	3.598
573.27	3.727
573.61	3.434
573.95	3.876
574.28	3.317
574.62	3.061
574.96	3.202
575.29	3.274
575.63	3.328
575.97	3.332
576.30	3.638
576.64	3.285
576.98	3.476
577.31	3.327
577.65	3.084
577.98	3.136
578.32	3.018
578.66	3.312
578.99	3.333
579.33	3.244
579.67	3.041
580.00	3.333
580.34	3.275
580.67	3.380
581.01	3.485
581.35	3.252
581.68	3.199
582.02	2.799
582.35	2.929
582.69	3.146
583.02	3.160
583.36	3.251
583.70	3.297
584.03	3.370
584.37	3.715
584.70	3.501
585.04	3.449
585.37	3.565
585.71	3.642
586.04	3.503
586.38	3.501
586.72	3.894
587.05	3.559
587.39	3.193
587.72	3.582
588.06	3.522
588.39	3.951
588.73	3.696
589.06	4.113
589.40	3.670
589.73	3.766
590.07	4.342
590.40	3.982
590.73	4.020
591.07	4.436
591.40	4.218
591.74	4.416
592.07	4.494
592.41	4.465
592.74	4.382
593.08	4.097
593.41	4.113
593.75	3.373
594.08	4.056
594.41	4.171
594.75	3.697
595.08	4.474
595.42	4.203
595.75	4.309
596.09	4.544
596.42	4.558
596.75	4.559
597.09	5.195
597.42	4.469
597.75	4.053
598.09	4.304
598.42	4.768
598.76	4.337
599.09	3.991
599.42	4.258
599.76	3.953
600.09	4.007
600.42	4.419
600.76	4.071
601.09	4.117
601.42	4.376
601.76	4.326
602.09	4.348
602.42	4.618
602.76	4.958
603.09	4.170
603.42	4.334
603.76	4.078
604.09	4.459
604.42	4.117
604.76	4.808
605.09	4.806
605.42	4.019
605.75	4.677
606.09	4.067
606.42	4.414
606.75	4.521
607.09	4.981
607.42	4.365
607.75	3.797
608.08	4.342
608.42	4.572
608.75	4.463
609.08	4.857
609.41	4.760
609.75	5.050
610.08	5.325
610.41	4.516
610.74	4.210
611.07	4.545
611.41	5.054
611.74	5.329
612.07	4.917
612.40	4.932
612.73	5.053
613.07	5.496
613.40	4.950
613.73	4.615
614.06	4.839
614.39	4.719
614.72	5.842
615.06	4.937
615.39	4.618
615.72	5.061
616.05	4.891
616.38	5.559
616.71	5.344
617.05	5.713
617.38	5.773
617.71	4.925
618.04	5.349
618.37	5.618
618.70	5.227
619.03	6.908
619.36	6.110
619.69	6.549
620.03	6.387
620.36	5.816
620.69	6.233
621.02	5.900
621.35	5.795
621.68	5.841
622.01	6.269
622.34	6.354
622.67	6.920
623.00	5.429
623.33	5.718
623.66	6.004
623.99	6.333
624.32	6.419
624.65	5.720
624.99	4.887
625.32	5.938
625.65	6.236
625.98	6.226
626.31	6.454
626.64	7.184
626.97	6.650
627.30	6.401
627.63	7.875
627.96	6.308
628.29	7.174
628.62	7.411
628.95	8.679
629.28	7.482
629.61	8.341
629.94	7.048
630.26	6.196
630.59	7.436
630.92	7.471
631.25	6.811
631.58	7.608
631.91	7.606
632.24	7.068
632.57	7.870
632.90	8.553
633.23	7.830
633.56	7.684
633.89	8.834
634.22	8.286
634.55	8.757
634.88	7.305
635.20	8.244
635.53	8.434
635.86	7.797
636.19	8.706
636.52	8.420
636.85	8.591
637.18	7.028
637.51	8.747
637.83	5.302
638.16	8.568
638.49	9.068
638.82	9.355
639.15	8.250
639.48	11.222
639.81	9.786
640.13	9.896
640.46	10.604
640.79	9.908
641.12	8.528
641.45	8.101
641.77	9.573
642.10	8.041
642.43	8.859
642.76	8.824
643.09	9.969
643.41	9.712
643.74	9.414
644.07	9.909
644.40	10.890
644.73	9.921
645.05	10.143
645.38	9.953
645.71	10.145
646.04	10.963
646.36	10.184
646.69	10.535
647.02	11.054
647.35	10.997
647.67	10.619
648.00	12.520
648.33	8.746
648.66	10.909
648.98	10.645
649.31	9.716
649.64	9.268
649.96	9.836
650.29	10.111
650.62	10.194
650.94	12.318
651.27	11.318
651.60	12.479
651.92	11.981
652.25	7.818
652.58	10.903
652.90	12.164
653.23	10.786
653.56	9.449
653.88	10.618
654.21	10.900
654.54	9.406
654.86	10.903
655.19	8.919
655.52	4.304
655.84	2.437
656.17	2.751
656.49	3.462
656.82	3.658
657.15	3.138
657.47	2.402
657.80	1.985
658.13	2.134
658.45	3.305
658.78	3.338
659.10	3.990
659.43	4.255
659.75	5.136
660.08	5.380
660.41	8.007
660.73	10.419
661.06	9.395
661.38	12.364
661.71	12.115
662.03	11.045
662.36	10.736
662.68	12.651
663.01	12.525
663.33	12.102
663.66	13.866
663.98	12.743
664.31	12.815
664.63	10.526
664.96	10.664
665.28	12.705
665.61	11.111
665.93	10.463
666.26	11.359
666.58	11.297
666.91	13.108
667.23	13.708
667.56	12.311
667.88	13.248
668.21	14.499
668.53	12.581
668.86	12.121
669.18	11.940
669.50	13.696
669.83	13.508
670.15	14.000
670.48	11.329
670.80	14.440
671.13	12.951
671.45	11.064
671.77	14.868
672.10	12.015
672.42	9.894
672.75	9.784
673.07	10.211
673.39	10.307
673.72	10.156
674.04	11.961
674.37	12.621
674.69	9.611
675.01	9.623
675.34	15.400
675.66	13.474
675.98	12.424
676.31	12.815
676.63	14.225
676.95	12.579
677.28	10.748
677.60	12.088
677.92	14.557
678.25	12.320
678.57	12.550
678.89	11.022
679.22	10.806
679.54	12.786
679.86	11.560
680.18	11.628
680.51	13.652
680.83	12.989
681.15	11.509
681.48	13.611
681.80	11.219
682.12	10.536
682.44	10.445
682.77	11.405
683.09	14.592
683.41	13.304
683.73	11.258
684.06	13.843
684.38	10.959
684.70	11.822
685.02	12.008
685.34	11.538
685.67	8.741
685.99	9.450
686.31	8.874
686.63	8.127
686.96	10.893
687.28	9.747
687.60	9.420
687.92	10.238
688.24	10.837
688.56	11.446
688.89	12.241
689.21	17.031
689.53	12.944
689.85	15.078
690.17	11.180
690.49	16.561
690.82	12.617
691.14	11.830
691.46	11.603
691.78	13.052
692.10	12.603
692.42	12.575
692.74	11.203
693.06	11.702
693.39	13.963
693.71	10.917
694.03	14.105
694.35	12.987
694.67	12.586
694.99	12.195
695.31	11.029
695.63	14.354
695.95	11.491
696.27	12.437
696.59	12.176
696.91	16.321
697.23	10.094
697.56	13.859
697.88	11.043
698.20	12.292
698.52	13.548
698.84	13.140
699.16	12.673
699.48	12.589
699.80	11.836
700.12	17.143
700.44	14.589
700.76	17.127
701.08	11.207
701.40	17.318
701.72	17.784
702.04	18.466
702.36	12.181
702.68	15.864
703.00	14.127
703.32	15.691
703.64	13.405
703.96	13.928
704.28	14.244
704.60	17.302
704.91	13.650
705.23	17.302
705.55	16.944
705.87	19.601
706.19	18.021
706.51	15.888
706.83	16.061
707.15	17.647
707.47	14.141
707.79	16.462
708.11	14.384
708.43	13.571
708.74	10.714
709.06	16.883
709.38	15.486
709.70	18.023
710.02	20.178
710.34	15.758
710.66	18.806
710.98	16.761
711.29	20.058
711.61	21.534
711.93	13.782
712.25	17.363
712.57	16.176
712.89	18.339
713.20	19.757
713.52	16.118
713.84	18.038
714.16	14.634
714.48	18.103
714.80	18.845
715.11	19.020
715.43	14.540
715.75	15.362
716.07	15.655
716.39	17.868
716.70	18.937
717.02	19.424
717.34	20.495
717.66	23.881
717.97	23.108
718.29	22.593
718.61	20.073
718.93	21.691
719.24	19.031
719.56	15.593
719.88	16.949
720.20	19.257
720.51	18.467
720.83	22.305
721.15	16.791
721.46	19.858
721.78	17.921
722.10	18.491
722.42	18.421
722.73	17.978
723.05	19.262
723.37	19.838
723.68	23.166
724.00	20.325
724.32	22.984
724.63	19.512
724.95	15.900
725.27	21.053
725.58	22.656
725.90	19.343
726.22	19.245
726.53	18.750
726.85	18.771
727.16	22.064
727.48	17.730
727.80	15.909
728.11	21.739
728.43	20.000
728.74	17.921
729.06	21.533
729.38	26.103
729.69	21.708
730.01	16.724
730.32	15.625
730.64	20.067
730.96	14.851
731.27	18.212
731.59	14.373
731.90	15.743
732.22	15.839
732.53	17.957
732.85	17.308
733.16	18.328
733.48	18.605
733.80	18.831
734.11	16.242
734.43	18.047
734.74	11.143
735.06	13.754
735.37	20.809
735.69	14.650
736.00	18.627
736.32	16.199
736.63	17.252
736.95	17.572
737.26	12.585
737.58	16.452
737.89	19.064
738.21	20.819
738.52	16.071
738.83	19.623
739.15	20.385
739.46	18.978
739.78	22.569
740.09	16.923
740.41	20.968
740.72	19.512
741.04	21.481
741.35	19.583
741.66	23.556
741.98	17.453
742.29	24.402
742.61	30.172
742.92	23.529
743.23	21.795
743.55	21.200
743.86	22.807
744.18	26.549
744.49	24.880
744.80	28.638
745.12	26.818
745.43	23.348
745.74	28.829
746.06	25.229
746.37	24.215
746.68	20.814
747.00	24.537
747.31	25.714
747.62	23.009
747.94	22.026
748.25	17.872
748.56	22.026
748.88	20.297
749.19	26.500
749.50	24.651
749.82	23.984
750.13	20.000
750.44	16.788
750.75	18.947
751.07	21.222
751.38	21.951
751.69	16.245
752.01	20.301
752.32	14.801
752.63	16.667
752.94	24.180
753.26	25.600
753.57	17.886
753.88	21.875
754.19	21.429
754.51	22.917
754.82	14.801
755.13	18.868
755.44	18.421
755.75	17.153
756.07	21.277
756.38	16.423
756.69	17.450
757.00	15.868
757.31	16.320
757.63	15.789
757.94	14.477
758.25	13.235
758.56	14.568
758.87	14.785
759.18	17.576
759.50	17.555
759.81	17.445
760.12	13.438
760.43	14.040
760.74	13.859
761.05	16.384
761.36	13.904
761.67	15.057
761.99	17.391
762.30	17.361
762.61	17.557
762.92	21.484
763.23	15.966
763.54	24.000
763.85	16.406
764.16	23.077
764.47	18.251
764.78	15.901
765.10	13.924
765.41	15.929
765.72	17.665
766.03	15.361
766.34	17.000
766.65	21.702
766.96	23.504
767.27	23.858
767.58	23.958
767.89	30.526
768.20	31.609
768.51	22.843
768.82	25.229
769.13	20.325
769.44	17.814
769.75	22.318
770.06	14.679
770.37	22.624
770.68	25.463
770.99	17.333
771.30	20.492
771.61	17.489
771.92	26.230
772.23	24.790
772.54	27.179
772.85	28.272
773.16	26.596
773.47	28.804
773.78	26.396
774.09	32.143
774.39	29.240
774.70	35.185
775.01	33.333
775.32	30.719
775.63	25.000
775.94	32.374
776.25	40.945
776.56	38.060
776.87	33.607
777.18	36.719
777.48	36.641
777.79	45.455
778.10	38.519
778.41	33.929
778.72	31.387
779.03	34.228
779.34	28.188
779.65	27.703
779.95	26.380
780.26	30.719
780.57	35.862
780.88	46.094
781.19	40.602
781.50	38.514
781.80	33.962
782.11	31.073
782.42	28.481
782.73	28.221
783.04	33.784
783.34	33.099
783.65	45.890
783.96	37.313
784.27	27.972
784.57	37.410
784.88	36.111
785.19	46.032
785.50	34.906
785.81	47.015
786.11	40.164
786.42	37.209
786.73	45.133
787.04	50.943
787.34	40.179
787.65	43.000
787.96	45.946
788.26	30.579
788.57	43.220
788.88	47.107
789.19	40.278
789.49	37.879
789.80	40.458
790.11	51.429
790.41	61.386
790.72	46.988
791.03	55.435
791.33	56.977
791.64	50.515
791.95	46.535
792.25	53.333
792.56	51.948
792.87	66.667
793.17	68.354
793.48	67.816
793.79	63.218
794.09	50.000
794.40	36.134
794.70	39.706
795.01	33.333
795.32	33.813
795.62	39.370
795.93	42.241
796.23	46.903
796.54	47.059
796.85	50.000
797.15	70.423
797.46	46.970
797.76	68.675
798.07	54.430
798.37	55.385
798.68	59.091
798.99	54.930
799.29	49.351
799.60	51.136
799.90	68.493
800.21	82.090
800.51	67.241
800.82	89.474
801.12	85.246
801.43	74.242
801.73	67.568
802.04	65.079
802.34	60.494
802.65	75.000
802.95	71.186
803.26	76.562
803.56	55.714
803.87	64.615
804.17	77.941
804.48	81.481
804.78	55.172
805.09	76.471
805.39	100.000
805.70	73.214
806.00	77.049
806.30	62.121
806.61	63.415
806.91	63.291
807.22	56.579
807.52	53.731
807.83	54.930
808.13	78.125
808.43	63.333
808.74	53.947
809.04	68.116
809.35	91.045
809.65	61.842
809.95	80.645
810.26	62.712
810.56	82.540
810.86	109.091
811.17	128.571
811.47	96.667
811.77	81.481
812.08	83.636
812.38	106.000
812.69	105.556
812.99	118.182
813.29	102.041
813.59	83.333
813.90	108.163
814.20	83.636
814.50	52.308
814.81	69.118
815.11	91.837
815.41	85.246
815.72	109.524
816.02	83.636
816.32	95.238
816.62	82.500
816.93	87.805
817.23	119.048
817.53	125.000
817.84	151.515
818.14	102.174
818.44	88.889
818.74	123.529
819.04	102.500
819.35	122.857
819.65	150.000
819.95	135.714
820.25	130.000
820.56	158.974
820.86	97.727
821.16	118.605
821.46	79.487
821.76	116.000
822.07	120.000
822.37	117.500
822.67	127.273
822.97	90.196
823.27	160.714
823.57	140.541
823.88	135.000
824.18	160.000
824.48	116.667
824.78	172.000
825.08	129.167
825.38	151.351
825.69	112.195
825.99	187.500
826.29	127.586
826.59	131.579
826.89	107.895
827.19	129.412
827.49	112.903
827.79	140.909
828.09	88.636
828.39	95.745
828.70	118.367
829.00	129.630
829.30	148.387
829.60	105.000
829.90	246.667
830.20	167.857
830.50	156.522
830.80	186.957
831.10	156.667
831.40	153.333
831.70	156.522
832.00	188.462
832.30	174.074
832.60	237.500
832.90	196.667
833.20	335.714
833.50	161.290
833.80	124.138
834.10	140.625
834.40	203.846
834.70	300.000
835.00	271.429
835.30	114.286
835.60	261.538
835.90	144.828
836.20	228.571
836.50	151.724
836.80	160.000
837.10	166.667
837.40	204.762
837.70	288.235
838.00	144.444
838.30	166.667
838.60	233.333
838.90	223.077
839.19	210.000
839.49	300.000
839.79	280.000
840.09	245.000
840.39	247.619
840.69	260.870
840.99	222.222
841.29	430.000
841.59	225.000
841.88	325.000
842.18	151.724
842.48	228.571
842.78	160.000
843.08	200.000
843.38	159.375
843.68	733.333
843.97	200.000
844.27	165.517
844.57	219.048
844.87	250.000
845.17	203.704
845.47	1233.333
845.76	433.333
846.06	247.059
846.36	525.000
846.66	335.714
846.96	250.000
847.25	372.727
847.55	354.545
847.85	234.783
848.15	430.000
848.44	328.571
848.74	200.000
849.04	235.294
849.34	490.000
849.63	257.895
849.93	445.455
850.23	960.000
850.53	314.286
850.82	2100.000
851.12	-3100.000
851.42	4900.000
851.71	275.000
852.01	-1166.667
852.31	187.500
852.61	1333.333
852.90	209.524
853.20	152.000
853.50	252.941
853.79	238.095
854.09	170.833
854.39	293.750
854.68	151.351
854.98	158.065
855.28	140.000
855.57	175.862
855.87	207.407
856.17	205.263
856.46	220.000
856.76	205.882
857.05	168.966
857.35	179.167
857.65	280.000
857.94	173.913
858.24	219.231
858.53	290.000
858.83	209.091
859.13	346.667
859.42	0.000
859.72	444.444
860.01	372.727
860.31	227.273
860.60	215.789
860.90	195.652
861.20	377.778
861.49	375.000
861.79	-4400.000
862.08	487.500
862.38	228.571
862.67	330.769
862.97	294.118
863.26	355.556
863.56	222.222
863.85	383.333
864.15	550.000
864.44	346.667
864.74	716.667
865.03	562.500
865.33	231.579
865.62	327.273
865.92	353.846
866.21	308.333
866.51	0.000
866.80	445.455
867.10	1140.000
867.39	392.308
867.69	409.091
867.98	257.895
868.27	418.182
868.57	263.158
868.86	-3900.000
869.16	287.500
869.45	1750.000
869.75	-3600.000
870.04	391.667
870.33	642.857
870.63	925.000
870.92	2150.000
871.22	657.143
871.51	241.176
871.80	223.810
872.10	257.143
>>>>>End Processed Spectral Data<<<<<
