SpectraSuite Data File
++++++++++++++++++++++++++++++++++++
Date: Thu May 14 08:56:40 PDT 2015
User: schluterlab
Dark Spectrum Present: Yes
Reference Spectrum Present: No
Number of Sampled Component Spectra: 1
Spectrometers: USB2E3373
Integration Time (usec): 2300000 (USB2E3373)
Spectra Averaged: 3 (USB2E3373)
Boxcar Smoothing: 1 (USB2E3373)
Correct for Electrical Dark: No (USB2E3373)
Strobe/Lamp Enabled: No (USB2E3373)
Correct for Detector Non-linearity: No (USB2E3373)
Correct for Stray Light: No (USB2E3373)
Number of Pixels in Processed Spectrum: 2048
>>>>>Begin Processed Spectral Data<<<<<
178.53	0.0000E00
178.91	0.0000E00
179.29	0.0000E00
179.67	0.0000E00
180.04	0.0000E00
180.42	0.0000E00
180.80	0.0000E00
181.18	0.0000E00
181.56	0.0000E00
181.94	0.0000E00
182.31	0.0000E00
182.69	0.0000E00
183.07	0.0000E00
183.45	0.0000E00
183.83	0.0000E00
184.20	0.0000E00
184.58	0.0000E00
184.96	0.0000E00
185.34	0.0000E00
185.72	0.0000E00
186.09	0.0000E00
186.47	0.0000E00
186.85	0.0000E00
187.23	0.0000E00
187.61	0.0000E00
187.98	0.0000E00
188.36	0.0000E00
188.74	0.0000E00
189.12	0.0000E00
189.49	0.0000E00
189.87	0.0000E00
190.25	0.0000E00
190.63	0.0000E00
191.00	0.0000E00
191.38	0.0000E00
191.76	0.0000E00
192.14	0.0000E00
192.51	0.0000E00
192.89	0.0000E00
193.27	0.0000E00
193.65	0.0000E00
194.02	0.0000E00
194.40	0.0000E00
194.78	0.0000E00
195.15	0.0000E00
195.53	0.0000E00
195.91	0.0000E00
196.29	0.0000E00
196.66	0.0000E00
197.04	0.0000E00
197.42	0.0000E00
197.79	0.0000E00
198.17	0.0000E00
198.55	0.0000E00
198.92	0.0000E00
199.30	0.0000E00
199.68	0.0000E00
200.05	0.0000E00
200.43	0.0000E00
200.81	0.0000E00
201.18	0.0000E00
201.56	0.0000E00
201.94	0.0000E00
202.31	0.0000E00
202.69	0.0000E00
203.07	0.0000E00
203.44	0.0000E00
203.82	0.0000E00
204.19	0.0000E00
204.57	0.0000E00
204.95	0.0000E00
205.32	0.0000E00
205.70	0.0000E00
206.08	-0.0000E00
206.45	0.0000E00
206.83	0.0000E00
207.20	0.0000E00
207.58	0.0000E00
207.96	0.0000E00
208.33	0.0000E00
208.71	0.0000E00
209.08	0.0000E00
209.46	0.0000E00
209.84	-0.0000E00
210.21	0.0000E00
210.59	0.0000E00
210.96	0.0000E00
211.34	0.0000E00
211.71	0.0000E00
212.09	0.0000E00
212.46	0.0000E00
212.84	0.0000E00
213.22	0.0000E00
213.59	0.0000E00
213.97	0.0000E00
214.34	0.0000E00
214.72	0.0000E00
215.09	0.0000E00
215.47	0.0000E00
215.84	0.0000E00
216.22	0.0000E00
216.59	0.0000E00
216.97	0.0000E00
217.34	0.0000E00
217.72	0.0000E00
218.09	0.0000E00
218.47	0.0000E00
218.84	0.0000E00
219.22	0.0000E00
219.59	0.0000E00
219.97	0.0000E00
220.34	0.0000E00
220.72	0.0000E00
221.09	0.0000E00
221.47	0.0000E00
221.84	0.0000E00
222.22	0.0000E00
222.59	0.0000E00
222.97	0.0000E00
223.34	0.0000E00
223.72	0.0000E00
224.09	0.0000E00
224.46	0.0000E00
224.84	0.0000E00
225.21	0.0000E00
225.59	0.0000E00
225.96	0.0000E00
226.34	0.0000E00
226.71	0.0000E00
227.08	0.0000E00
227.46	0.0000E00
227.83	0.0000E00
228.21	0.0000E00
228.58	0.0000E00
228.95	0.0000E00
229.33	0.0000E00
229.70	0.0000E00
230.08	0.0000E00
230.45	0.0000E00
230.82	0.0000E00
231.20	0.0000E00
231.57	0.0000E00
231.95	0.0000E00
232.32	0.0000E00
232.69	0.0000E00
233.07	0.0000E00
233.44	0.0000E00
233.81	0.0000E00
234.19	0.0000E00
234.56	0.0000E00
234.93	0.0000E00
235.31	0.0000E00
235.68	0.0000E00
236.05	0.0000E00
236.43	0.0000E00
236.80	0.0000E00
237.17	0.0000E00
237.55	0.0000E00
237.92	0.0000E00
238.29	0.0000E00
238.67	0.0000E00
239.04	0.0000E00
239.41	0.0000E00
239.79	0.0000E00
240.16	0.0000E00
240.53	0.0000E00
240.91	0.0000E00
241.28	0.0000E00
241.65	0.0000E00
242.02	0.0000E00
242.40	0.0000E00
242.77	0.0000E00
243.14	0.0000E00
243.51	0.0000E00
243.89	0.0000E00
244.26	0.0000E00
244.63	0.0000E00
245.00	0.0000E00
245.38	0.0000E00
245.75	0.0000E00
246.12	0.0000E00
246.49	0.0000E00
246.87	0.0000E00
247.24	0.0000E00
247.61	0.0000E00
247.98	0.0000E00
248.36	0.0000E00
248.73	0.0000E00
249.10	0.0000E00
249.47	0.0000E00
249.84	0.0000E00
250.22	0.0000E00
250.59	0.0000E00
250.96	0.0000E00
251.33	0.0000E00
251.70	0.0000E00
252.08	0.0000E00
252.45	0.0000E00
252.82	0.0000E00
253.19	0.0000E00
253.56	0.0000E00
253.94	0.0000E00
254.31	0.0000E00
254.68	0.0000E00
255.05	0.0000E00
255.42	0.0000E00
255.79	0.0000E00
256.16	0.0000E00
256.54	0.0000E00
256.91	0.0000E00
257.28	0.0000E00
257.65	0.0000E00
258.02	0.0000E00
258.39	0.0000E00
258.76	0.0000E00
259.14	0.0000E00
259.51	0.0000E00
259.88	0.0000E00
260.25	0.0000E00
260.62	0.0000E00
260.99	0.0000E00
261.36	0.0000E00
261.73	0.0000E00
262.10	0.0000E00
262.47	0.0000E00
262.85	0.0000E00
263.22	0.0000E00
263.59	0.0000E00
263.96	0.0000E00
264.33	0.0000E00
264.70	0.0000E00
265.07	0.0000E00
265.44	0.0000E00
265.81	0.0000E00
266.18	0.0000E00
266.55	0.0000E00
266.92	0.0000E00
267.29	0.0000E00
267.66	-0.0000E00
268.03	0.0000E00
268.40	0.0000E00
268.77	0.0000E00
269.14	0.0000E00
269.51	0.0000E00
269.88	0.0000E00
270.25	0.0000E00
270.62	0.0000E00
270.99	0.0000E00
271.36	0.0000E00
271.73	0.0000E00
272.10	0.0000E00
272.47	0.0000E00
272.84	0.0000E00
273.21	0.0000E00
273.58	0.0000E00
273.95	0.0000E00
274.32	0.0000E00
274.69	0.0000E00
275.06	0.0000E00
275.43	0.0000E00
275.80	0.0000E00
276.17	0.0000E00
276.54	0.0000E00
276.91	0.0000E00
277.28	0.0000E00
277.65	0.0000E00
278.02	0.0000E00
278.39	0.0000E00
278.76	0.0000E00
279.13	0.0000E00
279.50	0.0000E00
279.87	0.0000E00
280.23	0.0000E00
280.60	0.0000E00
280.97	0.0000E00
281.34	0.0000E00
281.71	0.0000E00
282.08	0.0000E00
282.45	0.0000E00
282.82	0.0000E00
283.19	0.0000E00
283.56	0.0000E00
283.92	0.0000E00
284.29	0.0000E00
284.66	0.0000E00
285.03	0.0000E00
285.40	0.0000E00
285.77	0.0000E00
286.14	0.0000E00
286.51	0.0000E00
286.87	0.0000E00
287.24	0.0000E00
287.61	0.0000E00
287.98	0.0000E00
288.35	0.0000E00
288.72	0.0000E00
289.08	0.0000E00
289.45	0.0000E00
289.82	0.0000E00
290.19	0.0000E00
290.56	0.0000E00
290.93	0.0000E00
291.29	0.0000E00
291.66	0.0000E00
292.03	0.0000E00
292.40	0.0000E00
292.77	0.0000E00
293.13	0.0000E00
293.50	0.0000E00
293.87	0.0000E00
294.24	0.0000E00
294.60	0.0000E00
294.97	0.0000E00
295.34	0.0000E00
295.71	0.0000E00
296.08	0.0000E00
296.44	0.0000E00
296.81	0.0000E00
297.18	0.0000E00
297.55	0.0000E00
297.91	0.0000E00
298.28	0.0000E00
298.65	0.0000E00
299.02	0.0000E00
299.38	0.0000E00
299.75	0.0000E00
300.12	5.8042E-01
300.48	6.9202E-01
300.85	5.9659E-01
301.22	1.1257E00
301.59	6.5072E-01
301.95	7.2314E-01
302.32	6.2777E-01
302.69	7.6094E-01
303.05	7.3460E-01
303.42	1.2182E00
303.79	1.2064E00
304.15	7.8512E-01
304.52	1.0899E00
304.89	1.2468E00
305.25	7.1374E-01
305.62	1.0215E00
305.99	1.1539E00
306.35	1.0078E00
306.72	1.3125E00
307.09	1.4519E00
307.45	1.5331E00
307.82	1.7733E00
308.19	6.6654E00
308.55	1.7340E00
308.92	1.4844E00
309.29	1.4764E00
309.65	1.2941E00
310.02	2.2703E00
310.38	1.7784E00
310.75	1.4248E00
311.12	2.1152E00
311.48	1.6727E00
311.85	2.2298E00
312.22	1.5477E00
312.58	2.8849E00
312.95	1.2676E00
313.31	1.5096E00
313.68	2.0505E00
314.05	1.7928E00
314.41	2.0754E00
314.78	1.6703E00
315.14	4.2054E00
315.51	1.9262E00
315.87	1.3769E00
316.24	3.3060E00
316.61	1.9684E00
316.97	1.8978E00
317.34	1.8341E00
317.70	1.4326E00
318.07	1.6589E00
318.43	1.6726E00
318.80	2.6804E00
319.16	1.7663E00
319.53	4.6314E01
319.89	2.4566E00
320.26	1.8849E00
320.62	2.5005E00
320.99	1.7779E00
321.35	1.9364E00
321.72	2.5670E00
322.08	1.8203E00
322.45	3.0993E00
322.81	2.3792E00
323.18	1.3987E00
323.54	1.4492E00
323.91	3.1975E00
324.27	2.1443E00
324.64	6.4792E00
325.00	1.4906E00
325.37	5.8275E00
325.73	1.5994E00
326.10	5.8980E00
326.46	1.6170E00
326.83	1.4895E00
327.19	1.6330E00
327.56	1.5910E00
327.92	2.3621E00
328.29	3.0278E00
328.65	2.7326E00
329.01	3.6523E00
329.38	1.5678E00
329.74	1.6653E00
330.11	2.1141E00
330.47	2.5008E00
330.84	1.8949E00
331.20	1.8309E00
331.56	2.1959E00
331.93	1.7670E00
332.29	2.1044E00
332.66	2.1844E00
333.02	1.3634E00
333.38	1.5994E00
333.75	1.6444E00
334.11	1.6924E00
334.48	2.4542E00
334.84	2.0739E00
335.20	1.6812E00
335.57	1.9173E00
335.93	2.6798E00
336.29	2.2301E00
336.66	1.9790E00
337.02	2.0524E00
337.38	1.9046E00
337.75	1.5248E00
338.11	1.1868E00
338.47	2.0568E00
338.84	2.6790E00
339.20	4.8815E00
339.56	1.8569E00
339.93	1.8642E00
340.29	1.4676E00
340.65	1.7057E00
341.02	1.7704E00
341.38	1.6745E00
341.74	1.5049E00
342.11	1.5155E00
342.47	2.0947E00
342.83	2.1923E00
343.20	1.4391E00
343.56	2.4208E00
343.92	1.7237E00
344.28	1.9085E00
344.65	1.8665E00
345.01	1.9451E00
345.37	1.6458E00
345.73	1.6611E00
346.10	2.2168E00
346.46	1.7898E00
346.82	1.3455E00
347.19	3.0383E00
347.55	1.6103E00
347.91	3.0938E00
348.27	1.9847E00
348.63	1.6507E00
349.00	1.6226E00
349.36	1.4897E00
349.72	1.7300E00
350.08	2.1912E00
350.45	2.2050E00
350.81	2.1465E00
351.17	1.5014E00
351.53	2.1018E00
351.89	1.9365E00
352.26	1.7502E00
352.62	1.8992E00
352.98	1.2824E00
353.34	2.2129E00
353.70	1.6926E00
354.07	1.2968E00
354.43	1.5557E00
354.79	1.3548E00
355.15	1.3855E00
355.51	1.6080E00
355.87	1.0526E00
356.24	1.5864E00
356.60	1.7042E00
356.96	1.5024E00
357.32	1.8042E00
357.68	1.2594E00
358.04	1.4941E00
358.40	1.5355E00
358.77	1.2823E00
359.13	1.6934E00
359.49	1.6693E00
359.85	1.5469E00
360.21	1.4443E00
360.57	1.3336E00
360.93	1.2605E00
361.29	1.5125E00
361.66	2.3139E00
362.02	1.4605E00
362.38	1.9686E00
362.74	1.3062E00
363.10	1.5364E00
363.46	1.3365E00
363.82	1.3947E00
364.18	1.5342E00
364.54	1.4283E00
364.90	1.1199E00
365.26	1.5100E00
365.62	1.3898E00
365.98	1.9347E00
366.35	1.7083E00
366.71	1.4405E00
367.07	1.4557E00
367.43	1.4311E00
367.79	1.3663E00
368.15	1.1443E00
368.51	1.4185E00
368.87	1.2426E00
369.23	1.3549E00
369.59	1.5771E00
369.95	1.5699E00
370.31	1.2215E00
370.67	1.3261E00
371.03	1.5285E00
371.39	1.4242E00
371.75	1.2302E00
372.11	1.4701E00
372.47	1.2134E00
372.83	1.4804E00
373.19	1.3223E00
373.55	1.4683E00
373.91	1.4643E00
374.27	1.6200E00
374.63	1.3719E00
374.99	1.3521E00
375.35	1.4274E00
375.71	1.2499E00
376.07	1.3875E00
376.42	1.2724E00
376.78	1.3994E00
377.14	1.2963E00
377.50	1.1646E00
377.86	1.3600E00
378.22	1.2079E00
378.58	1.3171E00
378.94	1.0626E00
379.30	1.1363E00
379.66	1.2646E00
380.02	1.1667E00
380.38	1.1879E00
380.74	1.3134E00
381.09	1.0978E00
381.45	1.1623E00
381.81	1.0005E00
382.17	1.3144E00
382.53	1.1669E00
382.89	1.1329E00
383.25	1.1990E00
383.61	1.1454E00
383.97	1.1490E00
384.32	1.0933E00
384.68	1.2774E00
385.04	1.0843E00
385.40	1.0791E00
385.76	1.2220E00
386.12	1.0695E00
386.48	1.1333E00
386.83	1.2116E00
387.19	1.0662E00
387.55	1.1342E00
387.91	1.0320E00
388.27	1.1247E00
388.62	1.2161E00
388.98	1.0234E00
389.34	1.2048E00
389.70	1.0311E00
390.06	9.9924E-01
390.42	1.2121E00
390.77	1.0914E00
391.13	1.0567E00
391.49	1.1821E00
391.85	1.2736E00
392.20	1.2183E00
392.56	1.1467E00
392.92	1.0839E00
393.28	1.0761E00
393.64	1.0854E00
393.99	1.1323E00
394.35	1.0859E00
394.71	1.0953E00
395.07	1.0102E00
395.42	1.1087E00
395.78	1.1559E00
396.14	1.0975E00
396.50	1.0555E00
396.85	1.1718E00
397.21	1.0218E00
397.57	1.1178E00
397.92	1.0930E00
398.28	1.0646E00
398.64	1.1231E00
399.00	1.0219E00
399.35	9.9427E-01
399.71	1.0256E00
400.07	1.0793E00
400.42	1.0208E00
400.78	1.0341E00
401.14	9.6905E-01
401.49	1.0294E00
401.85	9.6259E-01
402.21	1.0423E00
402.57	1.0422E00
402.92	1.0122E00
403.28	9.8014E-01
403.63	9.7663E-01
403.99	9.7022E-01
404.35	9.7853E-01
404.70	1.0272E00
405.06	9.3060E-01
405.42	1.0323E00
405.77	9.5371E-01
406.13	9.4163E-01
406.49	8.9513E-01
406.84	9.6816E-01
407.20	9.2593E-01
407.55	1.0155E00
407.91	1.0124E00
408.27	9.2266E-01
408.62	9.0668E-01
408.98	9.1465E-01
409.34	9.0461E-01
409.69	9.5836E-01
410.05	9.2614E-01
410.40	9.1636E-01
410.76	8.7767E-01
411.11	8.3501E-01
411.47	9.1741E-01
411.83	8.5202E-01
412.18	8.5728E-01
412.54	9.1860E-01
412.89	9.1844E-01
413.25	8.5067E-01
413.60	8.7998E-01
413.96	9.4195E-01
414.31	9.0447E-01
414.67	9.5820E-01
415.03	9.6032E-01
415.38	9.1996E-01
415.74	9.5216E-01
416.09	8.7900E-01
416.45	9.4275E-01
416.80	8.8262E-01
417.16	9.5215E-01
417.51	8.9129E-01
417.87	8.7815E-01
418.22	8.5936E-01
418.58	9.2451E-01
418.93	8.3045E-01
419.29	9.0485E-01
419.64	8.7272E-01
420.00	8.3559E-01
420.35	8.0960E-01
420.71	8.5917E-01
421.06	8.4880E-01
421.42	8.5713E-01
421.77	8.6082E-01
422.12	8.5967E-01
422.48	8.3400E-01
422.83	8.8027E-01
423.19	8.4371E-01
423.54	8.4293E-01
423.90	8.4478E-01
424.25	8.0599E-01
424.61	8.4932E-01
424.96	8.3313E-01
425.31	8.0236E-01
425.67	8.0310E-01
426.02	8.1545E-01
426.38	8.0989E-01
426.73	7.9336E-01
427.09	8.1100E-01
427.44	7.4813E-01
427.79	8.0411E-01
428.15	7.8720E-01
428.50	8.0184E-01
428.85	8.2817E-01
429.21	7.6622E-01
429.56	7.4054E-01
429.92	7.6072E-01
430.27	7.5077E-01
430.62	7.8459E-01
430.98	8.0315E-01
431.33	7.7137E-01
431.68	7.7059E-01
432.04	7.3908E-01
432.39	7.5635E-01
432.74	8.0457E-01
433.10	7.2956E-01
433.45	7.7126E-01
433.80	7.7538E-01
434.16	7.7917E-01
434.51	7.4676E-01
434.86	7.8196E-01
435.22	7.3775E-01
435.57	8.1244E-01
435.92	7.5709E-01
436.28	7.8488E-01
436.63	7.3203E-01
436.98	7.3976E-01
437.34	7.5727E-01
437.69	7.3064E-01
438.04	7.0785E-01
438.39	7.6259E-01
438.75	7.3307E-01
439.10	7.0473E-01
439.45	7.4557E-01
439.81	7.2311E-01
440.16	7.0568E-01
440.51	7.2524E-01
440.86	7.2281E-01
441.22	7.1653E-01
441.57	7.2997E-01
441.92	7.0968E-01
442.27	7.4578E-01
442.63	7.1623E-01
442.98	7.6163E-01
443.33	7.4362E-01
443.68	7.1725E-01
444.03	6.6736E-01
444.39	6.6877E-01
444.74	7.2104E-01
445.09	7.3326E-01
445.44	7.2576E-01
445.79	6.5685E-01
446.15	7.2208E-01
446.50	7.0799E-01
446.85	6.7478E-01
447.20	6.6552E-01
447.55	6.8535E-01
447.91	6.9613E-01
448.26	6.9314E-01
448.61	7.0575E-01
448.96	6.8382E-01
449.31	6.8139E-01
449.66	7.1685E-01
450.02	6.7755E-01
450.37	7.0793E-01
450.72	6.7631E-01
451.07	7.1489E-01
451.42	7.1701E-01
451.77	6.9356E-01
452.12	6.9262E-01
452.47	7.3144E-01
452.83	6.5027E-01
453.18	6.9922E-01
453.53	6.8257E-01
453.88	6.4572E-01
454.23	6.5186E-01
454.58	6.4862E-01
454.93	6.8042E-01
455.28	6.7310E-01
455.63	6.6972E-01
455.98	6.5503E-01
456.34	6.8319E-01
456.69	6.7409E-01
457.04	6.5698E-01
457.39	6.3146E-01
457.74	6.2190E-01
458.09	6.4639E-01
458.44	6.2769E-01
458.79	6.0052E-01
459.14	6.2837E-01
459.49	6.4537E-01
459.84	6.2236E-01
460.19	6.5746E-01
460.54	6.4708E-01
460.89	5.9957E-01
461.24	6.5981E-01
461.59	6.3245E-01
461.94	6.5213E-01
462.29	5.9966E-01
462.64	6.4793E-01
462.99	6.5424E-01
463.34	6.5943E-01
463.69	6.2619E-01
464.04	5.8926E-01
464.39	5.9912E-01
464.74	6.1682E-01
465.09	6.3863E-01
465.44	6.0038E-01
465.79	6.2541E-01
466.14	6.2839E-01
466.49	6.0720E-01
466.84	6.1412E-01
467.19	6.1796E-01
467.54	6.3931E-01
467.89	6.0216E-01
468.24	5.7683E-01
468.59	5.8353E-01
468.94	5.7612E-01
469.29	5.7981E-01
469.64	5.9109E-01
469.99	5.7907E-01
470.34	5.5571E-01
470.68	5.9424E-01
471.03	5.7423E-01
471.38	5.5888E-01
471.73	5.5970E-01
472.08	5.3918E-01
472.43	5.2301E-01
472.78	5.4328E-01
473.13	5.4586E-01
473.48	5.4363E-01
473.83	5.2301E-01
474.17	5.3192E-01
474.52	5.2886E-01
474.87	5.0501E-01
475.22	5.1367E-01
475.57	4.8810E-01
475.92	4.7123E-01
476.27	5.0605E-01
476.61	4.8011E-01
476.96	4.7048E-01
477.31	4.5219E-01
477.66	4.5991E-01
478.01	4.5625E-01
478.36	4.5688E-01
478.70	4.4168E-01
479.05	4.5192E-01
479.40	4.2930E-01
479.75	4.3300E-01
480.10	4.3339E-01
480.45	4.1854E-01
480.79	4.2379E-01
481.14	4.3250E-01
481.49	4.1577E-01
481.84	4.0565E-01
482.19	4.0290E-01
482.53	4.0653E-01
482.88	3.9955E-01
483.23	3.9179E-01
483.58	3.9118E-01
483.92	3.9923E-01
484.27	3.8194E-01
484.62	3.8330E-01
484.97	3.7269E-01
485.31	3.7279E-01
485.66	3.7825E-01
486.01	3.8084E-01
486.36	3.6400E-01
486.70	3.6758E-01
487.05	3.6647E-01
487.40	3.6425E-01
487.75	3.5591E-01
488.09	3.5964E-01
488.44	3.6197E-01
488.79	3.6162E-01
489.13	3.5595E-01
489.48	3.5875E-01
489.83	3.5710E-01
490.17	3.4673E-01
490.52	3.4707E-01
490.87	3.4799E-01
491.22	3.4826E-01
491.56	3.4855E-01
491.91	3.5366E-01
492.26	3.4830E-01
492.60	3.4866E-01
492.95	3.5161E-01
493.30	3.5032E-01
493.64	3.4490E-01
493.99	3.4800E-01
494.34	3.4765E-01
494.68	3.4121E-01
495.03	3.5190E-01
495.37	3.4398E-01
495.72	3.5283E-01
496.07	3.4412E-01
496.41	3.4315E-01
496.76	3.4319E-01
497.11	3.4794E-01
497.45	3.4527E-01
497.80	3.4646E-01
498.14	3.4398E-01
498.49	3.4334E-01
498.84	3.4506E-01
499.18	3.4002E-01
499.53	3.4327E-01
499.87	3.4467E-01
500.22	3.4700E-01
500.56	3.4658E-01
500.91	3.4420E-01
501.26	3.4470E-01
501.60	3.4229E-01
501.95	3.4313E-01
502.29	3.4268E-01
502.64	3.3983E-01
502.98	3.4578E-01
503.33	3.3927E-01
503.67	3.4215E-01
504.02	3.4134E-01
504.36	3.3899E-01
504.71	3.4413E-01
505.06	3.4283E-01
505.40	3.3801E-01
505.75	3.3905E-01
506.09	3.4077E-01
506.44	3.3814E-01
506.78	3.3754E-01
507.13	3.3845E-01
507.47	3.3635E-01
507.82	3.3497E-01
508.16	3.3722E-01
508.51	3.3452E-01
508.85	3.3181E-01
509.19	3.3138E-01
509.54	3.3572E-01
509.88	3.3779E-01
510.23	3.3200E-01
510.57	3.3243E-01
510.92	3.3293E-01
511.26	3.3008E-01
511.61	3.3125E-01
511.95	3.2960E-01
512.30	3.2788E-01
512.64	3.2900E-01
512.98	3.2824E-01
513.33	3.2723E-01
513.67	3.3134E-01
514.02	3.2947E-01
514.36	3.2619E-01
514.70	3.2955E-01
515.05	3.2283E-01
515.39	3.2553E-01
515.74	3.2359E-01
516.08	3.2603E-01
516.42	3.2271E-01
516.77	3.2359E-01
517.11	3.2363E-01
517.46	3.2294E-01
517.80	3.2380E-01
518.14	3.2379E-01
518.49	3.2042E-01
518.83	3.2394E-01
519.17	3.2667E-01
519.52	3.2182E-01
519.86	3.2095E-01
520.20	3.1962E-01
520.55	3.1884E-01
520.89	3.1927E-01
521.23	3.2034E-01
521.58	3.2297E-01
521.92	3.2212E-01
522.26	3.2569E-01
522.61	3.1905E-01
522.95	3.2170E-01
523.29	3.1923E-01
523.64	3.2162E-01
523.98	3.2184E-01
524.32	3.2152E-01
524.66	3.2079E-01
525.01	3.2212E-01
525.35	3.2286E-01
525.69	3.2506E-01
526.04	3.2584E-01
526.38	3.2138E-01
526.72	3.2694E-01
527.06	3.2549E-01
527.41	3.2782E-01
527.75	3.2718E-01
528.09	3.2507E-01
528.43	3.2888E-01
528.78	3.2686E-01
529.12	3.3223E-01
529.46	3.3143E-01
529.80	3.3316E-01
530.15	3.3340E-01
530.49	3.3562E-01
530.83	3.3503E-01
531.17	3.3496E-01
531.51	3.3782E-01
531.86	3.3686E-01
532.20	3.4293E-01
532.54	3.3836E-01
532.88	3.4151E-01
533.22	3.4385E-01
533.57	3.4563E-01
533.91	3.4431E-01
534.25	3.4624E-01
534.59	3.4664E-01
534.93	3.4333E-01
535.27	3.4731E-01
535.62	3.5145E-01
535.96	3.5113E-01
536.30	3.4991E-01
536.64	3.5470E-01
536.98	3.5641E-01
537.32	3.5461E-01
537.66	3.5399E-01
538.01	3.6108E-01
538.35	3.6062E-01
538.69	3.5660E-01
539.03	3.6365E-01
539.37	3.5923E-01
539.71	3.6445E-01
540.05	3.6073E-01
540.39	3.6434E-01
540.73	3.6667E-01
541.07	3.6590E-01
541.42	3.6646E-01
541.76	3.6733E-01
542.10	3.6863E-01
542.44	3.7111E-01
542.78	3.7095E-01
543.12	3.6796E-01
543.46	3.7627E-01
543.80	3.7137E-01
544.14	3.7064E-01
544.48	3.6949E-01
544.82	3.7424E-01
545.16	3.7171E-01
545.50	3.7382E-01
545.84	3.7952E-01
546.18	3.7279E-01
546.52	3.7810E-01
546.86	3.7790E-01
547.20	3.7940E-01
547.54	3.8504E-01
547.88	3.7919E-01
548.22	3.7870E-01
548.56	3.8178E-01
548.90	3.7910E-01
549.24	3.8120E-01
549.58	3.8415E-01
549.92	3.8169E-01
550.26	3.8615E-01
550.60	3.8413E-01
550.94	3.7892E-01
551.28	3.8682E-01
551.62	3.8198E-01
551.96	3.8629E-01
552.30	3.8999E-01
552.64	3.8869E-01
552.98	3.8621E-01
553.32	3.8522E-01
553.66	3.8521E-01
554.00	3.8447E-01
554.34	3.8767E-01
554.68	3.8960E-01
555.02	3.8692E-01
555.36	3.9103E-01
555.69	3.8983E-01
556.03	3.8816E-01
556.37	3.8825E-01
556.71	3.8743E-01
557.05	3.8819E-01
557.39	3.8903E-01
557.73	3.8984E-01
558.07	3.8942E-01
558.41	3.8604E-01
558.75	3.9034E-01
559.08	3.8862E-01
559.42	3.8403E-01
559.76	3.9185E-01
560.10	3.9128E-01
560.44	3.9213E-01
560.78	3.8781E-01
561.12	3.8779E-01
561.45	3.8920E-01
561.79	3.9098E-01
562.13	3.9083E-01
562.47	3.9094E-01
562.81	3.9312E-01
563.15	3.9299E-01
563.48	3.9107E-01
563.82	3.8462E-01
564.16	3.9248E-01
564.50	3.9009E-01
564.84	3.9338E-01
565.17	3.9178E-01
565.51	3.8794E-01
565.85	3.9236E-01
566.19	3.8958E-01
566.52	3.9472E-01
566.86	3.8992E-01
567.20	3.9278E-01
567.54	3.9505E-01
567.88	3.9333E-01
568.21	3.9683E-01
568.55	3.9436E-01
568.89	3.9247E-01
569.23	3.9318E-01
569.56	3.9313E-01
569.90	3.9621E-01
570.24	3.9836E-01
570.57	3.9877E-01
570.91	3.9711E-01
571.25	3.9586E-01
571.59	3.9532E-01
571.92	3.9607E-01
572.26	3.9802E-01
572.60	4.0034E-01
572.93	4.0079E-01
573.27	4.0292E-01
573.61	4.0390E-01
573.95	3.9917E-01
574.28	4.0431E-01
574.62	4.0374E-01
574.96	4.1018E-01
575.29	4.0748E-01
575.63	4.1255E-01
575.97	4.0939E-01
576.30	4.1603E-01
576.64	4.1137E-01
576.98	4.1506E-01
577.31	4.1357E-01
577.65	4.1758E-01
577.98	4.1623E-01
578.32	4.2071E-01
578.66	4.2331E-01
578.99	4.2100E-01
579.33	4.2702E-01
579.67	4.2389E-01
580.00	4.2832E-01
580.34	4.2479E-01
580.67	4.2982E-01
581.01	4.3037E-01
581.35	4.3216E-01
581.68	4.3435E-01
582.02	4.3559E-01
582.35	4.3689E-01
582.69	4.3458E-01
583.02	4.4298E-01
583.36	4.4168E-01
583.70	4.3910E-01
584.03	4.4304E-01
584.37	4.4120E-01
584.70	4.4964E-01
585.04	4.4679E-01
585.37	4.4495E-01
585.71	4.5322E-01
586.04	4.4844E-01
586.38	4.5124E-01
586.72	4.5644E-01
587.05	4.5484E-01
587.39	4.5920E-01
587.72	4.5483E-01
588.06	4.6268E-01
588.39	4.5911E-01
588.73	4.6226E-01
589.06	4.6274E-01
589.40	4.6717E-01
589.73	4.6766E-01
590.07	4.7087E-01
590.40	4.7156E-01
590.73	4.7744E-01
591.07	4.6989E-01
591.40	4.7788E-01
591.74	4.7543E-01
592.07	4.8042E-01
592.41	4.7946E-01
592.74	4.8036E-01
593.08	4.7646E-01
593.41	4.7865E-01
593.75	4.8155E-01
594.08	4.8290E-01
594.41	4.8322E-01
594.75	4.8703E-01
595.08	4.8416E-01
595.42	4.8053E-01
595.75	4.8344E-01
596.09	4.8776E-01
596.42	4.8697E-01
596.75	4.8861E-01
597.09	4.9365E-01
597.42	4.8695E-01
597.75	4.9171E-01
598.09	4.9144E-01
598.42	4.9491E-01
598.76	4.9538E-01
599.09	4.9640E-01
599.42	5.0098E-01
599.76	4.9685E-01
600.09	4.9933E-01
600.42	5.0001E-01
600.76	4.9007E-01
601.09	4.9708E-01
601.42	5.0579E-01
601.76	4.9777E-01
602.09	4.9943E-01
602.42	5.0214E-01
602.76	5.0209E-01
603.09	5.0059E-01
603.42	5.0279E-01
603.76	4.9827E-01
604.09	5.0001E-01
604.42	5.0361E-01
604.76	5.0007E-01
605.09	5.0677E-01
605.42	5.0392E-01
605.75	5.0567E-01
606.09	5.0832E-01
606.42	5.0540E-01
606.75	5.0676E-01
607.09	5.1029E-01
607.42	5.0492E-01
607.75	5.0985E-01
608.08	5.1181E-01
608.42	5.1198E-01
608.75	5.0878E-01
609.08	5.1272E-01
609.41	5.1394E-01
609.75	5.1454E-01
610.08	5.0857E-01
610.41	5.1366E-01
610.74	5.1465E-01
611.07	5.1623E-01
611.41	5.0947E-01
611.74	5.1529E-01
612.07	5.1372E-01
612.40	5.1125E-01
612.73	5.1350E-01
613.07	5.1838E-01
613.40	5.1408E-01
613.73	5.1108E-01
614.06	5.1518E-01
614.39	5.1644E-01
614.72	5.1923E-01
615.06	5.1842E-01
615.39	5.2638E-01
615.72	5.1703E-01
616.05	5.2805E-01
616.38	5.2396E-01
616.71	5.2703E-01
617.05	5.1742E-01
617.38	5.2234E-01
617.71	5.1858E-01
618.04	5.2726E-01
618.37	5.1757E-01
618.70	5.2114E-01
619.03	5.2272E-01
619.36	5.1564E-01
619.69	5.2391E-01
620.03	5.1939E-01
620.36	5.1933E-01
620.69	5.1897E-01
621.02	5.2298E-01
621.35	5.1706E-01
621.68	5.1141E-01
622.01	5.1645E-01
622.34	5.1888E-01
622.67	5.1786E-01
623.00	5.2182E-01
623.33	5.1901E-01
623.66	5.1988E-01
623.99	5.2403E-01
624.32	5.1677E-01
624.65	5.1776E-01
624.99	5.1857E-01
625.32	5.2098E-01
625.65	5.2049E-01
625.98	5.1191E-01
626.31	5.1814E-01
626.64	5.2073E-01
626.97	5.1653E-01
627.30	5.1513E-01
627.63	5.1949E-01
627.96	5.1513E-01
628.29	5.1168E-01
628.62	5.1916E-01
628.95	5.2022E-01
629.28	5.1214E-01
629.61	5.2359E-01
629.94	5.2017E-01
630.26	5.2260E-01
630.59	5.2286E-01
630.92	5.1762E-01
631.25	5.1978E-01
631.58	5.2597E-01
631.91	5.2609E-01
632.24	5.2925E-01
632.57	5.2707E-01
632.90	5.2527E-01
633.23	5.2701E-01
633.56	5.3034E-01
633.89	5.3026E-01
634.22	5.3157E-01
634.55	5.3457E-01
634.88	5.3883E-01
635.20	5.3929E-01
635.53	5.4192E-01
635.86	5.4222E-01
636.19	5.4873E-01
636.52	5.4868E-01
636.85	5.4859E-01
637.18	5.5496E-01
637.51	5.5191E-01
637.83	5.5927E-01
638.16	5.5518E-01
638.49	5.6381E-01
638.82	5.6306E-01
639.15	5.6479E-01
639.48	5.6729E-01
639.81	5.7550E-01
640.13	5.7005E-01
640.46	5.7659E-01
640.79	5.7561E-01
641.12	5.8443E-01
641.45	5.8061E-01
641.77	5.8193E-01
642.10	5.9151E-01
642.43	5.9112E-01
642.76	5.9630E-01
643.09	5.9121E-01
643.41	5.9765E-01
643.74	5.9982E-01
644.07	5.9615E-01
644.40	6.0221E-01
644.73	6.1100E-01
645.05	6.1165E-01
645.38	6.1371E-01
645.71	6.1617E-01
646.04	6.1905E-01
646.36	6.1512E-01
646.69	6.2818E-01
647.02	6.1980E-01
647.35	6.2482E-01
647.67	6.3333E-01
648.00	6.2849E-01
648.33	6.3972E-01
648.66	6.3143E-01
648.98	6.4205E-01
649.31	6.3666E-01
649.64	6.3922E-01
649.96	6.4812E-01
650.29	6.5056E-01
650.62	6.5161E-01
650.94	6.5496E-01
651.27	6.5276E-01
651.60	6.5445E-01
651.92	6.6455E-01
652.25	6.6318E-01
652.58	6.6366E-01
652.90	6.6845E-01
653.23	6.6689E-01
653.56	6.6945E-01
653.88	6.7546E-01
654.21	6.7519E-01
654.54	6.7902E-01
654.86	6.8696E-01
655.19	6.7937E-01
655.52	6.9080E-01
655.84	6.8321E-01
656.17	6.8727E-01
656.49	6.9588E-01
656.82	6.8408E-01
657.15	6.9740E-01
657.47	6.9689E-01
657.80	6.9885E-01
658.13	6.9944E-01
658.45	7.0252E-01
658.78	7.0783E-01
659.10	7.0945E-01
659.43	7.1145E-01
659.75	7.0857E-01
660.08	7.0556E-01
660.41	7.1607E-01
660.73	7.1837E-01
661.06	7.2158E-01
661.38	7.1977E-01
661.71	7.2068E-01
662.03	7.1410E-01
662.36	7.2808E-01
662.68	7.2770E-01
663.01	7.1995E-01
663.33	7.3075E-01
663.66	7.3141E-01
663.98	7.3661E-01
664.31	7.3016E-01
664.63	7.4554E-01
664.96	7.3463E-01
665.28	7.4288E-01
665.61	7.4092E-01
665.93	7.4033E-01
666.26	7.4537E-01
666.58	7.4844E-01
666.91	7.4338E-01
667.23	7.5112E-01
667.56	7.4767E-01
667.88	7.4971E-01
668.21	7.5845E-01
668.53	7.5130E-01
668.86	7.5769E-01
669.18	7.5550E-01
669.50	7.6664E-01
669.83	7.6574E-01
670.15	7.6687E-01
670.48	7.7058E-01
670.80	7.6699E-01
671.13	7.6381E-01
671.45	7.7107E-01
671.77	7.7443E-01
672.10	7.6888E-01
672.42	7.8385E-01
672.75	7.7627E-01
673.07	7.8520E-01
673.39	7.8045E-01
673.72	7.8548E-01
674.04	7.9061E-01
674.37	7.8610E-01
674.69	7.8196E-01
675.01	7.9825E-01
675.34	7.9586E-01
675.66	7.9829E-01
675.98	7.8685E-01
676.31	8.0180E-01
676.63	7.9849E-01
676.95	7.9756E-01
677.28	8.0486E-01
677.60	8.0661E-01
677.92	8.1136E-01
678.25	8.1354E-01
678.57	8.1423E-01
678.89	8.1011E-01
679.22	8.2131E-01
679.54	8.1414E-01
679.86	8.2624E-01
680.18	8.1760E-01
680.51	8.1917E-01
680.83	8.3806E-01
681.15	8.2417E-01
681.48	8.3349E-01
681.80	8.2794E-01
682.12	8.2902E-01
682.44	8.3901E-01
682.77	8.4430E-01
683.09	8.4935E-01
683.41	8.4778E-01
683.73	8.5512E-01
684.06	8.5001E-01
684.38	8.5086E-01
684.70	8.5754E-01
685.02	8.6273E-01
685.34	8.6571E-01
685.67	8.6169E-01
685.99	8.7567E-01
686.31	8.6682E-01
686.63	8.8304E-01
686.96	8.8275E-01
687.28	8.8828E-01
687.60	8.7562E-01
687.92	8.8508E-01
688.24	8.9121E-01
688.56	9.0110E-01
688.89	8.9217E-01
689.21	9.0259E-01
689.53	9.0226E-01
689.85	9.1251E-01
690.17	9.0517E-01
690.49	9.2450E-01
690.82	9.1515E-01
691.14	9.1897E-01
691.46	9.1746E-01
691.78	9.2960E-01
692.10	9.2330E-01
692.42	9.3545E-01
692.74	9.3522E-01
693.06	9.4103E-01
693.39	9.5191E-01
693.71	9.6532E-01
694.03	9.6123E-01
694.35	9.5964E-01
694.67	9.6257E-01
694.99	9.7724E-01
695.31	9.7550E-01
695.63	9.7993E-01
695.95	9.8113E-01
696.27	9.8474E-01
696.59	9.8718E-01
696.91	9.9600E-01
697.23	9.9853E-01
697.56	1.0033E00
697.88	1.0011E00
698.20	1.0093E00
698.52	1.0132E00
698.84	1.0267E00
699.16	1.0337E00
699.48	1.0225E00
699.80	1.0461E00
700.12	1.0372E00
700.44	1.0415E00
700.76	1.0486E00
701.08	1.0636E00
701.40	1.0625E00
701.72	1.0652E00
702.04	1.0733E00
702.36	1.0722E00
702.68	1.0827E00
703.00	1.0924E00
703.32	1.0889E00
703.64	1.1043E00
703.96	1.0999E00
704.28	1.1093E00
704.60	1.1164E00
704.91	1.1239E00
705.23	1.1239E00
705.55	1.1361E00
705.87	1.1374E00
706.19	1.1367E00
706.51	1.1497E00
706.83	1.1433E00
707.15	1.1724E00
707.47	1.1626E00
707.79	1.1772E00
708.11	1.1723E00
708.43	1.1803E00
708.74	1.1811E00
709.06	1.1926E00
709.38	1.2056E00
709.70	1.2027E00
710.02	1.2091E00
710.34	1.2041E00
710.66	1.2289E00
710.98	1.2264E00
711.29	1.2312E00
711.61	1.2504E00
711.93	1.2612E00
712.25	1.2492E00
712.57	1.2674E00
712.89	1.2737E00
713.20	1.2675E00
713.52	1.2848E00
713.84	1.2889E00
714.16	1.2813E00
714.48	1.2938E00
714.80	1.3122E00
715.11	1.3092E00
715.43	1.3244E00
715.75	1.3293E00
716.07	1.3340E00
716.39	1.3239E00
716.70	1.3345E00
717.02	1.3311E00
717.34	1.3593E00
717.66	1.3635E00
717.97	1.3753E00
718.29	1.3835E00
718.61	1.3900E00
718.93	1.4062E00
719.24	1.3998E00
719.56	1.4256E00
719.88	1.4239E00
720.20	1.4492E00
720.51	1.4650E00
720.83	1.4429E00
721.15	1.4743E00
721.46	1.4743E00
721.78	1.4841E00
722.10	1.5102E00
722.42	1.5033E00
722.73	1.5239E00
723.05	1.5144E00
723.37	1.5310E00
723.68	1.5498E00
724.00	1.5374E00
724.32	1.5613E00
724.63	1.5530E00
724.95	1.5668E00
725.27	1.5770E00
725.58	1.5770E00
725.90	1.5706E00
726.22	1.5964E00
726.53	1.5778E00
726.85	1.6014E00
727.16	1.6077E00
727.48	1.6202E00
727.80	1.6172E00
728.11	1.6168E00
728.43	1.6228E00
728.74	1.6259E00
729.06	1.6493E00
729.38	1.6478E00
729.69	1.6369E00
730.01	1.6556E00
730.32	1.6560E00
730.64	1.6549E00
730.96	1.6641E00
731.27	1.6919E00
731.59	1.6675E00
731.90	1.6897E00
732.22	1.6885E00
732.53	1.6906E00
732.85	1.7114E00
733.16	1.7149E00
733.48	1.7204E00
733.80	1.6970E00
734.11	1.7317E00
734.43	1.7244E00
734.74	1.7286E00
735.06	1.7603E00
735.37	1.7413E00
735.69	1.7635E00
736.00	1.7706E00
736.32	1.7734E00
736.63	1.7787E00
736.95	1.7835E00
737.26	1.8009E00
737.58	1.7911E00
737.89	1.8103E00
738.21	1.8137E00
738.52	1.8093E00
738.83	1.8280E00
739.15	1.8165E00
739.46	1.8370E00
739.78	1.8508E00
740.09	1.8505E00
740.41	1.8502E00
740.72	1.8497E00
741.04	1.8505E00
741.35	1.8533E00
741.66	1.8440E00
741.98	1.8697E00
742.29	1.8624E00
742.61	1.8726E00
742.92	1.8641E00
743.23	1.8736E00
743.55	1.8931E00
743.86	1.8884E00
744.18	1.8723E00
744.49	1.8876E00
744.80	1.8820E00
745.12	1.8830E00
745.43	1.8844E00
745.74	1.8766E00
746.06	1.8862E00
746.37	1.8675E00
746.68	1.8748E00
747.00	1.8839E00
747.31	1.8927E00
747.62	1.8673E00
747.94	1.8966E00
748.25	1.8843E00
748.56	1.8802E00
748.88	1.8802E00
749.19	1.8913E00
749.50	1.8909E00
749.82	1.8817E00
750.13	1.8865E00
750.44	1.8816E00
750.75	1.8677E00
751.07	1.8850E00
751.38	1.8920E00
751.69	1.8897E00
752.01	1.8894E00
752.32	1.8992E00
752.63	1.8825E00
752.94	1.8963E00
753.26	1.9181E00
753.57	1.8991E00
753.88	1.9274E00
754.19	1.9133E00
754.51	1.9097E00
754.82	1.9114E00
755.13	1.9441E00
755.44	1.9289E00
755.75	1.9267E00
756.07	1.9338E00
756.38	1.9530E00
756.69	1.9460E00
757.00	1.9547E00
757.31	1.9829E00
757.63	2.0045E00
757.94	1.9973E00
758.25	1.9958E00
758.56	1.9717E00
758.87	2.0104E00
759.18	2.0317E00
759.50	2.0263E00
759.81	2.0491E00
760.12	2.0398E00
760.43	2.0552E00
760.74	2.0722E00
761.05	2.0702E00
761.36	2.0965E00
761.67	2.1229E00
761.99	2.1297E00
762.30	2.1093E00
762.61	2.1424E00
762.92	2.1617E00
763.23	2.1702E00
763.54	2.1771E00
763.85	2.2126E00
764.16	2.2181E00
764.47	2.2214E00
764.78	2.2460E00
765.10	2.2557E00
765.41	2.2686E00
765.72	2.2768E00
766.03	2.3351E00
766.34	2.3350E00
766.65	2.3493E00
766.96	2.3790E00
767.27	2.3909E00
767.58	2.3690E00
767.89	2.4092E00
768.20	2.4436E00
768.51	2.4574E00
768.82	2.4633E00
769.13	2.4812E00
769.44	2.5363E00
769.75	2.5322E00
770.06	2.5683E00
770.37	2.5364E00
770.68	2.5904E00
770.99	2.6077E00
771.30	2.6489E00
771.61	2.6896E00
771.92	2.6582E00
772.23	2.6847E00
772.54	2.7273E00
772.85	2.7266E00
773.16	2.7898E00
773.47	2.8158E00
773.78	2.7924E00
774.09	2.8691E00
774.39	2.8612E00
774.70	2.8942E00
775.01	2.9141E00
775.32	2.9138E00
775.63	2.9652E00
775.94	2.9978E00
776.25	3.0034E00
776.56	3.0424E00
776.87	3.1134E00
777.18	3.0950E00
777.48	3.1158E00
777.79	3.1572E00
778.10	3.1811E00
778.41	3.2047E00
778.72	3.2378E00
779.03	3.2423E00
779.34	3.3294E00
779.65	3.3040E00
779.95	3.3415E00
780.26	3.3817E00
780.57	3.4104E00
780.88	3.3994E00
781.19	3.4706E00
781.50	3.4767E00
781.80	3.5049E00
782.11	3.5479E00
782.42	3.6196E00
782.73	3.5445E00
783.04	3.5933E00
783.34	3.6773E00
783.65	3.7078E00
783.96	3.7339E00
784.27	3.7259E00
784.57	3.7362E00
784.88	3.8361E00
785.19	3.8419E00
785.50	3.8420E00
785.81	3.8860E00
786.11	3.8642E00
786.42	4.0069E00
786.73	4.0130E00
787.04	3.9828E00
787.34	4.0444E00
787.65	4.0367E00
787.96	4.1380E00
788.26	4.1720E00
788.57	4.2198E00
788.88	4.1351E00
789.19	4.3054E00
789.49	4.3032E00
789.80	4.3279E00
790.11	4.3708E00
790.41	4.3505E00
790.72	4.4772E00
791.03	4.4637E00
791.33	4.5021E00
791.64	4.5092E00
791.95	4.5661E00
792.25	4.6585E00
792.56	4.6847E00
792.87	4.6535E00
793.17	4.7178E00
793.48	4.7007E00
793.79	4.7782E00
794.09	4.9540E00
794.40	4.7563E00
794.70	4.7976E00
795.01	4.8969E00
795.32	4.8835E00
795.62	4.9971E00
795.93	5.0137E00
796.23	5.0515E00
796.54	5.0608E00
796.85	5.0185E00
797.15	5.1678E00
797.46	5.1801E00
797.76	5.2941E00
798.07	5.2427E00
798.37	5.3601E00
798.68	5.3911E00
798.99	5.4496E00
799.29	5.4821E00
799.60	5.5124E00
799.90	5.5389E00
800.21	5.6415E00
800.51	5.6968E00
800.82	5.6620E00
801.12	5.7778E00
801.43	5.6884E00
801.73	5.8041E00
802.04	5.8548E00
802.34	5.8723E00
802.65	5.9834E00
802.95	6.0305E00
803.26	6.1100E00
803.56	5.9987E00
803.87	6.1025E00
804.17	6.1672E00
804.48	6.1370E00
804.78	6.1782E00
805.09	6.3241E00
805.39	6.2489E00
805.70	6.3148E00
806.00	6.4286E00
806.30	6.3246E00
806.61	6.4491E00
806.91	6.4783E00
807.22	6.5422E00
807.52	6.6325E00
807.83	6.5536E00
808.13	6.7104E00
808.43	6.6459E00
808.74	6.8732E00
809.04	6.8204E00
809.35	6.8489E00
809.65	7.0017E00
809.95	6.9271E00
810.26	7.0951E00
810.56	6.9449E00
810.86	7.2586E00
811.17	7.2169E00
811.47	7.3846E00
811.77	7.3625E00
812.08	7.4170E00
812.38	7.4278E00
812.69	7.3749E00
812.99	7.4348E00
813.29	7.4109E00
813.59	7.5804E00
813.90	7.7071E00
814.20	7.7600E00
814.50	7.8246E00
814.81	7.7813E00
815.11	7.8985E00
815.41	7.9932E00
815.72	7.9886E00
816.02	8.1383E00
816.32	8.0270E00
816.62	7.9914E00
816.93	8.0869E00
817.23	8.3299E00
817.53	8.3311E00
817.84	8.5312E00
818.14	8.4999E00
818.44	8.3067E00
818.74	8.6078E00
819.04	8.7491E00
819.35	8.7591E00
819.65	8.6649E00
819.95	8.8203E00
820.25	8.9654E00
820.56	9.0158E00
820.86	9.0051E00
821.16	9.0665E00
821.46	9.0404E00
821.76	9.0197E00
822.07	9.1486E00
822.37	9.4082E00
822.67	9.4332E00
822.97	9.6409E00
823.27	9.5383E00
823.57	9.5134E00
823.88	9.4810E00
824.18	9.6966E00
824.48	9.4976E00
824.78	9.7448E00
825.08	9.7495E00
825.38	9.9912E00
825.69	9.8954E00
825.99	9.8854E00
826.29	1.0097E01
826.59	1.0309E01
826.89	1.0310E01
827.19	1.0231E01
827.49	1.0455E01
827.79	1.0485E01
828.09	1.0508E01
828.39	1.0675E01
828.70	1.0523E01
829.00	1.0782E01
829.30	1.0870E01
829.60	1.0656E01
829.90	1.0892E01
830.20	1.1088E01
830.50	1.1236E01
830.80	1.1491E01
831.10	1.1301E01
831.40	1.1314E01
831.70	1.1361E01
832.00	1.1450E01
832.30	1.1761E01
832.60	1.1532E01
832.90	1.1697E01
833.20	1.1591E01
833.50	1.1695E01
833.80	1.2052E01
834.10	1.2037E01
834.40	1.2193E01
834.70	1.2148E01
835.00	1.2523E01
835.30	1.2425E01
835.60	1.2343E01
835.90	1.2497E01
836.20	1.2750E01
836.50	1.2459E01
836.80	1.2598E01
837.10	1.2866E01
837.40	1.2783E01
837.70	1.2927E01
838.00	1.3216E01
838.30	1.3159E01
838.60	1.3534E01
838.90	1.3349E01
839.19	1.3204E01
839.49	1.3903E01
839.79	1.3479E01
840.09	1.3628E01
840.39	1.3720E01
840.69	1.3826E01
840.99	1.4252E01
841.29	1.4230E01
841.59	1.4217E01
841.88	1.4394E01
842.18	1.4720E01
842.48	1.4576E01
842.78	1.4581E01
843.08	1.4836E01
843.38	1.5132E01
843.68	1.5229E01
843.97	1.5386E01
844.27	1.5146E01
844.57	1.5026E01
844.87	1.5461E01
845.17	1.5394E01
845.47	1.5806E01
845.76	1.5887E01
846.06	1.5927E01
846.36	1.5824E01
846.66	1.6033E01
846.96	1.6007E01
847.25	1.6307E01
847.55	1.6304E01
847.85	1.6468E01
848.15	1.6582E01
848.44	1.6812E01
848.74	1.7189E01
849.04	1.7094E01
849.34	1.7498E01
849.63	1.7142E01
849.93	1.7390E01
850.23	1.7437E01
850.53	1.8086E01
850.82	1.8116E01
851.12	1.8294E01
851.42	1.7932E01
851.71	1.8521E01
852.01	1.8622E01
852.31	1.8553E01
852.61	1.8899E01
852.90	1.8937E01
853.20	1.9369E01
853.50	1.9676E01
853.79	1.9065E01
854.09	1.9233E01
854.39	2.0027E01
854.68	2.0031E01
854.98	1.9721E01
855.28	2.0615E01
855.57	2.0284E01
855.87	2.0551E01
856.17	2.0911E01
856.46	2.0980E01
856.76	2.0896E01
857.05	2.0713E01
857.35	2.1320E01
857.65	2.1603E01
857.94	2.1922E01
858.24	2.1898E01
858.53	2.1793E01
858.83	2.1998E01
859.13	2.2109E01
859.42	2.2345E01
859.72	2.3005E01
860.01	2.2712E01
860.31	2.3148E01
860.60	2.4156E01
860.90	2.3025E01
861.20	2.3943E01
861.49	2.4491E01
861.79	2.4481E01
862.08	2.4825E01
862.38	2.5022E01
862.67	2.5034E01
862.97	2.5171E01
863.26	2.4633E01
863.56	2.5549E01
863.85	2.6734E01
864.15	2.6054E01
864.44	2.6212E01
864.74	2.6820E01
865.03	2.6928E01
865.33	2.7173E01
865.62	2.7877E01
865.92	2.7639E01
866.21	2.8179E01
866.51	2.7819E01
866.80	2.9002E01
867.10	2.9264E01
867.39	2.9023E01
867.69	2.8970E01
867.98	2.9143E01
868.27	2.9725E01
868.57	3.0171E01
868.86	3.0115E01
869.16	3.0162E01
869.45	3.1292E01
869.75	3.0798E01
870.04	3.2338E01
870.33	3.1536E01
870.63	3.2190E01
870.92	3.1656E01
871.22	3.4177E01
871.51	3.4049E01
871.80	3.3208E01
872.10	3.3208E01
>>>>>End Processed Spectral Data<<<<<
