SpectraSuite Data File
++++++++++++++++++++++++++++++++++++
Date: Thu May 14 08:11:03 PDT 2015
User: schluterlab
Dark Spectrum Present: Yes
Reference Spectrum Present: No
Number of Sampled Component Spectra: 1
Spectrometers: USB2E3373
Integration Time (usec): 2300000 (USB2E3373)
Spectra Averaged: 3 (USB2E3373)
Boxcar Smoothing: 0 (USB2E3373)
Correct for Electrical Dark: No (USB2E3373)
Strobe/Lamp Enabled: No (USB2E3373)
Correct for Detector Non-linearity: No (USB2E3373)
Correct for Stray Light: No (USB2E3373)
Number of Pixels in Processed Spectrum: 2048
>>>>>Begin Processed Spectral Data<<<<<
178.53	0.0000E00
178.91	0.0000E00
179.29	0.0000E00
179.67	0.0000E00
180.04	0.0000E00
180.42	0.0000E00
180.80	0.0000E00
181.18	0.0000E00
181.56	0.0000E00
181.94	0.0000E00
182.31	0.0000E00
182.69	0.0000E00
183.07	0.0000E00
183.45	0.0000E00
183.83	0.0000E00
184.20	0.0000E00
184.58	0.0000E00
184.96	0.0000E00
185.34	0.0000E00
185.72	0.0000E00
186.09	0.0000E00
186.47	0.0000E00
186.85	0.0000E00
187.23	0.0000E00
187.61	0.0000E00
187.98	0.0000E00
188.36	0.0000E00
188.74	0.0000E00
189.12	0.0000E00
189.49	0.0000E00
189.87	0.0000E00
190.25	0.0000E00
190.63	0.0000E00
191.00	0.0000E00
191.38	0.0000E00
191.76	0.0000E00
192.14	0.0000E00
192.51	0.0000E00
192.89	0.0000E00
193.27	0.0000E00
193.65	0.0000E00
194.02	0.0000E00
194.40	0.0000E00
194.78	0.0000E00
195.15	0.0000E00
195.53	0.0000E00
195.91	0.0000E00
196.29	0.0000E00
196.66	0.0000E00
197.04	0.0000E00
197.42	0.0000E00
197.79	0.0000E00
198.17	0.0000E00
198.55	0.0000E00
198.92	0.0000E00
199.30	0.0000E00
199.68	0.0000E00
200.05	0.0000E00
200.43	0.0000E00
200.81	0.0000E00
201.18	0.0000E00
201.56	0.0000E00
201.94	0.0000E00
202.31	0.0000E00
202.69	0.0000E00
203.07	0.0000E00
203.44	0.0000E00
203.82	0.0000E00
204.19	0.0000E00
204.57	0.0000E00
204.95	0.0000E00
205.32	0.0000E00
205.70	0.0000E00
206.08	-0.0000E00
206.45	0.0000E00
206.83	0.0000E00
207.20	0.0000E00
207.58	0.0000E00
207.96	0.0000E00
208.33	0.0000E00
208.71	0.0000E00
209.08	0.0000E00
209.46	0.0000E00
209.84	-0.0000E00
210.21	0.0000E00
210.59	0.0000E00
210.96	0.0000E00
211.34	0.0000E00
211.71	0.0000E00
212.09	0.0000E00
212.46	0.0000E00
212.84	0.0000E00
213.22	0.0000E00
213.59	0.0000E00
213.97	0.0000E00
214.34	0.0000E00
214.72	0.0000E00
215.09	0.0000E00
215.47	0.0000E00
215.84	0.0000E00
216.22	0.0000E00
216.59	0.0000E00
216.97	0.0000E00
217.34	0.0000E00
217.72	0.0000E00
218.09	0.0000E00
218.47	0.0000E00
218.84	0.0000E00
219.22	0.0000E00
219.59	0.0000E00
219.97	0.0000E00
220.34	0.0000E00
220.72	0.0000E00
221.09	0.0000E00
221.47	0.0000E00
221.84	0.0000E00
222.22	0.0000E00
222.59	0.0000E00
222.97	0.0000E00
223.34	0.0000E00
223.72	0.0000E00
224.09	0.0000E00
224.46	0.0000E00
224.84	0.0000E00
225.21	0.0000E00
225.59	0.0000E00
225.96	0.0000E00
226.34	0.0000E00
226.71	0.0000E00
227.08	0.0000E00
227.46	0.0000E00
227.83	0.0000E00
228.21	0.0000E00
228.58	0.0000E00
228.95	0.0000E00
229.33	0.0000E00
229.70	0.0000E00
230.08	0.0000E00
230.45	0.0000E00
230.82	0.0000E00
231.20	0.0000E00
231.57	0.0000E00
231.95	0.0000E00
232.32	0.0000E00
232.69	0.0000E00
233.07	0.0000E00
233.44	0.0000E00
233.81	0.0000E00
234.19	0.0000E00
234.56	0.0000E00
234.93	0.0000E00
235.31	0.0000E00
235.68	0.0000E00
236.05	0.0000E00
236.43	0.0000E00
236.80	0.0000E00
237.17	0.0000E00
237.55	0.0000E00
237.92	0.0000E00
238.29	0.0000E00
238.67	0.0000E00
239.04	0.0000E00
239.41	0.0000E00
239.79	0.0000E00
240.16	0.0000E00
240.53	0.0000E00
240.91	0.0000E00
241.28	0.0000E00
241.65	0.0000E00
242.02	0.0000E00
242.40	0.0000E00
242.77	0.0000E00
243.14	0.0000E00
243.51	0.0000E00
243.89	0.0000E00
244.26	0.0000E00
244.63	0.0000E00
245.00	0.0000E00
245.38	0.0000E00
245.75	0.0000E00
246.12	0.0000E00
246.49	0.0000E00
246.87	0.0000E00
247.24	0.0000E00
247.61	0.0000E00
247.98	0.0000E00
248.36	0.0000E00
248.73	0.0000E00
249.10	0.0000E00
249.47	0.0000E00
249.84	0.0000E00
250.22	0.0000E00
250.59	0.0000E00
250.96	0.0000E00
251.33	0.0000E00
251.70	0.0000E00
252.08	0.0000E00
252.45	0.0000E00
252.82	0.0000E00
253.19	0.0000E00
253.56	0.0000E00
253.94	0.0000E00
254.31	0.0000E00
254.68	0.0000E00
255.05	0.0000E00
255.42	0.0000E00
255.79	0.0000E00
256.16	0.0000E00
256.54	0.0000E00
256.91	0.0000E00
257.28	0.0000E00
257.65	0.0000E00
258.02	0.0000E00
258.39	0.0000E00
258.76	0.0000E00
259.14	0.0000E00
259.51	0.0000E00
259.88	0.0000E00
260.25	0.0000E00
260.62	0.0000E00
260.99	0.0000E00
261.36	0.0000E00
261.73	0.0000E00
262.10	0.0000E00
262.47	0.0000E00
262.85	0.0000E00
263.22	0.0000E00
263.59	0.0000E00
263.96	0.0000E00
264.33	0.0000E00
264.70	0.0000E00
265.07	0.0000E00
265.44	0.0000E00
265.81	0.0000E00
266.18	0.0000E00
266.55	0.0000E00
266.92	0.0000E00
267.29	0.0000E00
267.66	-0.0000E00
268.03	0.0000E00
268.40	0.0000E00
268.77	0.0000E00
269.14	0.0000E00
269.51	0.0000E00
269.88	0.0000E00
270.25	0.0000E00
270.62	0.0000E00
270.99	0.0000E00
271.36	0.0000E00
271.73	0.0000E00
272.10	0.0000E00
272.47	0.0000E00
272.84	0.0000E00
273.21	0.0000E00
273.58	0.0000E00
273.95	0.0000E00
274.32	0.0000E00
274.69	0.0000E00
275.06	0.0000E00
275.43	0.0000E00
275.80	0.0000E00
276.17	0.0000E00
276.54	0.0000E00
276.91	0.0000E00
277.28	0.0000E00
277.65	0.0000E00
278.02	0.0000E00
278.39	0.0000E00
278.76	0.0000E00
279.13	0.0000E00
279.50	0.0000E00
279.87	0.0000E00
280.23	0.0000E00
280.60	0.0000E00
280.97	0.0000E00
281.34	0.0000E00
281.71	0.0000E00
282.08	0.0000E00
282.45	0.0000E00
282.82	0.0000E00
283.19	0.0000E00
283.56	0.0000E00
283.92	0.0000E00
284.29	0.0000E00
284.66	0.0000E00
285.03	0.0000E00
285.40	0.0000E00
285.77	0.0000E00
286.14	0.0000E00
286.51	0.0000E00
286.87	0.0000E00
287.24	0.0000E00
287.61	0.0000E00
287.98	0.0000E00
288.35	0.0000E00
288.72	0.0000E00
289.08	0.0000E00
289.45	0.0000E00
289.82	0.0000E00
290.19	0.0000E00
290.56	0.0000E00
290.93	0.0000E00
291.29	0.0000E00
291.66	0.0000E00
292.03	0.0000E00
292.40	0.0000E00
292.77	0.0000E00
293.13	0.0000E00
293.50	0.0000E00
293.87	0.0000E00
294.24	0.0000E00
294.60	0.0000E00
294.97	0.0000E00
295.34	0.0000E00
295.71	0.0000E00
296.08	0.0000E00
296.44	0.0000E00
296.81	0.0000E00
297.18	0.0000E00
297.55	0.0000E00
297.91	0.0000E00
298.28	0.0000E00
298.65	0.0000E00
299.02	0.0000E00
299.38	0.0000E00
299.75	0.0000E00
300.12	2.7398E-01
300.48	3.3449E-01
300.85	2.6919E-01
301.22	5.0802E-01
301.59	2.9105E-01
301.95	3.1474E-01
302.32	2.6134E-01
302.69	3.0183E-01
303.05	2.7963E-01
303.42	4.4177E-01
303.79	4.1731E-01
304.15	2.7214E-01
304.52	3.4854E-01
304.89	3.9041E-01
305.25	2.2447E-01
305.62	2.9480E-01
305.99	3.3611E-01
306.35	2.7566E-01
306.72	3.4310E-01
307.09	4.1219E-01
307.45	3.9531E-01
307.82	4.2366E-01
308.19	1.5594E00
308.55	3.8211E-01
308.92	3.3069E-01
309.29	3.0616E-01
309.65	3.5782E-01
310.02	4.7789E-01
310.38	3.6953E-01
310.75	2.9744E-01
311.12	4.5793E-01
311.48	3.7245E-01
311.85	5.2587E-01
312.22	3.7468E-01
312.58	6.7834E-01
312.95	3.0728E-01
313.31	3.7095E-01
313.68	5.1090E-01
314.05	4.5517E-01
314.41	5.3115E-01
314.78	4.4364E-01
315.14	1.3495E00
315.51	5.1253E-01
315.87	3.6914E-01
316.24	8.9066E-01
316.61	5.4414E-01
316.97	5.5290E-01
317.34	5.8435E-01
317.70	4.5542E-01
318.07	5.3457E-01
318.43	5.4186E-01
318.80	8.6799E-01
319.16	5.8960E-01
319.53	1.5478E01
319.89	8.3314E-01
320.26	6.6283E-01
320.62	8.9323E-01
320.99	6.4374E-01
321.35	7.0713E-01
321.72	9.5921E-01
322.08	6.5709E-01
322.45	1.2811E00
322.81	8.8321E-01
323.18	5.4722E-01
323.54	5.6761E-01
323.91	1.2488E00
324.27	8.9742E-01
324.64	2.9016E00
325.00	6.9984E-01
325.37	2.8052E00
325.73	8.0699E-01
326.10	3.2437E00
326.46	9.0596E-01
326.83	8.9622E-01
327.19	9.8488E-01
327.56	9.8060E-01
327.92	1.4452E00
328.29	1.8460E00
328.65	1.6311E00
329.01	2.2720E00
329.38	1.0209E00
329.74	1.1157E00
330.11	1.4760E00
330.47	1.7348E00
330.84	1.2816E00
331.20	1.2540E00
331.56	1.4910E00
331.93	1.2388E00
332.29	1.5194E00
332.66	1.5804E00
333.02	9.7920E-01
333.38	1.1627E00
333.75	1.2214E00
334.11	1.3616E00
334.48	1.8749E00
334.84	1.6020E00
335.20	1.3341E00
335.57	1.5403E00
335.93	2.1469E00
336.29	1.7339E00
336.66	1.5249E00
337.02	1.6276E00
337.38	1.4614E00
337.75	1.2358E00
338.11	9.8824E-01
338.47	1.7906E00
338.84	2.3835E00
339.20	4.4684E00
339.56	1.7336E00
339.93	1.8308E00
340.29	1.4496E00
340.65	1.7013E00
341.02	1.7737E00
341.38	1.6755E00
341.74	1.5085E00
342.11	1.5265E00
342.47	2.1094E00
342.83	2.2033E00
343.20	1.4438E00
343.56	2.4218E00
343.92	1.7225E00
344.28	1.9067E00
344.65	1.8628E00
345.01	1.9421E00
345.37	1.6428E00
345.73	1.6578E00
346.10	2.2109E00
346.46	1.7856E00
346.82	1.3431E00
347.19	3.0297E00
347.55	1.6065E00
347.91	3.0830E00
348.27	1.9776E00
348.63	1.6454E00
349.00	1.6173E00
349.36	1.4858E00
349.72	1.7256E00
350.08	2.1834E00
350.45	2.1966E00
350.81	2.1398E00
351.17	1.4950E00
351.53	2.0933E00
351.89	1.9301E00
352.26	1.7437E00
352.62	1.8937E00
352.98	1.2773E00
353.34	2.2046E00
353.70	1.6857E00
354.07	1.2922E00
354.43	1.5508E00
354.79	1.3506E00
355.15	1.3824E00
355.51	1.6034E00
355.87	1.0498E00
356.24	1.5808E00
356.60	1.6985E00
356.96	1.4967E00
357.32	1.7999E00
357.68	1.2569E00
358.04	1.4910E00
358.40	1.5306E00
358.77	1.2792E00
359.13	1.6887E00
359.49	1.6647E00
359.85	1.5425E00
360.21	1.4399E00
360.57	1.3292E00
360.93	1.2565E00
361.29	1.5074E00
361.66	2.3062E00
362.02	1.4569E00
362.38	1.9649E00
362.74	1.3027E00
363.10	1.5319E00
363.46	1.3323E00
363.82	1.3920E00
364.18	1.5307E00
364.54	1.4235E00
364.90	1.1160E00
365.26	1.5049E00
365.62	1.3846E00
365.98	1.9287E00
366.35	1.7036E00
366.71	1.4356E00
367.07	1.4521E00
367.43	1.4275E00
367.79	1.3642E00
368.15	1.1430E00
368.51	1.4156E00
368.87	1.2379E00
369.23	1.3521E00
369.59	1.5739E00
369.95	1.5661E00
370.31	1.2195E00
370.67	1.3240E00
371.03	1.5252E00
371.39	1.4207E00
371.75	1.2274E00
372.11	1.4681E00
372.47	1.2110E00
372.83	1.4768E00
373.19	1.3187E00
373.55	1.4664E00
373.91	1.4615E00
374.27	1.6170E00
374.63	1.3693E00
374.99	1.3498E00
375.35	1.4267E00
375.71	1.2471E00
376.07	1.3862E00
376.42	1.2701E00
376.78	1.3959E00
377.14	1.2931E00
377.50	1.1628E00
377.86	1.3598E00
378.22	1.2062E00
378.58	1.3143E00
378.94	1.0606E00
379.30	1.1341E00
379.66	1.2630E00
380.02	1.1662E00
380.38	1.1863E00
380.74	1.3099E00
381.09	1.0957E00
381.45	1.1599E00
381.81	9.9943E-01
382.17	1.3113E00
382.53	1.1648E00
382.89	1.1309E00
383.25	1.1981E00
383.61	1.1434E00
383.97	1.1463E00
384.32	1.0915E00
384.68	1.2744E00
385.04	1.0814E00
385.40	1.0775E00
385.76	1.2215E00
386.12	1.0692E00
386.48	1.1316E00
386.83	1.2102E00
387.19	1.0650E00
387.55	1.1333E00
387.91	1.0312E00
388.27	1.1247E00
388.62	1.2152E00
388.98	1.0229E00
389.34	1.2034E00
389.70	1.0301E00
390.06	9.9726E-01
390.42	1.2113E00
390.77	1.0889E00
391.13	1.0549E00
391.49	1.1804E00
391.85	1.2729E00
392.20	1.2165E00
392.56	1.1455E00
392.92	1.0836E00
393.28	1.0742E00
393.64	1.0830E00
393.99	1.1311E00
394.35	1.0846E00
394.71	1.0942E00
395.07	1.0105E00
395.42	1.1076E00
395.78	1.1536E00
396.14	1.0959E00
396.50	1.0550E00
396.85	1.1703E00
397.21	1.0212E00
397.57	1.1165E00
397.92	1.0930E00
398.28	1.0631E00
398.64	1.1229E00
399.00	1.0221E00
399.35	9.9410E-01
399.71	1.0247E00
400.07	1.0786E00
400.42	1.0188E00
400.78	1.0339E00
401.14	9.6730E-01
401.49	1.0280E00
401.85	9.6126E-01
402.21	1.0411E00
402.57	1.0407E00
402.92	1.0101E00
403.28	9.7845E-01
403.63	9.7546E-01
403.99	9.6833E-01
404.35	9.7713E-01
404.70	1.0257E00
405.06	9.2833E-01
405.42	1.0315E00
405.77	9.5204E-01
406.13	9.3939E-01
406.49	8.9410E-01
406.84	9.6677E-01
407.20	9.2447E-01
407.55	1.0138E00
407.91	1.0104E00
408.27	9.2041E-01
408.62	9.0416E-01
408.98	9.1282E-01
409.34	9.0293E-01
409.69	9.5721E-01
410.05	9.2425E-01
410.40	9.1468E-01
410.76	8.7601E-01
411.11	8.3424E-01
411.47	9.1544E-01
411.83	8.5031E-01
412.18	8.5588E-01
412.54	9.1681E-01
412.89	9.1725E-01
413.25	8.4891E-01
413.60	8.7884E-01
413.96	9.4159E-01
414.31	9.0333E-01
414.67	9.5740E-01
415.03	9.5844E-01
415.38	9.1848E-01
415.74	9.5112E-01
416.09	8.7734E-01
416.45	9.4281E-01
416.80	8.8100E-01
417.16	9.5027E-01
417.51	8.8863E-01
417.87	8.7652E-01
418.22	8.5717E-01
418.58	9.2323E-01
418.93	8.2902E-01
419.29	9.0311E-01
419.64	8.7179E-01
420.00	8.3492E-01
420.35	8.0823E-01
420.71	8.5772E-01
421.06	8.4744E-01
421.42	8.5602E-01
421.77	8.5926E-01
422.12	8.5814E-01
422.48	8.3163E-01
422.83	8.7863E-01
423.19	8.4248E-01
423.54	8.4163E-01
423.90	8.4340E-01
424.25	8.0421E-01
424.61	8.4752E-01
424.96	8.3179E-01
425.31	8.0056E-01
425.67	8.0119E-01
426.02	8.1340E-01
426.38	8.0715E-01
426.73	7.9138E-01
427.09	8.0972E-01
427.44	7.4811E-01
427.79	8.0284E-01
428.15	7.8629E-01
428.50	8.0040E-01
428.85	8.2589E-01
429.21	7.6422E-01
429.56	7.3904E-01
429.92	7.6006E-01
430.27	7.4879E-01
430.62	7.8392E-01
430.98	8.0128E-01
431.33	7.6927E-01
431.68	7.6917E-01
432.04	7.3756E-01
432.39	7.5479E-01
432.74	8.0330E-01
433.10	7.2784E-01
433.45	7.6923E-01
433.80	7.7405E-01
434.16	7.7707E-01
434.51	7.4542E-01
434.86	7.8099E-01
435.22	7.3658E-01
435.57	8.1097E-01
435.92	7.5648E-01
436.28	7.8321E-01
436.63	7.3107E-01
436.98	7.3847E-01
437.34	7.5608E-01
437.69	7.2922E-01
438.04	7.0649E-01
438.39	7.6084E-01
438.75	7.3265E-01
439.10	7.0277E-01
439.45	7.4444E-01
439.81	7.2170E-01
440.16	7.0446E-01
440.51	7.2409E-01
440.86	7.2196E-01
441.22	7.1569E-01
441.57	7.2978E-01
441.92	7.0878E-01
442.27	7.4450E-01
442.63	7.1463E-01
442.98	7.6032E-01
443.33	7.4224E-01
443.68	7.1583E-01
444.03	6.6634E-01
444.39	6.6714E-01
444.74	7.2007E-01
445.09	7.3242E-01
445.44	7.2443E-01
445.79	6.5604E-01
446.15	7.2129E-01
446.50	7.0600E-01
446.85	6.7364E-01
447.20	6.6454E-01
447.55	6.8382E-01
447.91	6.9555E-01
448.26	6.9181E-01
448.61	7.0482E-01
448.96	6.8324E-01
449.31	6.8044E-01
449.66	7.1547E-01
450.02	6.7646E-01
450.37	7.0720E-01
450.72	6.7561E-01
451.07	7.1403E-01
451.42	7.1520E-01
451.77	6.9196E-01
452.12	6.9061E-01
452.47	7.3098E-01
452.83	6.4893E-01
453.18	6.9821E-01
453.53	6.8147E-01
453.88	6.4378E-01
454.23	6.5093E-01
454.58	6.4837E-01
454.93	6.7921E-01
455.28	6.7161E-01
455.63	6.6872E-01
455.98	6.5406E-01
456.34	6.8172E-01
456.69	6.7305E-01
457.04	6.5609E-01
457.39	6.3026E-01
457.74	6.2113E-01
458.09	6.4494E-01
458.44	6.2668E-01
458.79	6.0002E-01
459.14	6.2683E-01
459.49	6.4463E-01
459.84	6.2059E-01
460.19	6.5625E-01
460.54	6.4608E-01
460.89	5.9873E-01
461.24	6.5839E-01
461.59	6.3127E-01
461.94	6.5079E-01
462.29	5.9882E-01
462.64	6.4693E-01
462.99	6.5413E-01
463.34	6.5827E-01
463.69	6.2560E-01
464.04	5.8859E-01
464.39	5.9877E-01
464.74	6.1587E-01
465.09	6.3628E-01
465.44	5.9929E-01
465.79	6.2408E-01
466.14	6.2655E-01
466.49	6.0651E-01
466.84	6.1267E-01
467.19	6.1734E-01
467.54	6.3830E-01
467.89	6.0109E-01
468.24	5.7553E-01
468.59	5.8241E-01
468.94	5.7534E-01
469.29	5.7913E-01
469.64	5.9001E-01
469.99	5.7796E-01
470.34	5.5487E-01
470.68	5.9346E-01
471.03	5.7385E-01
471.38	5.5769E-01
471.73	5.5884E-01
472.08	5.3787E-01
472.43	5.2166E-01
472.78	5.4191E-01
473.13	5.4438E-01
473.48	5.4288E-01
473.83	5.2234E-01
474.17	5.3116E-01
474.52	5.2851E-01
474.87	5.0430E-01
475.22	5.1268E-01
475.57	4.8733E-01
475.92	4.6993E-01
476.27	5.0515E-01
476.61	4.7892E-01
476.96	4.6934E-01
477.31	4.5161E-01
477.66	4.5892E-01
478.01	4.5538E-01
478.36	4.5603E-01
478.70	4.4091E-01
479.05	4.5133E-01
479.40	4.2892E-01
479.75	4.3170E-01
480.10	4.3237E-01
480.45	4.1782E-01
480.79	4.2290E-01
481.14	4.3195E-01
481.49	4.1485E-01
481.84	4.0489E-01
482.19	4.0194E-01
482.53	4.0586E-01
482.88	3.9885E-01
483.23	3.9106E-01
483.58	3.9038E-01
483.92	3.9818E-01
484.27	3.8115E-01
484.62	3.8273E-01
484.97	3.7224E-01
485.31	3.7214E-01
485.66	3.7742E-01
486.01	3.7984E-01
486.36	3.6354E-01
486.70	3.6676E-01
487.05	3.6563E-01
487.40	3.6353E-01
487.75	3.5527E-01
488.09	3.5872E-01
488.44	3.6126E-01
488.79	3.6104E-01
489.13	3.5524E-01
489.48	3.5776E-01
489.83	3.5660E-01
490.17	3.4615E-01
490.52	3.4639E-01
490.87	3.4745E-01
491.22	3.4796E-01
491.56	3.4817E-01
491.91	3.5331E-01
492.26	3.4750E-01
492.60	3.4805E-01
492.95	3.5070E-01
493.30	3.4952E-01
493.64	3.4409E-01
493.99	3.4738E-01
494.34	3.4733E-01
494.68	3.4041E-01
495.03	3.5115E-01
495.37	3.4370E-01
495.72	3.5232E-01
496.07	3.4317E-01
496.41	3.4280E-01
496.76	3.4225E-01
497.11	3.4706E-01
497.45	3.4490E-01
497.80	3.4580E-01
498.14	3.4371E-01
498.49	3.4264E-01
498.84	3.4479E-01
499.18	3.3932E-01
499.53	3.4270E-01
499.87	3.4374E-01
500.22	3.4628E-01
500.56	3.4583E-01
500.91	3.4355E-01
501.26	3.4433E-01
501.60	3.4154E-01
501.95	3.4239E-01
502.29	3.4218E-01
502.64	3.3906E-01
502.98	3.4491E-01
503.33	3.3850E-01
503.67	3.4130E-01
504.02	3.4053E-01
504.36	3.3791E-01
504.71	3.4351E-01
505.06	3.4216E-01
505.40	3.3768E-01
505.75	3.3854E-01
506.09	3.4045E-01
506.44	3.3774E-01
506.78	3.3700E-01
507.13	3.3769E-01
507.47	3.3546E-01
507.82	3.3439E-01
508.16	3.3654E-01
508.51	3.3370E-01
508.85	3.3089E-01
509.19	3.3084E-01
509.54	3.3501E-01
509.88	3.3705E-01
510.23	3.3160E-01
510.57	3.3222E-01
510.92	3.3234E-01
511.26	3.2928E-01
511.61	3.3061E-01
511.95	3.2933E-01
512.30	3.2728E-01
512.64	3.2805E-01
512.98	3.2773E-01
513.33	3.2679E-01
513.67	3.3059E-01
514.02	3.2835E-01
514.36	3.2526E-01
514.70	3.2868E-01
515.05	3.2233E-01
515.39	3.2504E-01
515.74	3.2310E-01
516.08	3.2560E-01
516.42	3.2207E-01
516.77	3.2292E-01
517.11	3.2291E-01
517.46	3.2192E-01
517.80	3.2310E-01
518.14	3.2281E-01
518.49	3.1963E-01
518.83	3.2351E-01
519.17	3.2620E-01
519.52	3.2129E-01
519.86	3.2034E-01
520.20	3.1903E-01
520.55	3.1857E-01
520.89	3.1837E-01
521.23	3.1949E-01
521.58	3.2242E-01
521.92	3.2129E-01
522.26	3.2481E-01
522.61	3.1793E-01
522.95	3.2107E-01
523.29	3.1883E-01
523.64	3.2127E-01
523.98	3.2131E-01
524.32	3.2113E-01
524.66	3.2014E-01
525.01	3.2144E-01
525.35	3.2230E-01
525.69	3.2487E-01
526.04	3.2530E-01
526.38	3.2050E-01
526.72	3.2648E-01
527.06	3.2494E-01
527.41	3.2714E-01
527.75	3.2688E-01
528.09	3.2479E-01
528.43	3.2819E-01
528.78	3.2626E-01
529.12	3.3156E-01
529.46	3.3072E-01
529.80	3.3241E-01
530.15	3.3273E-01
530.49	3.3495E-01
530.83	3.3413E-01
531.17	3.3443E-01
531.51	3.3721E-01
531.86	3.3651E-01
532.20	3.4213E-01
532.54	3.3753E-01
532.88	3.4086E-01
533.22	3.4367E-01
533.57	3.4546E-01
533.91	3.4330E-01
534.25	3.4505E-01
534.59	3.4597E-01
534.93	3.4241E-01
535.27	3.4653E-01
535.62	3.5049E-01
535.96	3.5041E-01
536.30	3.4954E-01
536.64	3.5394E-01
536.98	3.5562E-01
537.32	3.5336E-01
537.66	3.5334E-01
538.01	3.6020E-01
538.35	3.5975E-01
538.69	3.5605E-01
539.03	3.6277E-01
539.37	3.5828E-01
539.71	3.6378E-01
540.05	3.5959E-01
540.39	3.6358E-01
540.73	3.6600E-01
541.07	3.6524E-01
541.42	3.6615E-01
541.76	3.6687E-01
542.10	3.6769E-01
542.44	3.7043E-01
542.78	3.7077E-01
543.12	3.6730E-01
543.46	3.7532E-01
543.80	3.7044E-01
544.14	3.6950E-01
544.48	3.6857E-01
544.82	3.7344E-01
545.16	3.7106E-01
545.50	3.7322E-01
545.84	3.7937E-01
546.18	3.7220E-01
546.52	3.7740E-01
546.86	3.7712E-01
547.20	3.7818E-01
547.54	3.8391E-01
547.88	3.7829E-01
548.22	3.7779E-01
548.56	3.8107E-01
548.90	3.7817E-01
549.24	3.8002E-01
549.58	3.8326E-01
549.92	3.8101E-01
550.26	3.8545E-01
550.60	3.8358E-01
550.94	3.7812E-01
551.28	3.8620E-01
551.62	3.8148E-01
551.96	3.8538E-01
552.30	3.8923E-01
552.64	3.8789E-01
552.98	3.8566E-01
553.32	3.8451E-01
553.66	3.8473E-01
554.00	3.8355E-01
554.34	3.8699E-01
554.68	3.8879E-01
555.02	3.8641E-01
555.36	3.9019E-01
555.69	3.8940E-01
556.03	3.8728E-01
556.37	3.8740E-01
556.71	3.8677E-01
557.05	3.8763E-01
557.39	3.8846E-01
557.73	3.8946E-01
558.07	3.8918E-01
558.41	3.8563E-01
558.75	3.8987E-01
559.08	3.8813E-01
559.42	3.8317E-01
559.76	3.9099E-01
560.10	3.9041E-01
560.44	3.9162E-01
560.78	3.8705E-01
561.12	3.8718E-01
561.45	3.8867E-01
561.79	3.9074E-01
562.13	3.9056E-01
562.47	3.9045E-01
562.81	3.9274E-01
563.15	3.9254E-01
563.48	3.9044E-01
563.82	3.8444E-01
564.16	3.9200E-01
564.50	3.9002E-01
564.84	3.9296E-01
565.17	3.9137E-01
565.51	3.8746E-01
565.85	3.9183E-01
566.19	3.8928E-01
566.52	3.9422E-01
566.86	3.8916E-01
567.20	3.9222E-01
567.54	3.9489E-01
567.88	3.9279E-01
568.21	3.9622E-01
568.55	3.9407E-01
568.89	3.9211E-01
569.23	3.9270E-01
569.56	3.9277E-01
569.90	3.9551E-01
570.24	3.9777E-01
570.57	3.9817E-01
570.91	3.9654E-01
571.25	3.9573E-01
571.59	3.9508E-01
571.92	3.9569E-01
572.26	3.9768E-01
572.60	3.9969E-01
572.93	4.0033E-01
573.27	4.0233E-01
573.61	4.0389E-01
573.95	3.9833E-01
574.28	4.0375E-01
574.62	4.0302E-01
574.96	4.0924E-01
575.29	4.0706E-01
575.63	4.1169E-01
575.97	4.0891E-01
576.30	4.1556E-01
576.64	4.1086E-01
576.98	4.1473E-01
577.31	4.1301E-01
577.65	4.1713E-01
577.98	4.1599E-01
578.32	4.2039E-01
578.66	4.2271E-01
578.99	4.2001E-01
579.33	4.2597E-01
579.67	4.2321E-01
580.00	4.2776E-01
580.34	4.2388E-01
580.67	4.2894E-01
581.01	4.2971E-01
581.35	4.3138E-01
581.68	4.3366E-01
582.02	4.3472E-01
582.35	4.3620E-01
582.69	4.3389E-01
583.02	4.4227E-01
583.36	4.4073E-01
583.70	4.3825E-01
584.03	4.4267E-01
584.37	4.4058E-01
584.70	4.4892E-01
585.04	4.4624E-01
585.37	4.4396E-01
585.71	4.5257E-01
586.04	4.4816E-01
586.38	4.5138E-01
586.72	4.5561E-01
587.05	4.5416E-01
587.39	4.5840E-01
587.72	4.5405E-01
588.06	4.6156E-01
588.39	4.5821E-01
588.73	4.6104E-01
589.06	4.6164E-01
589.40	4.6579E-01
589.73	4.6687E-01
590.07	4.7009E-01
590.40	4.7048E-01
590.73	4.7675E-01
591.07	4.6942E-01
591.40	4.7704E-01
591.74	4.7468E-01
592.07	4.7944E-01
592.41	4.7877E-01
592.74	4.7990E-01
593.08	4.7521E-01
593.41	4.7783E-01
593.75	4.8086E-01
594.08	4.8187E-01
594.41	4.8216E-01
594.75	4.8601E-01
595.08	4.8349E-01
595.42	4.7938E-01
595.75	4.8289E-01
596.09	4.8684E-01
596.42	4.8606E-01
596.75	4.8766E-01
597.09	4.9266E-01
597.42	4.8578E-01
597.75	4.9105E-01
598.09	4.9060E-01
598.42	4.9453E-01
598.76	4.9461E-01
599.09	4.9503E-01
599.42	5.0009E-01
599.76	4.9640E-01
600.09	4.9865E-01
600.42	4.9965E-01
600.76	4.9004E-01
601.09	4.9623E-01
601.42	5.0494E-01
601.76	4.9706E-01
602.09	4.9870E-01
602.42	5.0108E-01
602.76	5.0073E-01
603.09	5.0016E-01
603.42	5.0210E-01
603.76	4.9770E-01
604.09	4.9945E-01
604.42	5.0272E-01
604.76	4.9924E-01
605.09	5.0642E-01
605.42	5.0376E-01
605.75	5.0519E-01
606.09	5.0743E-01
606.42	5.0434E-01
606.75	5.0621E-01
607.09	5.0998E-01
607.42	5.0423E-01
607.75	5.0931E-01
608.08	5.1122E-01
608.42	5.1067E-01
608.75	5.0822E-01
609.08	5.1212E-01
609.41	5.1321E-01
609.75	5.1371E-01
610.08	5.0805E-01
610.41	5.1261E-01
610.74	5.1387E-01
611.07	5.1584E-01
611.41	5.0845E-01
611.74	5.1439E-01
612.07	5.1301E-01
612.40	5.1095E-01
612.73	5.1224E-01
613.07	5.1744E-01
613.40	5.1276E-01
613.73	5.1035E-01
614.06	5.1481E-01
614.39	5.1582E-01
614.72	5.1859E-01
615.06	5.1689E-01
615.39	5.2523E-01
615.72	5.1630E-01
616.05	5.2721E-01
616.38	5.2368E-01
616.71	5.2593E-01
617.05	5.1640E-01
617.38	5.2180E-01
617.71	5.1753E-01
618.04	5.2646E-01
618.37	5.1658E-01
618.70	5.2071E-01
619.03	5.2193E-01
619.36	5.1520E-01
619.69	5.2268E-01
620.03	5.1842E-01
620.36	5.1812E-01
620.69	5.1887E-01
621.02	5.2268E-01
621.35	5.1694E-01
621.68	5.1094E-01
622.01	5.1656E-01
622.34	5.1772E-01
622.67	5.1707E-01
623.00	5.2116E-01
623.33	5.1752E-01
623.66	5.1910E-01
623.99	5.2289E-01
624.32	5.1569E-01
624.65	5.1706E-01
624.99	5.1749E-01
625.32	5.2071E-01
625.65	5.1969E-01
625.98	5.1103E-01
626.31	5.1764E-01
626.64	5.1997E-01
626.97	5.1599E-01
627.30	5.1472E-01
627.63	5.1856E-01
627.96	5.1418E-01
628.29	5.1103E-01
628.62	5.1775E-01
628.95	5.1952E-01
629.28	5.1129E-01
629.61	5.2332E-01
629.94	5.1939E-01
630.26	5.2221E-01
630.59	5.2252E-01
630.92	5.1719E-01
631.25	5.1911E-01
631.58	5.2489E-01
631.91	5.2528E-01
632.24	5.2866E-01
632.57	5.2661E-01
632.90	5.2451E-01
633.23	5.2556E-01
633.56	5.2980E-01
633.89	5.2950E-01
634.22	5.3030E-01
634.55	5.3349E-01
634.88	5.3771E-01
635.20	5.3796E-01
635.53	5.4123E-01
635.86	5.4180E-01
636.19	5.4749E-01
636.52	5.4754E-01
636.85	5.4782E-01
637.18	5.5426E-01
637.51	5.5116E-01
637.83	5.5872E-01
638.16	5.5419E-01
638.49	5.6322E-01
638.82	5.6233E-01
639.15	5.6411E-01
639.48	5.6649E-01
639.81	5.7461E-01
640.13	5.6910E-01
640.46	5.7526E-01
640.79	5.7483E-01
641.12	5.8328E-01
641.45	5.8025E-01
641.77	5.8190E-01
642.10	5.9090E-01
642.43	5.9032E-01
642.76	5.9551E-01
643.09	5.8994E-01
643.41	5.9677E-01
643.74	5.9876E-01
644.07	5.9533E-01
644.40	6.0121E-01
644.73	6.0982E-01
645.05	6.1047E-01
645.38	6.1293E-01
645.71	6.1535E-01
646.04	6.1759E-01
646.36	6.1428E-01
646.69	6.2746E-01
647.02	6.1875E-01
647.35	6.2344E-01
647.67	6.3262E-01
648.00	6.2759E-01
648.33	6.3866E-01
648.66	6.3058E-01
648.98	6.4057E-01
649.31	6.3529E-01
649.64	6.3858E-01
649.96	6.4749E-01
650.29	6.5013E-01
650.62	6.5091E-01
650.94	6.5410E-01
651.27	6.5203E-01
651.60	6.5413E-01
651.92	6.6379E-01
652.25	6.6248E-01
652.58	6.6311E-01
652.90	6.6809E-01
653.23	6.6595E-01
653.56	6.6868E-01
653.88	6.7442E-01
654.21	6.7374E-01
654.54	6.7783E-01
654.86	6.8576E-01
655.19	6.7826E-01
655.52	6.9000E-01
655.84	6.8295E-01
656.17	6.8589E-01
656.49	6.9522E-01
656.82	6.8288E-01
657.15	6.9604E-01
657.47	6.9533E-01
657.80	6.9815E-01
658.13	6.9802E-01
658.45	7.0178E-01
658.78	7.0694E-01
659.10	7.0845E-01
659.43	7.1051E-01
659.75	7.0735E-01
660.08	7.0370E-01
660.41	7.1410E-01
660.73	7.1773E-01
661.06	7.2032E-01
661.38	7.1900E-01
661.71	7.1903E-01
662.03	7.1322E-01
662.36	7.2647E-01
662.68	7.2714E-01
663.01	7.1851E-01
663.33	7.3023E-01
663.66	7.3060E-01
663.98	7.3583E-01
664.31	7.2892E-01
664.63	7.4407E-01
664.96	7.3351E-01
665.28	7.4154E-01
665.61	7.3926E-01
665.93	7.3944E-01
666.26	7.4396E-01
666.58	7.4791E-01
666.91	7.4208E-01
667.23	7.4989E-01
667.56	7.4673E-01
667.88	7.4904E-01
668.21	7.5812E-01
668.53	7.4981E-01
668.86	7.5619E-01
669.18	7.5481E-01
669.50	7.6646E-01
669.83	7.6419E-01
670.15	7.6494E-01
670.48	7.6954E-01
670.80	7.6536E-01
671.13	7.6252E-01
671.45	7.7034E-01
671.77	7.7394E-01
672.10	7.6767E-01
672.42	7.8223E-01
672.75	7.7496E-01
673.07	7.8437E-01
673.39	7.7949E-01
673.72	7.8431E-01
674.04	7.9000E-01
674.37	7.8520E-01
674.69	7.8149E-01
675.01	7.9761E-01
675.34	7.9447E-01
675.66	7.9708E-01
675.98	7.8520E-01
676.31	7.9994E-01
676.63	7.9725E-01
676.95	7.9655E-01
677.28	8.0389E-01
677.60	8.0509E-01
677.92	8.1008E-01
678.25	8.1286E-01
678.57	8.1323E-01
678.89	8.0888E-01
679.22	8.2009E-01
679.54	8.1286E-01
679.86	8.2504E-01
680.18	8.1610E-01
680.51	8.1682E-01
680.83	8.3638E-01
681.15	8.2370E-01
681.48	8.3352E-01
681.80	8.2640E-01
682.12	8.2828E-01
682.44	8.3713E-01
682.77	8.4224E-01
683.09	8.4728E-01
683.41	8.4584E-01
683.73	8.5350E-01
684.06	8.4918E-01
684.38	8.4952E-01
684.70	8.5594E-01
685.02	8.6102E-01
685.34	8.6320E-01
685.67	8.5942E-01
685.99	8.7515E-01
686.31	8.6571E-01
686.63	8.8049E-01
686.96	8.8257E-01
687.28	8.8713E-01
687.60	8.7456E-01
687.92	8.8391E-01
688.24	8.9011E-01
688.56	8.9911E-01
688.89	8.9145E-01
689.21	9.0210E-01
689.53	9.0071E-01
689.85	9.1080E-01
690.17	9.0317E-01
690.49	9.2405E-01
690.82	9.1496E-01
691.14	9.1736E-01
691.46	9.1615E-01
691.78	9.2816E-01
692.10	9.2213E-01
692.42	9.3287E-01
692.74	9.3371E-01
693.06	9.3922E-01
693.39	9.5103E-01
693.71	9.6504E-01
694.03	9.6037E-01
694.35	9.5881E-01
694.67	9.6119E-01
694.99	9.7441E-01
695.31	9.7390E-01
695.63	9.7825E-01
695.95	9.7975E-01
696.27	9.8219E-01
696.59	9.8453E-01
696.91	9.9423E-01
697.23	9.9664E-01
697.56	1.0019E00
697.88	9.9983E-01
698.20	1.0080E00
698.52	1.0121E00
698.84	1.0259E00
699.16	1.0334E00
699.48	1.0212E00
699.80	1.0448E00
700.12	1.0360E00
700.44	1.0401E00
700.76	1.0465E00
701.08	1.0628E00
701.40	1.0619E00
701.72	1.0638E00
702.04	1.0720E00
702.36	1.0707E00
702.68	1.0819E00
703.00	1.0922E00
703.32	1.0874E00
703.64	1.1039E00
703.96	1.0999E00
704.28	1.1087E00
704.60	1.1156E00
704.91	1.1218E00
705.23	1.1232E00
705.55	1.1349E00
705.87	1.1361E00
706.19	1.1351E00
706.51	1.1472E00
706.83	1.1418E00
707.15	1.1708E00
707.47	1.1613E00
707.79	1.1766E00
708.11	1.1705E00
708.43	1.1802E00
708.74	1.1796E00
709.06	1.1916E00
709.38	1.2037E00
709.70	1.2013E00
710.02	1.2075E00
710.34	1.2032E00
710.66	1.2281E00
710.98	1.2256E00
711.29	1.2314E00
711.61	1.2489E00
711.93	1.2601E00
712.25	1.2470E00
712.57	1.2666E00
712.89	1.2710E00
713.20	1.2658E00
713.52	1.2838E00
713.84	1.2875E00
714.16	1.2788E00
714.48	1.2922E00
714.80	1.3111E00
715.11	1.3077E00
715.43	1.3235E00
715.75	1.3282E00
716.07	1.3315E00
716.39	1.3217E00
716.70	1.3334E00
717.02	1.3294E00
717.34	1.3584E00
717.66	1.3606E00
717.97	1.3740E00
718.29	1.3808E00
718.61	1.3879E00
718.93	1.4047E00
719.24	1.3984E00
719.56	1.4238E00
719.88	1.4232E00
720.20	1.4477E00
720.51	1.4619E00
720.83	1.4392E00
721.15	1.4719E00
721.46	1.4720E00
721.78	1.4832E00
722.10	1.5088E00
722.42	1.5005E00
722.73	1.5213E00
723.05	1.5113E00
723.37	1.5295E00
723.68	1.5482E00
724.00	1.5374E00
724.32	1.5605E00
724.63	1.5491E00
724.95	1.5628E00
725.27	1.5771E00
725.58	1.5745E00
725.90	1.5673E00
726.22	1.5932E00
726.53	1.5769E00
726.85	1.5976E00
727.16	1.6035E00
727.48	1.6177E00
727.80	1.6135E00
728.11	1.6129E00
728.43	1.6225E00
728.74	1.6240E00
729.06	1.6478E00
729.38	1.6460E00
729.69	1.6357E00
730.01	1.6543E00
730.32	1.6546E00
730.64	1.6520E00
730.96	1.6600E00
731.27	1.6897E00
731.59	1.6652E00
731.90	1.6873E00
732.22	1.6877E00
732.53	1.6890E00
732.85	1.7095E00
733.16	1.7160E00
733.48	1.7189E00
733.80	1.6949E00
734.11	1.7296E00
734.43	1.7223E00
734.74	1.7265E00
735.06	1.7592E00
735.37	1.7391E00
735.69	1.7608E00
736.00	1.7685E00
736.32	1.7724E00
736.63	1.7768E00
736.95	1.7814E00
737.26	1.7969E00
737.58	1.7877E00
737.89	1.8090E00
738.21	1.8114E00
738.52	1.8082E00
738.83	1.8273E00
739.15	1.8174E00
739.46	1.8369E00
739.78	1.8493E00
740.09	1.8495E00
740.41	1.8496E00
740.72	1.8481E00
741.04	1.8500E00
741.35	1.8500E00
741.66	1.8404E00
741.98	1.8679E00
742.29	1.8611E00
742.61	1.8689E00
742.92	1.8622E00
743.23	1.8731E00
743.55	1.8934E00
743.86	1.8890E00
744.18	1.8703E00
744.49	1.8850E00
744.80	1.8800E00
745.12	1.8815E00
745.43	1.8833E00
745.74	1.8750E00
746.06	1.8845E00
746.37	1.8657E00
746.68	1.8744E00
747.00	1.8816E00
747.31	1.8912E00
747.62	1.8639E00
747.94	1.8945E00
748.25	1.8852E00
748.56	1.8779E00
748.88	1.8792E00
749.19	1.8892E00
749.50	1.8872E00
749.82	1.8802E00
750.13	1.8856E00
750.44	1.8809E00
750.75	1.8667E00
751.07	1.8849E00
751.38	1.8902E00
751.69	1.8875E00
752.01	1.8877E00
752.32	1.8985E00
752.63	1.8798E00
752.94	1.8914E00
753.26	1.9165E00
753.57	1.8962E00
753.88	1.9240E00
754.19	1.9117E00
754.51	1.9097E00
754.82	1.9097E00
755.13	1.9421E00
755.44	1.9259E00
755.75	1.9248E00
756.07	1.9318E00
756.38	1.9509E00
756.69	1.9457E00
757.00	1.9525E00
757.31	1.9790E00
757.63	2.0014E00
757.94	1.9966E00
758.25	1.9948E00
758.56	1.9716E00
758.87	2.0081E00
759.18	2.0289E00
759.50	2.0269E00
759.81	2.0471E00
760.12	2.0383E00
760.43	2.0525E00
760.74	2.0704E00
761.05	2.0671E00
761.36	2.0926E00
761.67	2.1190E00
761.99	2.1260E00
762.30	2.1076E00
762.61	2.1392E00
762.92	2.1580E00
763.23	2.1669E00
763.54	2.1724E00
763.85	2.2099E00
764.16	2.2130E00
764.47	2.2172E00
764.78	2.2427E00
765.10	2.2522E00
765.41	2.2682E00
765.72	2.2747E00
766.03	2.3305E00
766.34	2.3332E00
766.65	2.3499E00
766.96	2.3757E00
767.27	2.3869E00
767.58	2.3657E00
767.89	2.4066E00
768.20	2.4400E00
768.51	2.4560E00
768.82	2.4599E00
769.13	2.4794E00
769.44	2.5340E00
769.75	2.5310E00
770.06	2.5665E00
770.37	2.5321E00
770.68	2.5846E00
770.99	2.6030E00
771.30	2.6446E00
771.61	2.6849E00
771.92	2.6543E00
772.23	2.6811E00
772.54	2.7197E00
772.85	2.7265E00
773.16	2.7843E00
773.47	2.8146E00
773.78	2.7859E00
774.09	2.8663E00
774.39	2.8585E00
774.70	2.8905E00
775.01	2.9120E00
775.32	2.9109E00
775.63	2.9609E00
775.94	2.9920E00
776.25	3.0027E00
776.56	3.0386E00
776.87	3.1089E00
777.18	3.0904E00
777.48	3.1141E00
777.79	3.1514E00
778.10	3.1722E00
778.41	3.1994E00
778.72	3.2315E00
779.03	3.2377E00
779.34	3.3238E00
779.65	3.2963E00
779.95	3.3393E00
780.26	3.3775E00
780.57	3.4056E00
780.88	3.3922E00
781.19	3.4659E00
781.50	3.4694E00
781.80	3.4956E00
782.11	3.5392E00
782.42	3.6136E00
782.73	3.5370E00
783.04	3.5852E00
783.34	3.6731E00
783.65	3.7047E00
783.96	3.7305E00
784.27	3.7195E00
784.57	3.7300E00
784.88	3.8263E00
785.19	3.8328E00
785.50	3.8382E00
785.81	3.8805E00
786.11	3.8554E00
786.42	3.9941E00
786.73	4.0015E00
787.04	3.9702E00
787.34	4.0346E00
787.65	4.0244E00
787.96	4.1296E00
788.26	4.1588E00
788.57	4.2092E00
788.88	4.1251E00
789.19	4.2996E00
789.49	4.2933E00
789.80	4.3223E00
790.11	4.3606E00
790.41	4.3454E00
790.72	4.4669E00
791.03	4.4493E00
791.33	4.4909E00
791.64	4.5016E00
791.95	4.5575E00
792.25	4.6496E00
792.56	4.6776E00
792.87	4.6416E00
793.17	4.7038E00
793.48	4.6852E00
793.79	4.7641E00
794.09	4.9448E00
794.40	4.7438E00
794.70	4.7834E00
795.01	4.8828E00
795.32	4.8715E00
795.62	4.9822E00
795.93	4.9993E00
796.23	5.0411E00
796.54	5.0528E00
796.85	5.0078E00
797.15	5.1506E00
797.46	5.1691E00
797.76	5.2718E00
798.07	5.2345E00
798.37	5.3460E00
798.68	5.3690E00
798.99	5.4305E00
799.29	5.4699E00
799.60	5.5007E00
799.90	5.5184E00
800.21	5.6313E00
800.51	5.6759E00
800.82	5.6446E00
801.12	5.7621E00
801.43	5.6771E00
801.73	5.7879E00
802.04	5.8415E00
802.34	5.8592E00
802.65	5.9684E00
802.95	6.0115E00
803.26	6.0935E00
803.56	5.9806E00
803.87	6.0894E00
804.17	6.1446E00
804.48	6.1159E00
804.78	6.1575E00
805.09	6.3061E00
805.39	6.2329E00
805.70	6.2949E00
806.00	6.4070E00
806.30	6.3139E00
806.61	6.4251E00
806.91	6.4484E00
807.22	6.5223E00
807.52	6.6123E00
807.83	6.5384E00
808.13	6.6932E00
808.43	6.6288E00
808.74	6.8539E00
809.04	6.8009E00
809.35	6.8322E00
809.65	6.9843E00
809.95	6.9094E00
810.26	7.0719E00
810.56	6.9240E00
810.86	7.2386E00
811.17	7.1927E00
811.47	7.3642E00
811.77	7.3367E00
812.08	7.3956E00
812.38	7.4116E00
812.69	7.3525E00
812.99	7.4169E00
813.29	7.3873E00
813.59	7.5643E00
813.90	7.6918E00
814.20	7.7400E00
814.50	7.8057E00
814.81	7.7690E00
815.11	7.9008E00
815.41	8.0189E00
815.72	8.0188E00
816.02	8.1966E00
816.32	8.0201E00
816.62	7.5683E00
816.93	7.3366E00
817.23	7.0021E00
817.53	6.9617E00
817.84	6.9311E00
818.14	6.8685E00
818.44	6.8509E00
818.74	7.2029E00
819.04	7.1208E00
819.35	7.1467E00
819.65	7.1470E00
819.95	7.1438E00
820.25	7.4075E00
820.56	7.8067E00
820.86	7.9918E00
821.16	8.2180E00
821.46	8.1306E00
821.76	8.1648E00
822.07	8.1704E00
822.37	7.9070E00
822.67	7.5343E00
822.97	7.0715E00
823.27	6.6411E00
823.57	6.5382E00
823.88	6.7335E00
824.18	6.9967E00
824.48	7.0536E00
824.78	7.2860E00
825.08	7.6303E00
825.38	7.8709E00
825.69	7.7024E00
825.99	7.6796E00
826.29	7.8940E00
826.59	7.9895E00
826.89	7.9611E00
827.19	8.1153E00
827.49	7.7195E00
827.79	7.3862E00
828.09	7.2799E00
828.39	7.2271E00
828.70	7.1308E00
829.00	7.2366E00
829.30	7.0206E00
829.60	6.7864E00
829.90	6.9933E00
830.20	6.9606E00
830.50	6.9746E00
830.80	7.1267E00
831.10	6.9494E00
831.40	6.9264E00
831.70	6.8876E00
832.00	6.8500E00
832.30	6.7621E00
832.60	6.7701E00
832.90	6.7460E00
833.20	6.6238E00
833.50	6.6285E00
833.80	6.7528E00
834.10	6.6545E00
834.40	6.9196E00
834.70	6.8590E00
835.00	6.9328E00
835.30	7.0165E00
835.60	6.8477E00
835.90	6.9696E00
836.20	7.0556E00
836.50	6.9002E00
836.80	7.1621E00
837.10	7.6801E00
837.40	7.1176E00
837.70	7.2425E00
838.00	7.1686E00
838.30	7.2489E00
838.60	7.3845E00
838.90	7.1742E00
839.19	7.4519E00
839.49	7.3661E00
839.79	7.2443E00
840.09	7.2071E00
840.39	7.4420E00
840.69	7.4091E00
840.99	7.5031E00
841.29	7.5568E00
841.59	7.2599E00
841.88	7.2984E00
842.18	7.5791E00
842.48	7.4091E00
842.78	7.3376E00
843.08	7.4601E00
843.38	7.5779E00
843.68	7.6346E00
843.97	7.6836E00
844.27	7.3448E00
844.57	7.2265E00
844.87	7.3649E00
845.17	7.4311E00
845.47	7.5194E00
845.76	7.6127E00
846.06	7.5996E00
846.36	8.0608E00
846.66	7.5938E00
846.96	7.6023E00
847.25	7.4571E00
847.55	7.5232E00
847.85	7.5055E00
848.15	7.5134E00
848.44	7.4928E00
848.74	7.6664E00
849.04	7.5278E00
849.34	7.6999E00
849.63	7.3939E00
849.93	7.2963E00
850.23	7.1672E00
850.53	7.3620E00
850.82	7.2934E00
851.12	7.2060E00
851.42	7.2959E00
851.71	7.4051E00
852.01	7.3379E00
852.31	7.2887E00
852.61	7.2999E00
852.90	7.3040E00
853.20	7.5848E00
853.50	7.9694E00
853.79	7.3958E00
854.09	7.1567E00
854.39	7.2046E00
854.68	6.9564E00
854.98	6.7606E00
855.28	6.9816E00
855.57	7.0676E00
855.87	7.0837E00
856.17	7.1481E00
856.46	7.0481E00
856.76	7.0381E00
857.05	7.1415E00
857.35	7.2742E00
857.65	7.7569E00
857.94	7.6096E00
858.24	7.6968E00
858.53	7.4461E00
858.83	8.0549E00
859.13	7.4869E00
859.42	7.5510E00
859.72	7.7670E00
860.01	7.4240E00
860.31	7.5743E00
860.60	7.6583E00
860.90	7.6645E00
861.20	7.6121E00
861.49	7.7275E00
861.79	7.7198E00
862.08	9.0155E00
862.38	8.1125E00
862.67	7.6182E00
862.97	7.7126E00
863.26	7.5713E00
863.56	7.8169E00
863.85	8.4534E00
864.15	7.6062E00
864.44	7.7960E00
864.74	7.8449E00
865.03	8.1273E00
865.33	8.0128E00
865.62	7.8920E00
865.92	7.6629E00
866.21	7.7132E00
866.51	7.4134E00
866.80	7.9188E00
867.10	8.0360E00
867.39	7.4824E00
867.69	7.6970E00
867.98	7.2398E00
868.27	7.2465E00
868.57	7.4656E00
868.86	7.6389E00
869.16	7.3119E00
869.45	7.5741E00
869.75	7.4395E00
870.04	7.8234E00
870.33	7.8332E00
870.63	7.6008E00
870.92	7.5406E00
871.22	9.4065E00
871.51	8.0397E00
871.80	7.9415E00
872.10	7.9415E00
>>>>>End Processed Spectral Data<<<<<
