SpectraSuite Data File
++++++++++++++++++++++++++++++++++++
Date: Thu May 14 08:29:06 PDT 2015
User: schluterlab
Dark Spectrum Present: Yes
Reference Spectrum Present: No
Number of Sampled Component Spectra: 1
Spectrometers: USB2E3373
Integration Time (usec): 2300000 (USB2E3373)
Spectra Averaged: 3 (USB2E3373)
Boxcar Smoothing: 0 (USB2E3373)
Correct for Electrical Dark: No (USB2E3373)
Strobe/Lamp Enabled: No (USB2E3373)
Correct for Detector Non-linearity: No (USB2E3373)
Correct for Stray Light: No (USB2E3373)
Number of Pixels in Processed Spectrum: 2048
>>>>>Begin Processed Spectral Data<<<<<
178.53	0.0000E00
178.91	0.0000E00
179.29	0.0000E00
179.67	0.0000E00
180.04	0.0000E00
180.42	0.0000E00
180.80	0.0000E00
181.18	0.0000E00
181.56	0.0000E00
181.94	0.0000E00
182.31	0.0000E00
182.69	0.0000E00
183.07	0.0000E00
183.45	0.0000E00
183.83	0.0000E00
184.20	0.0000E00
184.58	0.0000E00
184.96	0.0000E00
185.34	0.0000E00
185.72	0.0000E00
186.09	0.0000E00
186.47	0.0000E00
186.85	0.0000E00
187.23	0.0000E00
187.61	0.0000E00
187.98	0.0000E00
188.36	0.0000E00
188.74	0.0000E00
189.12	0.0000E00
189.49	0.0000E00
189.87	0.0000E00
190.25	0.0000E00
190.63	0.0000E00
191.00	0.0000E00
191.38	0.0000E00
191.76	0.0000E00
192.14	0.0000E00
192.51	0.0000E00
192.89	0.0000E00
193.27	0.0000E00
193.65	0.0000E00
194.02	0.0000E00
194.40	0.0000E00
194.78	0.0000E00
195.15	0.0000E00
195.53	0.0000E00
195.91	0.0000E00
196.29	0.0000E00
196.66	0.0000E00
197.04	0.0000E00
197.42	0.0000E00
197.79	0.0000E00
198.17	0.0000E00
198.55	0.0000E00
198.92	0.0000E00
199.30	0.0000E00
199.68	0.0000E00
200.05	0.0000E00
200.43	0.0000E00
200.81	0.0000E00
201.18	0.0000E00
201.56	0.0000E00
201.94	0.0000E00
202.31	0.0000E00
202.69	0.0000E00
203.07	0.0000E00
203.44	0.0000E00
203.82	0.0000E00
204.19	0.0000E00
204.57	0.0000E00
204.95	0.0000E00
205.32	0.0000E00
205.70	0.0000E00
206.08	-0.0000E00
206.45	0.0000E00
206.83	0.0000E00
207.20	0.0000E00
207.58	0.0000E00
207.96	0.0000E00
208.33	0.0000E00
208.71	0.0000E00
209.08	0.0000E00
209.46	0.0000E00
209.84	-0.0000E00
210.21	0.0000E00
210.59	0.0000E00
210.96	0.0000E00
211.34	0.0000E00
211.71	0.0000E00
212.09	0.0000E00
212.46	0.0000E00
212.84	0.0000E00
213.22	0.0000E00
213.59	0.0000E00
213.97	0.0000E00
214.34	0.0000E00
214.72	0.0000E00
215.09	0.0000E00
215.47	0.0000E00
215.84	0.0000E00
216.22	0.0000E00
216.59	0.0000E00
216.97	0.0000E00
217.34	0.0000E00
217.72	0.0000E00
218.09	0.0000E00
218.47	0.0000E00
218.84	0.0000E00
219.22	0.0000E00
219.59	0.0000E00
219.97	0.0000E00
220.34	0.0000E00
220.72	0.0000E00
221.09	0.0000E00
221.47	0.0000E00
221.84	0.0000E00
222.22	0.0000E00
222.59	0.0000E00
222.97	0.0000E00
223.34	0.0000E00
223.72	0.0000E00
224.09	0.0000E00
224.46	0.0000E00
224.84	0.0000E00
225.21	0.0000E00
225.59	0.0000E00
225.96	0.0000E00
226.34	0.0000E00
226.71	0.0000E00
227.08	0.0000E00
227.46	0.0000E00
227.83	0.0000E00
228.21	0.0000E00
228.58	0.0000E00
228.95	0.0000E00
229.33	0.0000E00
229.70	0.0000E00
230.08	0.0000E00
230.45	0.0000E00
230.82	0.0000E00
231.20	0.0000E00
231.57	0.0000E00
231.95	0.0000E00
232.32	0.0000E00
232.69	0.0000E00
233.07	0.0000E00
233.44	0.0000E00
233.81	0.0000E00
234.19	0.0000E00
234.56	0.0000E00
234.93	0.0000E00
235.31	0.0000E00
235.68	0.0000E00
236.05	0.0000E00
236.43	0.0000E00
236.80	0.0000E00
237.17	0.0000E00
237.55	0.0000E00
237.92	0.0000E00
238.29	0.0000E00
238.67	0.0000E00
239.04	0.0000E00
239.41	0.0000E00
239.79	0.0000E00
240.16	0.0000E00
240.53	0.0000E00
240.91	0.0000E00
241.28	0.0000E00
241.65	0.0000E00
242.02	0.0000E00
242.40	0.0000E00
242.77	0.0000E00
243.14	0.0000E00
243.51	0.0000E00
243.89	0.0000E00
244.26	0.0000E00
244.63	0.0000E00
245.00	0.0000E00
245.38	0.0000E00
245.75	0.0000E00
246.12	0.0000E00
246.49	0.0000E00
246.87	0.0000E00
247.24	0.0000E00
247.61	0.0000E00
247.98	0.0000E00
248.36	0.0000E00
248.73	0.0000E00
249.10	0.0000E00
249.47	0.0000E00
249.84	0.0000E00
250.22	0.0000E00
250.59	0.0000E00
250.96	0.0000E00
251.33	0.0000E00
251.70	0.0000E00
252.08	0.0000E00
252.45	0.0000E00
252.82	0.0000E00
253.19	0.0000E00
253.56	0.0000E00
253.94	0.0000E00
254.31	0.0000E00
254.68	0.0000E00
255.05	0.0000E00
255.42	0.0000E00
255.79	0.0000E00
256.16	0.0000E00
256.54	0.0000E00
256.91	0.0000E00
257.28	0.0000E00
257.65	0.0000E00
258.02	0.0000E00
258.39	0.0000E00
258.76	0.0000E00
259.14	0.0000E00
259.51	0.0000E00
259.88	0.0000E00
260.25	0.0000E00
260.62	0.0000E00
260.99	0.0000E00
261.36	0.0000E00
261.73	0.0000E00
262.10	0.0000E00
262.47	0.0000E00
262.85	0.0000E00
263.22	0.0000E00
263.59	0.0000E00
263.96	0.0000E00
264.33	0.0000E00
264.70	0.0000E00
265.07	0.0000E00
265.44	0.0000E00
265.81	0.0000E00
266.18	0.0000E00
266.55	0.0000E00
266.92	0.0000E00
267.29	0.0000E00
267.66	-0.0000E00
268.03	0.0000E00
268.40	0.0000E00
268.77	0.0000E00
269.14	0.0000E00
269.51	0.0000E00
269.88	0.0000E00
270.25	0.0000E00
270.62	0.0000E00
270.99	0.0000E00
271.36	0.0000E00
271.73	0.0000E00
272.10	0.0000E00
272.47	0.0000E00
272.84	0.0000E00
273.21	0.0000E00
273.58	0.0000E00
273.95	0.0000E00
274.32	0.0000E00
274.69	0.0000E00
275.06	0.0000E00
275.43	0.0000E00
275.80	0.0000E00
276.17	0.0000E00
276.54	0.0000E00
276.91	0.0000E00
277.28	0.0000E00
277.65	0.0000E00
278.02	0.0000E00
278.39	0.0000E00
278.76	0.0000E00
279.13	0.0000E00
279.50	0.0000E00
279.87	0.0000E00
280.23	0.0000E00
280.60	0.0000E00
280.97	0.0000E00
281.34	0.0000E00
281.71	0.0000E00
282.08	0.0000E00
282.45	0.0000E00
282.82	0.0000E00
283.19	0.0000E00
283.56	0.0000E00
283.92	0.0000E00
284.29	0.0000E00
284.66	0.0000E00
285.03	0.0000E00
285.40	0.0000E00
285.77	0.0000E00
286.14	0.0000E00
286.51	0.0000E00
286.87	0.0000E00
287.24	0.0000E00
287.61	0.0000E00
287.98	0.0000E00
288.35	0.0000E00
288.72	0.0000E00
289.08	0.0000E00
289.45	0.0000E00
289.82	0.0000E00
290.19	0.0000E00
290.56	0.0000E00
290.93	0.0000E00
291.29	0.0000E00
291.66	0.0000E00
292.03	0.0000E00
292.40	0.0000E00
292.77	0.0000E00
293.13	0.0000E00
293.50	0.0000E00
293.87	0.0000E00
294.24	0.0000E00
294.60	0.0000E00
294.97	0.0000E00
295.34	0.0000E00
295.71	0.0000E00
296.08	0.0000E00
296.44	0.0000E00
296.81	0.0000E00
297.18	0.0000E00
297.55	0.0000E00
297.91	0.0000E00
298.28	0.0000E00
298.65	0.0000E00
299.02	0.0000E00
299.38	0.0000E00
299.75	0.0000E00
300.12	2.1502E-01
300.48	2.6644E-01
300.85	2.0930E-01
301.22	4.0073E-01
301.59	2.2666E-01
301.95	2.4876E-01
302.32	1.9528E-01
302.69	2.3216E-01
303.05	2.1770E-01
303.42	3.4492E-01
303.79	3.2478E-01
304.15	2.1209E-01
304.52	2.6688E-01
304.89	3.0019E-01
305.25	1.7252E-01
305.62	2.2140E-01
305.99	2.5420E-01
306.35	2.0560E-01
306.72	2.5658E-01
307.09	3.3055E-01
307.45	3.0326E-01
307.82	3.2305E-01
308.19	1.1687E00
308.55	2.7952E-01
308.92	2.4236E-01
309.29	2.2651E-01
309.65	2.8755E-01
310.02	3.5400E-01
310.38	2.6675E-01
310.75	2.1352E-01
311.12	3.2356E-01
311.48	2.6166E-01
311.85	3.7215E-01
312.22	2.6601E-01
312.58	4.6950E-01
312.95	2.0896E-01
313.31	2.5240E-01
313.68	3.4542E-01
314.05	3.0350E-01
314.41	3.5868E-01
314.78	2.9858E-01
315.14	9.9377E-01
315.51	3.4108E-01
315.87	2.4515E-01
316.24	5.9359E-01
316.61	3.5757E-01
316.97	3.5635E-01
317.34	3.7979E-01
317.70	2.8847E-01
318.07	3.4312E-01
318.43	3.4562E-01
318.80	5.4304E-01
319.16	3.6664E-01
319.53	9.7308E00
319.89	5.1913E-01
320.26	4.1012E-01
320.62	5.4536E-01
320.99	3.9806E-01
321.35	4.3655E-01
321.72	6.0836E-01
322.08	4.0534E-01
322.45	8.3339E-01
322.81	5.3713E-01
323.18	3.3752E-01
323.54	3.4430E-01
323.91	7.4769E-01
324.27	5.3462E-01
324.64	1.6911E00
325.00	4.1352E-01
325.37	1.5771E00
325.73	4.5328E-01
326.10	1.8143E00
326.46	4.9837E-01
326.83	4.9363E-01
327.19	5.3320E-01
327.56	5.3290E-01
327.92	7.8638E-01
328.29	1.0010E00
328.65	8.7951E-01
329.01	1.2287E00
329.38	5.4722E-01
329.74	5.8744E-01
330.11	7.7871E-01
330.47	9.0852E-01
330.84	6.6759E-01
331.20	6.4619E-01
331.56	7.6636E-01
331.93	6.3878E-01
332.29	7.9477E-01
332.66	8.1340E-01
333.02	5.0676E-01
333.38	5.9902E-01
333.75	6.3358E-01
334.11	7.4960E-01
334.48	9.4728E-01
334.84	8.0047E-01
335.20	6.6156E-01
335.57	7.6957E-01
335.93	1.0573E00
336.29	8.7957E-01
336.66	7.5454E-01
337.02	8.4061E-01
337.38	7.2339E-01
337.75	6.1870E-01
338.11	4.8994E-01
338.47	8.8088E-01
338.84	1.1768E00
339.20	2.1715E00
339.56	8.4534E-01
339.93	9.4321E-01
340.29	7.1983E-01
340.65	8.3805E-01
341.02	8.7514E-01
341.38	8.2049E-01
341.74	7.5231E-01
342.11	7.8375E-01
342.47	1.0883E00
342.83	1.2886E00
343.20	7.6460E-01
343.56	1.3036E00
343.92	9.8610E-01
344.28	9.7633E-01
344.65	9.2923E-01
345.01	1.0091E00
345.37	8.7840E-01
345.73	9.4471E-01
346.10	1.2531E00
346.46	1.0414E00
346.82	7.9334E-01
347.19	1.8153E00
347.55	9.5709E-01
347.91	1.8871E00
348.27	1.1983E00
348.63	1.0002E00
349.00	1.0361E00
349.36	9.3767E-01
349.72	1.1232E00
350.08	1.4670E00
350.45	1.5915E00
350.81	1.5743E00
351.17	1.1295E00
351.53	1.5513E00
351.89	1.4279E00
352.26	1.3182E00
352.62	1.4075E00
352.98	9.3765E-01
353.34	1.6653E00
353.70	1.3493E00
354.07	1.1246E00
354.43	1.4393E00
354.79	1.1936E00
355.15	1.2394E00
355.51	1.4306E00
355.87	9.2729E-01
356.24	1.3484E00
356.60	1.4328E00
356.96	1.2370E00
357.32	1.3863E00
357.68	9.9601E-01
358.04	1.1337E00
358.40	1.1371E00
358.77	9.4969E-01
359.13	1.3277E00
359.49	1.4417E00
359.85	1.4664E00
360.21	1.4132E00
360.57	1.3161E00
360.93	1.2351E00
361.29	1.4903E00
361.66	2.2171E00
362.02	1.4377E00
362.38	1.9561E00
362.74	1.3157E00
363.10	1.5480E00
363.46	1.3427E00
363.82	1.3984E00
364.18	1.5321E00
364.54	1.4231E00
364.90	1.1149E00
365.26	1.5029E00
365.62	1.3837E00
365.98	1.9256E00
366.35	1.7011E00
366.71	1.4333E00
367.07	1.4510E00
367.43	1.4248E00
367.79	1.3634E00
368.15	1.1408E00
368.51	1.4130E00
368.87	1.2361E00
369.23	1.3493E00
369.59	1.5715E00
369.95	1.5635E00
370.31	1.2180E00
370.67	1.3228E00
371.03	1.5234E00
371.39	1.4191E00
371.75	1.2257E00
372.11	1.4655E00
372.47	1.2092E00
372.83	1.4738E00
373.19	1.3167E00
373.55	1.4643E00
373.91	1.4588E00
374.27	1.6139E00
374.63	1.3671E00
374.99	1.3478E00
375.35	1.4237E00
375.71	1.2457E00
376.07	1.3842E00
376.42	1.2676E00
376.78	1.3936E00
377.14	1.2905E00
377.50	1.1616E00
377.86	1.3575E00
378.22	1.2037E00
378.58	1.3118E00
378.94	1.0590E00
379.30	1.1323E00
379.66	1.2608E00
380.02	1.1641E00
380.38	1.1841E00
380.74	1.3074E00
381.09	1.0930E00
381.45	1.1577E00
381.81	9.9745E-01
382.17	1.3091E00
382.53	1.1626E00
382.89	1.1291E00
383.25	1.1961E00
383.61	1.1426E00
383.97	1.1444E00
384.32	1.0897E00
384.68	1.2726E00
385.04	1.0787E00
385.40	1.0752E00
385.76	1.2191E00
386.12	1.0669E00
386.48	1.1284E00
386.83	1.2084E00
387.19	1.0628E00
387.55	1.1306E00
387.91	1.0292E00
388.27	1.1224E00
388.62	1.2123E00
388.98	1.0208E00
389.34	1.2018E00
389.70	1.0276E00
390.06	9.9615E-01
390.42	1.2082E00
390.77	1.0870E00
391.13	1.0524E00
391.49	1.1779E00
391.85	1.2703E00
392.20	1.2148E00
392.56	1.1431E00
392.92	1.0818E00
393.28	1.0722E00
393.64	1.0815E00
393.99	1.1288E00
394.35	1.0821E00
394.71	1.0921E00
395.07	1.0075E00
395.42	1.1050E00
395.78	1.1519E00
396.14	1.0933E00
396.50	1.0531E00
396.85	1.1682E00
397.21	1.0197E00
397.57	1.1141E00
397.92	1.0908E00
398.28	1.0608E00
398.64	1.1198E00
399.00	1.0197E00
399.35	9.9221E-01
399.71	1.0228E00
400.07	1.0767E00
400.42	1.0168E00
400.78	1.0316E00
401.14	9.6639E-01
401.49	1.0262E00
401.85	9.5894E-01
402.21	1.0396E00
402.57	1.0402E00
402.92	1.0085E00
403.28	9.7727E-01
403.63	9.7336E-01
403.99	9.6741E-01
404.35	9.7595E-01
404.70	1.0241E00
405.06	9.2801E-01
405.42	1.0302E00
405.77	9.5155E-01
406.13	9.3834E-01
406.49	8.9295E-01
406.84	9.6594E-01
407.20	9.2407E-01
407.55	1.0129E00
407.91	1.0098E00
408.27	9.2017E-01
408.62	9.0346E-01
408.98	9.1171E-01
409.34	9.0176E-01
409.69	9.5622E-01
410.05	9.2314E-01
410.40	9.1389E-01
410.76	8.7518E-01
411.11	8.3374E-01
411.47	9.1488E-01
411.83	8.5031E-01
412.18	8.5544E-01
412.54	9.1665E-01
412.89	9.1622E-01
413.25	8.4796E-01
413.60	8.7794E-01
413.96	9.4046E-01
414.31	9.0240E-01
414.67	9.5666E-01
415.03	9.5828E-01
415.38	9.1769E-01
415.74	9.4990E-01
416.09	8.7666E-01
416.45	9.4191E-01
416.80	8.8062E-01
417.16	9.4953E-01
417.51	8.8802E-01
417.87	8.7516E-01
418.22	8.5665E-01
418.58	9.2323E-01
418.93	8.2902E-01
419.29	9.0288E-01
419.64	8.7179E-01
420.00	8.3434E-01
420.35	8.0760E-01
420.71	8.5735E-01
421.06	8.4715E-01
421.42	8.5521E-01
421.77	8.5963E-01
422.12	8.5785E-01
422.48	8.3091E-01
422.83	8.7856E-01
423.19	8.4233E-01
423.54	8.4076E-01
423.90	8.4231E-01
424.25	8.0352E-01
424.61	8.4730E-01
424.96	8.3100E-01
425.31	8.0036E-01
425.67	8.0071E-01
426.02	8.1312E-01
426.38	8.0666E-01
426.73	7.9097E-01
427.09	8.0965E-01
427.44	7.4733E-01
427.79	8.0243E-01
428.15	7.8562E-01
428.50	7.9957E-01
428.85	8.2489E-01
429.21	7.6349E-01
429.56	7.3814E-01
429.92	7.5934E-01
430.27	7.4840E-01
430.62	7.8331E-01
430.98	8.0066E-01
431.33	7.6914E-01
431.68	7.6838E-01
432.04	7.3762E-01
432.39	7.5472E-01
432.74	8.0337E-01
433.10	7.2778E-01
433.45	7.6929E-01
433.80	7.7385E-01
434.16	7.7674E-01
434.51	7.4464E-01
434.86	7.8113E-01
435.22	7.3633E-01
435.57	8.1069E-01
435.92	7.5635E-01
436.28	7.8314E-01
436.63	7.3107E-01
436.98	7.3783E-01
437.34	7.5576E-01
437.69	7.2915E-01
438.04	7.0619E-01
438.39	7.6090E-01
438.75	7.3220E-01
439.10	7.0235E-01
439.45	7.4444E-01
439.81	7.2176E-01
440.16	7.0398E-01
440.51	7.2397E-01
440.86	7.2234E-01
441.22	7.1563E-01
441.57	7.2902E-01
441.92	7.0860E-01
442.27	7.4398E-01
442.63	7.1500E-01
442.98	7.6032E-01
443.33	7.4198E-01
443.68	7.1608E-01
444.03	6.6606E-01
444.39	6.6731E-01
444.74	7.1957E-01
445.09	7.3217E-01
445.44	7.2424E-01
445.79	6.5554E-01
446.15	7.2148E-01
446.50	7.0630E-01
446.85	6.7294E-01
447.20	6.6386E-01
447.55	6.8347E-01
447.91	6.9501E-01
448.26	6.9151E-01
448.61	7.0463E-01
448.96	6.8294E-01
449.31	6.8032E-01
449.66	7.1566E-01
450.02	6.7640E-01
450.37	7.0683E-01
450.72	6.7602E-01
451.07	7.1422E-01
451.42	7.1495E-01
451.77	6.9184E-01
452.12	6.9044E-01
452.47	7.3067E-01
452.83	6.4854E-01
453.18	6.9761E-01
453.53	6.8118E-01
453.88	6.4361E-01
454.23	6.5065E-01
454.58	6.4737E-01
454.93	6.7927E-01
455.28	6.7080E-01
455.63	6.6843E-01
455.98	6.5383E-01
456.34	6.8125E-01
456.69	6.7236E-01
457.04	6.5502E-01
457.39	6.2972E-01
457.74	6.1985E-01
458.09	6.4417E-01
458.44	6.2609E-01
458.79	5.9914E-01
459.14	6.2661E-01
459.49	6.4369E-01
459.84	6.2017E-01
460.19	6.5546E-01
460.54	6.4597E-01
460.89	5.9775E-01
461.24	6.5771E-01
461.59	6.3056E-01
461.94	6.4994E-01
462.29	5.9831E-01
462.64	6.4698E-01
462.99	6.5329E-01
463.34	6.5782E-01
463.69	6.2484E-01
464.04	5.8793E-01
464.39	5.9841E-01
464.74	6.1529E-01
465.09	6.3612E-01
465.44	5.9893E-01
465.79	6.2392E-01
466.14	6.2645E-01
466.49	6.0557E-01
466.84	6.1246E-01
467.19	6.1649E-01
467.54	6.3737E-01
467.89	6.0068E-01
468.24	5.7498E-01
468.59	5.8180E-01
468.94	5.7480E-01
469.29	5.7833E-01
469.64	5.8986E-01
469.99	5.7771E-01
470.34	5.5425E-01
470.68	5.9274E-01
471.03	5.7340E-01
471.38	5.5721E-01
471.73	5.5840E-01
472.08	5.3717E-01
472.43	5.2143E-01
472.78	5.4177E-01
473.13	5.4410E-01
473.48	5.4251E-01
473.83	5.2198E-01
474.17	5.3084E-01
474.52	5.2820E-01
474.87	5.0391E-01
475.22	5.1260E-01
475.57	4.8683E-01
475.92	4.6985E-01
476.27	5.0467E-01
476.61	4.7854E-01
476.96	4.6893E-01
477.31	4.5114E-01
477.66	4.5888E-01
478.01	4.5510E-01
478.36	4.5572E-01
478.70	4.4053E-01
479.05	4.5109E-01
479.40	4.2837E-01
479.75	4.3170E-01
480.10	4.3207E-01
480.45	4.1750E-01
480.79	4.2276E-01
481.14	4.3154E-01
481.49	4.1471E-01
481.84	4.0478E-01
482.19	4.0173E-01
482.53	4.0541E-01
482.88	3.9857E-01
483.23	3.9066E-01
483.58	3.9008E-01
483.92	3.9753E-01
484.27	3.8099E-01
484.62	3.8256E-01
484.97	3.7176E-01
485.31	3.7185E-01
485.66	3.7719E-01
486.01	3.7951E-01
486.36	3.6316E-01
486.70	3.6631E-01
487.05	3.6538E-01
487.40	3.6322E-01
487.75	3.5457E-01
488.09	3.5853E-01
488.44	3.6104E-01
488.79	3.6076E-01
489.13	3.5509E-01
489.48	3.5773E-01
489.83	3.5651E-01
490.17	3.4579E-01
490.52	3.4618E-01
490.87	3.4715E-01
491.22	3.4769E-01
491.56	3.4784E-01
491.91	3.5295E-01
492.26	3.4726E-01
492.60	3.4757E-01
492.95	3.5031E-01
493.30	3.4922E-01
493.64	3.4391E-01
493.99	3.4705E-01
494.34	3.4715E-01
494.68	3.3997E-01
495.03	3.5109E-01
495.37	3.4367E-01
495.72	3.5205E-01
496.07	3.4317E-01
496.41	3.4253E-01
496.76	3.4207E-01
497.11	3.4670E-01
497.45	3.4454E-01
497.80	3.4556E-01
498.14	3.4309E-01
498.49	3.4259E-01
498.84	3.4449E-01
499.18	3.3903E-01
499.53	3.4214E-01
499.87	3.4338E-01
500.22	3.4616E-01
500.56	3.4541E-01
500.91	3.4334E-01
501.26	3.4397E-01
501.60	3.4125E-01
501.95	3.4218E-01
502.29	3.4176E-01
502.64	3.3880E-01
502.98	3.4470E-01
503.33	3.3801E-01
503.67	3.4139E-01
504.02	3.4050E-01
504.36	3.3774E-01
504.71	3.4333E-01
505.06	3.4195E-01
505.40	3.3759E-01
505.75	3.3819E-01
506.09	3.4004E-01
506.44	3.3768E-01
506.78	3.3662E-01
507.13	3.3734E-01
507.47	3.3511E-01
507.82	3.3436E-01
508.16	3.3631E-01
508.51	3.3347E-01
508.85	3.3072E-01
509.19	3.3056E-01
509.54	3.3475E-01
509.88	3.3679E-01
510.23	3.3143E-01
510.57	3.3191E-01
510.92	3.3208E-01
511.26	3.2922E-01
511.61	3.3044E-01
511.95	3.2893E-01
512.30	3.2728E-01
512.64	3.2797E-01
512.98	3.2736E-01
513.33	3.2628E-01
513.67	3.3045E-01
514.02	3.2838E-01
514.36	3.2504E-01
514.70	3.2834E-01
515.05	3.2205E-01
515.39	3.2502E-01
515.74	3.2293E-01
516.08	3.2538E-01
516.42	3.2176E-01
516.77	3.2256E-01
517.11	3.2269E-01
517.46	3.2181E-01
517.80	3.2315E-01
518.14	3.2265E-01
518.49	3.1941E-01
518.83	3.2335E-01
519.17	3.2611E-01
519.52	3.2115E-01
519.86	3.2017E-01
520.20	3.1884E-01
520.55	3.1811E-01
520.89	3.1832E-01
521.23	3.1930E-01
521.58	3.2197E-01
521.92	3.2123E-01
522.26	3.2473E-01
522.61	3.1788E-01
522.95	3.2074E-01
523.29	3.1823E-01
523.64	3.2110E-01
523.98	3.2092E-01
524.32	3.2072E-01
524.66	3.2000E-01
525.01	3.2108E-01
525.35	3.2189E-01
525.69	3.2468E-01
526.04	3.2493E-01
526.38	3.2022E-01
526.72	3.2634E-01
527.06	3.2483E-01
527.41	3.2689E-01
527.75	3.2665E-01
528.09	3.2418E-01
528.43	3.2787E-01
528.78	3.2631E-01
529.12	3.3122E-01
529.46	3.3058E-01
529.80	3.3218E-01
530.15	3.3236E-01
530.49	3.3467E-01
530.83	3.3393E-01
531.17	3.3445E-01
531.51	3.3703E-01
531.86	3.3599E-01
532.20	3.4222E-01
532.54	3.3730E-01
532.88	3.4065E-01
533.22	3.4352E-01
533.57	3.4510E-01
533.91	3.4280E-01
534.25	3.4481E-01
534.59	3.4564E-01
534.93	3.4226E-01
535.27	3.4626E-01
535.62	3.5019E-01
535.96	3.5023E-01
536.30	3.4927E-01
536.64	3.5351E-01
536.98	3.5532E-01
537.32	3.5321E-01
537.66	3.5283E-01
538.01	3.5998E-01
538.35	3.5960E-01
538.69	3.5593E-01
539.03	3.6240E-01
539.37	3.5806E-01
539.71	3.6340E-01
540.05	3.5934E-01
540.39	3.6314E-01
540.73	3.6555E-01
541.07	3.6486E-01
541.42	3.6608E-01
541.76	3.6623E-01
542.10	3.6747E-01
542.44	3.7024E-01
542.78	3.7007E-01
543.12	3.6695E-01
543.46	3.7503E-01
543.80	3.7018E-01
544.14	3.6940E-01
544.48	3.6819E-01
544.82	3.7312E-01
545.16	3.7096E-01
545.50	3.7287E-01
545.84	3.7878E-01
546.18	3.7185E-01
546.52	3.7708E-01
546.86	3.7667E-01
547.20	3.7802E-01
547.54	3.8404E-01
547.88	3.7810E-01
548.22	3.7753E-01
548.56	3.8107E-01
548.90	3.7804E-01
549.24	3.8008E-01
549.58	3.8322E-01
549.92	3.8078E-01
550.26	3.8508E-01
550.60	3.8315E-01
550.94	3.7786E-01
551.28	3.8577E-01
551.62	3.8112E-01
551.96	3.8525E-01
552.30	3.8883E-01
552.64	3.8765E-01
552.98	3.8529E-01
553.32	3.8441E-01
553.66	3.8404E-01
554.00	3.8315E-01
554.34	3.8659E-01
554.68	3.8839E-01
555.02	3.8581E-01
555.36	3.8992E-01
555.69	3.8913E-01
556.03	3.8681E-01
556.37	3.8703E-01
556.71	3.8641E-01
557.05	3.8713E-01
557.39	3.8810E-01
557.73	3.8879E-01
558.07	3.8881E-01
558.41	3.8536E-01
558.75	3.8953E-01
559.08	3.8773E-01
559.42	3.8287E-01
559.76	3.9035E-01
560.10	3.9001E-01
560.44	3.9131E-01
560.78	3.8678E-01
561.12	3.8668E-01
561.45	3.8837E-01
561.79	3.9027E-01
562.13	3.9019E-01
562.47	3.8988E-01
562.81	3.9210E-01
563.15	3.9210E-01
563.48	3.9020E-01
563.82	3.8398E-01
564.16	3.9146E-01
564.50	3.8915E-01
564.84	3.9249E-01
565.17	3.9087E-01
565.51	3.8712E-01
565.85	3.9139E-01
566.19	3.8867E-01
566.52	3.9371E-01
566.86	3.8869E-01
567.20	3.9195E-01
567.54	3.9411E-01
567.88	3.9225E-01
568.21	3.9584E-01
568.55	3.9353E-01
568.89	3.9177E-01
569.23	3.9229E-01
569.56	3.9266E-01
569.90	3.9503E-01
570.24	3.9753E-01
570.57	3.9786E-01
570.91	3.9599E-01
571.25	3.9501E-01
571.59	3.9450E-01
571.92	3.9532E-01
572.26	3.9730E-01
572.60	3.9914E-01
572.93	3.9988E-01
573.27	4.0161E-01
573.61	4.0326E-01
573.95	3.9788E-01
574.28	4.0334E-01
574.62	4.0275E-01
574.96	4.0850E-01
575.29	4.0650E-01
575.63	4.1127E-01
575.97	4.0817E-01
576.30	4.1521E-01
576.64	4.1054E-01
576.98	4.1401E-01
577.31	4.1237E-01
577.65	4.1666E-01
577.98	4.1560E-01
578.32	4.1995E-01
578.66	4.2212E-01
578.99	4.1972E-01
579.33	4.2564E-01
579.67	4.2241E-01
580.00	4.2732E-01
580.34	4.2322E-01
580.67	4.2868E-01
581.01	4.2919E-01
581.35	4.3064E-01
581.68	4.3325E-01
582.02	4.3408E-01
582.35	4.3541E-01
582.69	4.3359E-01
583.02	4.4143E-01
583.36	4.4019E-01
583.70	4.3791E-01
584.03	4.4191E-01
584.37	4.3993E-01
584.70	4.4841E-01
585.04	4.4578E-01
585.37	4.4384E-01
585.71	4.5199E-01
586.04	4.4754E-01
586.38	4.5118E-01
586.72	4.5510E-01
587.05	4.5358E-01
587.39	4.5781E-01
587.72	4.5346E-01
588.06	4.6101E-01
588.39	4.5782E-01
588.73	4.6068E-01
589.06	4.6080E-01
589.40	4.6523E-01
589.73	4.6619E-01
590.07	4.6964E-01
590.40	4.7003E-01
590.73	4.7605E-01
591.07	4.6881E-01
591.40	4.7692E-01
591.74	4.7395E-01
592.07	4.7878E-01
592.41	4.7836E-01
592.74	4.7916E-01
593.08	4.7509E-01
593.41	4.7738E-01
593.75	4.8003E-01
594.08	4.8137E-01
594.41	4.8191E-01
594.75	4.8529E-01
595.08	4.8283E-01
595.42	4.7889E-01
595.75	4.8222E-01
596.09	4.8612E-01
596.42	4.8543E-01
596.75	4.8728E-01
597.09	4.9206E-01
597.42	4.8557E-01
597.75	4.9062E-01
598.09	4.8967E-01
598.42	4.9410E-01
598.76	4.9389E-01
599.09	4.9435E-01
599.42	4.9953E-01
599.76	4.9588E-01
600.09	4.9805E-01
600.42	4.9909E-01
600.76	4.8950E-01
601.09	4.9563E-01
601.42	5.0434E-01
601.76	4.9650E-01
602.09	4.9814E-01
602.42	5.0052E-01
602.76	5.0069E-01
603.09	4.9943E-01
603.42	5.0128E-01
603.76	4.9697E-01
604.09	4.9868E-01
604.42	5.0203E-01
604.76	4.9877E-01
605.09	5.0546E-01
605.42	5.0298E-01
605.75	5.0445E-01
606.09	5.0665E-01
606.42	5.0386E-01
606.75	5.0542E-01
607.09	5.0906E-01
607.42	5.0363E-01
607.75	5.0865E-01
608.08	5.1069E-01
608.42	5.1023E-01
608.75	5.0787E-01
609.08	5.1181E-01
609.41	5.1264E-01
609.75	5.1344E-01
610.08	5.0761E-01
610.41	5.1230E-01
610.74	5.1334E-01
611.07	5.1518E-01
611.41	5.0814E-01
611.74	5.1382E-01
612.07	5.1257E-01
612.40	5.1068E-01
612.73	5.1149E-01
613.07	5.1713E-01
613.40	5.1223E-01
613.73	5.0960E-01
614.06	5.1446E-01
614.39	5.1520E-01
614.72	5.1770E-01
615.06	5.1613E-01
615.39	5.2487E-01
615.72	5.1603E-01
616.05	5.2649E-01
616.38	5.2327E-01
616.71	5.2525E-01
617.05	5.1591E-01
617.38	5.2113E-01
617.71	5.1686E-01
618.04	5.2578E-01
618.37	5.1626E-01
618.70	5.2003E-01
619.03	5.2139E-01
619.36	5.1458E-01
619.69	5.2227E-01
620.03	5.1789E-01
620.36	5.1785E-01
620.69	5.1775E-01
621.02	5.2169E-01
621.35	5.1600E-01
621.68	5.1033E-01
622.01	5.1558E-01
622.34	5.1673E-01
622.67	5.1649E-01
623.00	5.2026E-01
623.33	5.1672E-01
623.66	5.1826E-01
623.99	5.2203E-01
624.32	5.1493E-01
624.65	5.1657E-01
624.99	5.1731E-01
625.32	5.1981E-01
625.65	5.1925E-01
625.98	5.1072E-01
626.31	5.1707E-01
626.64	5.1916E-01
626.97	5.1555E-01
627.30	5.1370E-01
627.63	5.1775E-01
627.96	5.1356E-01
628.29	5.1046E-01
628.62	5.1752E-01
628.95	5.1872E-01
629.28	5.1001E-01
629.61	5.2228E-01
629.94	5.1850E-01
630.26	5.2122E-01
630.59	5.2171E-01
630.92	5.1652E-01
631.25	5.1831E-01
631.58	5.2426E-01
631.91	5.2455E-01
632.24	5.2780E-01
632.57	5.2552E-01
632.90	5.2379E-01
633.23	5.2529E-01
633.56	5.2926E-01
633.89	5.2918E-01
634.22	5.3003E-01
634.55	5.3261E-01
634.88	5.3730E-01
635.20	5.3763E-01
635.53	5.4067E-01
635.86	5.4101E-01
636.19	5.4692E-01
636.52	5.4688E-01
636.85	5.4735E-01
637.18	5.5369E-01
637.51	5.5054E-01
637.83	5.5786E-01
638.16	5.5381E-01
638.49	5.6269E-01
638.82	5.6190E-01
639.15	5.6367E-01
639.48	5.6586E-01
639.81	5.7372E-01
640.13	5.6866E-01
640.46	5.7472E-01
640.79	5.7359E-01
641.12	5.8277E-01
641.45	5.7955E-01
641.77	5.8100E-01
642.10	5.9044E-01
642.43	5.8991E-01
642.76	5.9474E-01
643.09	5.8989E-01
643.41	5.9580E-01
643.74	5.9829E-01
644.07	5.9446E-01
644.40	6.0064E-01
644.73	6.0935E-01
645.05	6.0969E-01
645.38	6.1172E-01
645.71	6.1445E-01
646.04	6.1701E-01
646.36	6.1343E-01
646.69	6.2654E-01
647.02	6.1785E-01
647.35	6.2285E-01
647.67	6.3153E-01
648.00	6.2683E-01
648.33	6.3756E-01
648.66	6.3009E-01
648.98	6.4052E-01
649.31	6.3479E-01
649.64	6.3792E-01
649.96	6.4643E-01
650.29	6.4907E-01
650.62	6.4968E-01
650.94	6.5331E-01
651.27	6.5124E-01
651.60	6.5317E-01
651.92	6.6321E-01
652.25	6.6162E-01
652.58	6.6219E-01
652.90	6.6740E-01
653.23	6.6550E-01
653.56	6.6788E-01
653.88	6.7361E-01
654.21	6.7258E-01
654.54	6.7702E-01
654.86	6.8528E-01
655.19	6.7756E-01
655.52	6.8911E-01
655.84	6.8172E-01
656.17	6.8565E-01
656.49	6.9498E-01
656.82	6.8159E-01
657.15	6.9550E-01
657.47	6.9473E-01
657.80	6.9749E-01
658.13	6.9772E-01
658.45	7.0087E-01
658.78	7.0615E-01
659.10	7.0717E-01
659.43	7.0990E-01
659.75	7.0668E-01
660.08	7.0322E-01
660.41	7.1311E-01
660.73	7.1656E-01
661.06	7.1945E-01
661.38	7.1795E-01
661.71	7.1835E-01
662.03	7.1162E-01
662.36	7.2597E-01
662.68	7.2676E-01
663.01	7.1777E-01
663.33	7.2884E-01
663.66	7.2921E-01
663.98	7.3494E-01
664.31	7.2804E-01
664.63	7.4342E-01
664.96	7.3244E-01
665.28	7.4045E-01
665.61	7.3882E-01
665.93	7.3874E-01
666.26	7.4351E-01
666.58	7.4610E-01
666.91	7.4112E-01
667.23	7.4866E-01
667.56	7.4621E-01
667.88	7.4801E-01
668.21	7.5669E-01
668.53	7.4955E-01
668.86	7.5580E-01
669.18	7.5383E-01
669.50	7.6594E-01
669.83	7.6340E-01
670.15	7.6421E-01
670.48	7.6841E-01
670.80	7.6430E-01
671.13	7.6166E-01
671.45	7.6955E-01
671.77	7.7307E-01
672.10	7.6688E-01
672.42	7.8088E-01
672.75	7.7369E-01
673.07	7.8336E-01
673.39	7.7841E-01
673.72	7.8309E-01
674.04	7.8925E-01
674.37	7.8452E-01
674.69	7.8028E-01
675.01	7.9658E-01
675.34	7.9351E-01
675.66	7.9591E-01
675.98	7.8398E-01
676.31	7.9905E-01
676.63	7.9663E-01
676.95	7.9491E-01
677.28	8.0251E-01
677.60	8.0356E-01
677.92	8.0910E-01
678.25	8.1160E-01
678.57	8.1232E-01
678.89	8.0756E-01
679.22	8.1945E-01
679.54	8.1230E-01
679.86	8.2447E-01
680.18	8.1497E-01
680.51	8.1604E-01
680.83	8.3544E-01
681.15	8.2264E-01
681.48	8.3251E-01
681.80	8.2597E-01
682.12	8.2735E-01
682.44	8.3641E-01
682.77	8.4108E-01
683.09	8.4640E-01
683.41	8.4525E-01
683.73	8.5225E-01
684.06	8.4830E-01
684.38	8.4857E-01
684.70	8.5447E-01
685.02	8.5976E-01
685.34	8.6298E-01
685.67	8.5838E-01
685.99	8.7402E-01
686.31	8.6489E-01
686.63	8.7980E-01
686.96	8.8113E-01
687.28	8.8614E-01
687.60	8.7328E-01
687.92	8.8330E-01
688.24	8.8896E-01
688.56	8.9880E-01
688.89	8.9023E-01
689.21	9.0124E-01
689.53	8.9900E-01
689.85	9.0978E-01
690.17	9.0216E-01
690.49	9.2254E-01
690.82	9.1378E-01
691.14	9.1625E-01
691.46	9.1520E-01
691.78	9.2696E-01
692.10	9.2086E-01
692.42	9.3127E-01
692.74	9.3218E-01
693.06	9.3874E-01
693.39	9.4972E-01
693.71	9.6363E-01
694.03	9.5897E-01
694.35	9.5699E-01
694.67	9.6003E-01
694.99	9.7424E-01
695.31	9.7231E-01
695.63	9.7723E-01
695.95	9.7815E-01
696.27	9.8084E-01
696.59	9.8342E-01
696.91	9.9286E-01
697.23	9.9544E-01
697.56	1.0007E00
697.88	9.9837E-01
698.20	1.0064E00
698.52	1.0106E00
698.84	1.0246E00
699.16	1.0323E00
699.48	1.0194E00
699.80	1.0427E00
700.12	1.0340E00
700.44	1.0382E00
700.76	1.0457E00
701.08	1.0616E00
701.40	1.0607E00
701.72	1.0621E00
702.04	1.0704E00
702.36	1.0691E00
702.68	1.0797E00
703.00	1.0909E00
703.32	1.0859E00
703.64	1.1017E00
703.96	1.0981E00
704.28	1.1069E00
704.60	1.1137E00
704.91	1.1213E00
705.23	1.1214E00
705.55	1.1332E00
705.87	1.1342E00
706.19	1.1339E00
706.51	1.1452E00
706.83	1.1400E00
707.15	1.1692E00
707.47	1.1591E00
707.79	1.1745E00
708.11	1.1693E00
708.43	1.1778E00
708.74	1.1769E00
709.06	1.1901E00
709.38	1.2024E00
709.70	1.1994E00
710.02	1.2064E00
710.34	1.2009E00
710.66	1.2267E00
710.98	1.2235E00
711.29	1.2291E00
711.61	1.2474E00
711.93	1.2576E00
712.25	1.2457E00
712.57	1.2646E00
712.89	1.2690E00
713.20	1.2626E00
713.52	1.2816E00
713.84	1.2850E00
714.16	1.2761E00
714.48	1.2896E00
714.80	1.3093E00
715.11	1.3053E00
715.43	1.3212E00
715.75	1.3257E00
716.07	1.3297E00
716.39	1.3188E00
716.70	1.3313E00
717.02	1.3263E00
717.34	1.3550E00
717.66	1.3581E00
717.97	1.3725E00
718.29	1.3781E00
718.61	1.3855E00
718.93	1.4015E00
719.24	1.3964E00
719.56	1.4210E00
719.88	1.4202E00
720.20	1.4445E00
720.51	1.4586E00
720.83	1.4379E00
721.15	1.4700E00
721.46	1.4688E00
721.78	1.4802E00
722.10	1.5054E00
722.42	1.4983E00
722.73	1.5187E00
723.05	1.5081E00
723.37	1.5257E00
723.68	1.5452E00
724.00	1.5336E00
724.32	1.5581E00
724.63	1.5475E00
724.95	1.5609E00
725.27	1.5727E00
725.58	1.5722E00
725.90	1.5634E00
726.22	1.5886E00
726.53	1.5741E00
726.85	1.5940E00
727.16	1.6009E00
727.48	1.6140E00
727.80	1.6094E00
728.11	1.6105E00
728.43	1.6190E00
728.74	1.6205E00
729.06	1.6442E00
729.38	1.6430E00
729.69	1.6337E00
730.01	1.6509E00
730.32	1.6512E00
730.64	1.6488E00
730.96	1.6561E00
731.27	1.6863E00
731.59	1.6616E00
731.90	1.6835E00
732.22	1.6840E00
732.53	1.6866E00
732.85	1.7065E00
733.16	1.7110E00
733.48	1.7147E00
733.80	1.6905E00
734.11	1.7259E00
734.43	1.7200E00
734.74	1.7231E00
735.06	1.7559E00
735.37	1.7358E00
735.69	1.7581E00
736.00	1.7664E00
736.32	1.7688E00
736.63	1.7747E00
736.95	1.7786E00
737.26	1.7937E00
737.58	1.7845E00
737.89	1.8046E00
738.21	1.8077E00
738.52	1.8046E00
738.83	1.8229E00
739.15	1.8138E00
739.46	1.8335E00
739.78	1.8452E00
740.09	1.8452E00
740.41	1.8459E00
740.72	1.8434E00
741.04	1.8465E00
741.35	1.8465E00
741.66	1.8370E00
741.98	1.8625E00
742.29	1.8574E00
742.61	1.8652E00
742.92	1.8586E00
743.23	1.8686E00
743.55	1.8895E00
743.86	1.8844E00
744.18	1.8678E00
744.49	1.8812E00
744.80	1.8771E00
745.12	1.8781E00
745.43	1.8781E00
745.74	1.8705E00
746.06	1.8810E00
746.37	1.8644E00
746.68	1.8700E00
747.00	1.8774E00
747.31	1.8878E00
747.62	1.8596E00
747.94	1.8906E00
748.25	1.8808E00
748.56	1.8765E00
748.88	1.8766E00
749.19	1.8858E00
749.50	1.8825E00
749.82	1.8768E00
750.13	1.8821E00
750.44	1.8775E00
750.75	1.8626E00
751.07	1.8813E00
751.38	1.8870E00
751.69	1.8824E00
752.01	1.8835E00
752.32	1.8929E00
752.63	1.8756E00
752.94	1.8889E00
753.26	1.9119E00
753.57	1.8944E00
753.88	1.9206E00
754.19	1.9079E00
754.51	1.9069E00
754.82	1.9056E00
755.13	1.9381E00
755.44	1.9222E00
755.75	1.9212E00
756.07	1.9285E00
756.38	1.9472E00
756.69	1.9410E00
757.00	1.9497E00
757.31	1.9757E00
757.63	1.9970E00
757.94	1.9923E00
758.25	1.9915E00
758.56	1.9682E00
758.87	2.0035E00
759.18	2.0261E00
759.50	2.0225E00
759.81	2.0439E00
760.12	2.0459E00
760.43	2.0748E00
760.74	1.3396E00
761.05	1.0039E00
761.36	1.1352E00
761.67	1.3871E00
761.99	1.5591E00
762.30	1.6569E00
762.61	1.6046E00
762.92	1.5449E00
763.23	1.5407E00
763.54	1.5333E00
763.85	1.5912E00
764.16	1.6256E00
764.47	1.8322E00
764.78	1.8214E00
765.10	1.9859E00
765.41	2.0321E00
765.72	2.2108E00
766.03	2.2456E00
766.34	2.3127E00
766.65	2.3709E00
766.96	2.4019E00
767.27	2.4083E00
767.58	2.3777E00
767.89	2.4068E00
768.20	2.4356E00
768.51	2.4507E00
768.82	2.4537E00
769.13	2.4771E00
769.44	2.5288E00
769.75	2.5251E00
770.06	2.5612E00
770.37	2.5269E00
770.68	2.5808E00
770.99	2.6005E00
771.30	2.6398E00
771.61	2.6802E00
771.92	2.6511E00
772.23	2.6760E00
772.54	2.7160E00
772.85	2.7187E00
773.16	2.7793E00
773.47	2.8068E00
773.78	2.7816E00
774.09	2.8586E00
774.39	2.8540E00
774.70	2.8853E00
775.01	2.9087E00
775.32	2.9056E00
775.63	2.9543E00
775.94	2.9884E00
776.25	2.9976E00
776.56	3.0349E00
776.87	3.1036E00
777.18	3.0856E00
777.48	3.1079E00
777.79	3.1495E00
778.10	3.1665E00
778.41	3.1928E00
778.72	3.2279E00
779.03	3.2346E00
779.34	3.3167E00
779.65	3.2935E00
779.95	3.3333E00
780.26	3.3751E00
780.57	3.4032E00
780.88	3.3884E00
781.19	3.4644E00
781.50	3.4706E00
781.80	3.4947E00
782.11	3.5389E00
782.42	3.6179E00
782.73	3.5395E00
783.04	3.5936E00
783.34	3.6838E00
783.65	3.7193E00
783.96	3.7468E00
784.27	3.7426E00
784.57	3.7580E00
784.88	3.8610E00
785.19	3.8704E00
785.50	3.8713E00
785.81	3.8561E00
786.11	3.7398E00
786.42	3.7478E00
786.73	3.7209E00
787.04	3.6514E00
787.34	3.5609E00
787.65	3.5029E00
787.96	3.5140E00
788.26	3.5507E00
788.57	3.5592E00
788.88	3.4661E00
789.19	3.4747E00
789.49	3.4869E00
789.80	3.5217E00
790.11	3.4947E00
790.41	3.4576E00
790.72	3.5719E00
791.03	3.4843E00
791.33	3.4892E00
791.64	3.4844E00
791.95	3.5509E00
792.25	3.5804E00
792.56	3.5563E00
792.87	3.5889E00
793.17	3.5790E00
793.48	3.6206E00
793.79	3.6761E00
794.09	3.7990E00
794.40	3.7287E00
794.70	3.6936E00
795.01	3.7951E00
795.32	3.6879E00
795.62	3.7154E00
795.93	3.6461E00
796.23	3.6357E00
796.54	3.5740E00
796.85	3.6012E00
797.15	3.6705E00
797.46	3.7253E00
797.76	3.7242E00
798.07	3.7958E00
798.37	3.8448E00
798.68	3.8091E00
798.99	3.8463E00
799.29	3.8455E00
799.60	3.8152E00
799.90	3.7531E00
800.21	3.7947E00
800.51	3.7176E00
800.82	3.8200E00
801.12	3.8195E00
801.43	3.7694E00
801.73	3.7649E00
802.04	3.7856E00
802.34	3.7672E00
802.65	3.8376E00
802.95	3.7586E00
803.26	3.8474E00
803.56	3.8045E00
803.87	3.7917E00
804.17	3.7985E00
804.48	3.7928E00
804.78	3.8478E00
805.09	3.8700E00
805.39	3.9430E00
805.70	3.9607E00
806.00	3.9941E00
806.30	3.9949E00
806.61	3.9733E00
806.91	4.0125E00
807.22	4.0495E00
807.52	4.0988E00
807.83	4.0047E00
808.13	4.1164E00
808.43	4.0468E00
808.74	4.1373E00
809.04	3.9607E00
809.35	3.9287E00
809.65	4.0181E00
809.95	3.8542E00
810.26	3.8497E00
810.56	3.7965E00
810.86	3.8791E00
811.17	3.7760E00
811.47	3.8647E00
811.77	3.7665E00
812.08	3.6869E00
812.38	3.6483E00
812.69	3.5948E00
812.99	3.5525E00
813.29	3.3668E00
813.59	3.3216E00
813.90	3.3299E00
814.20	3.2745E00
814.50	3.1807E00
814.81	3.1166E00
815.11	3.0379E00
815.41	2.9388E00
815.72	2.9372E00
816.02	2.9292E00
816.32	2.7863E00
816.62	2.7485E00
816.93	2.8188E00
817.23	2.8481E00
817.53	2.8203E00
817.84	2.8474E00
818.14	2.8320E00
818.44	2.8518E00
818.74	3.0163E00
819.04	2.9168E00
819.35	2.9564E00
819.65	2.9413E00
819.95	2.9233E00
820.25	3.0398E00
820.56	3.2141E00
820.86	3.2707E00
821.16	3.3884E00
821.46	3.3281E00
821.76	3.3311E00
822.07	3.4506E00
822.37	3.2843E00
822.67	3.3379E00
822.97	3.1197E00
823.27	2.8551E00
823.57	2.7743E00
823.88	2.8323E00
824.18	2.9261E00
824.48	2.9465E00
824.78	3.0156E00
825.08	3.2223E00
825.38	3.2939E00
825.69	3.2142E00
825.99	3.2147E00
826.29	3.2818E00
826.59	3.2873E00
826.89	3.2901E00
827.19	3.4779E00
827.49	3.2521E00
827.79	3.1242E00
828.09	3.0529E00
828.39	3.0374E00
828.70	3.0033E00
829.00	3.1141E00
829.30	3.0039E00
829.60	2.8880E00
829.90	3.0348E00
830.20	2.9777E00
830.50	2.9238E00
830.80	3.0568E00
831.10	2.9850E00
831.40	3.0046E00
831.70	2.9887E00
832.00	2.9940E00
832.30	2.9662E00
832.60	2.9071E00
832.90	2.8834E00
833.20	2.8675E00
833.50	2.8619E00
833.80	2.9058E00
834.10	2.8815E00
834.40	3.0487E00
834.70	3.0266E00
835.00	2.9589E00
835.30	2.9992E00
835.60	2.9913E00
835.90	3.0356E00
836.20	3.0685E00
836.50	3.0030E00
836.80	3.1894E00
837.10	3.6946E00
837.40	3.1380E00
837.70	3.2038E00
838.00	3.1057E00
838.30	3.1878E00
838.60	3.2481E00
838.90	3.2126E00
839.19	3.4754E00
839.49	3.2044E00
839.79	3.2165E00
840.09	3.1288E00
840.39	3.2850E00
840.69	3.2974E00
840.99	3.5003E00
841.29	3.4199E00
841.59	3.2470E00
841.88	3.2224E00
842.18	3.4339E00
842.48	3.2535E00
842.78	3.2450E00
843.08	3.3634E00
843.38	3.3611E00
843.68	3.5389E00
843.97	3.5573E00
844.27	3.4048E00
844.57	3.2851E00
844.87	3.3374E00
845.17	3.3687E00
845.47	3.3960E00
845.76	3.5216E00
846.06	3.5404E00
846.36	4.0848E00
846.66	3.4233E00
846.96	3.5308E00
847.25	3.4221E00
847.55	3.4356E00
847.85	3.4943E00
848.15	3.4908E00
848.44	3.4747E00
848.74	3.5663E00
849.04	3.5346E00
849.34	3.7011E00
849.63	3.4949E00
849.93	3.4432E00
850.23	3.3924E00
850.53	3.5131E00
850.82	3.4707E00
851.12	3.4968E00
851.42	3.5885E00
851.71	3.6205E00
852.01	3.5705E00
852.31	3.6157E00
852.61	3.6142E00
852.90	3.5697E00
853.20	3.7682E00
853.50	4.1167E00
853.79	3.7569E00
854.09	3.5858E00
854.39	3.5782E00
854.68	3.5333E00
854.98	3.4549E00
855.28	3.7247E00
855.57	3.7928E00
855.87	3.7282E00
856.17	3.8292E00
856.46	3.6927E00
856.76	3.6116E00
857.05	3.7400E00
857.35	3.7609E00
857.65	4.1302E00
857.94	3.9886E00
858.24	4.0236E00
858.53	3.7811E00
858.83	4.4333E00
859.13	3.8812E00
859.42	3.8475E00
859.72	4.1238E00
860.01	3.7940E00
860.31	3.8937E00
860.60	4.0419E00
860.90	4.0885E00
861.20	4.0004E00
861.49	4.0858E00
861.79	4.1105E00
862.08	5.5010E00
862.38	4.5435E00
862.67	4.1427E00
862.97	4.1528E00
863.26	4.0832E00
863.56	4.3654E00
863.85	4.8138E00
864.15	4.1659E00
864.44	4.2325E00
864.74	4.3629E00
865.03	4.6554E00
865.33	4.5460E00
865.62	4.3546E00
865.92	4.3686E00
866.21	4.3591E00
866.51	4.2017E00
866.80	4.6465E00
867.10	4.8347E00
867.39	4.4111E00
867.69	4.5973E00
867.98	4.1789E00
868.27	4.2380E00
868.57	4.2808E00
868.86	4.4742E00
869.16	4.1782E00
869.45	4.3841E00
869.75	4.2693E00
870.04	4.4582E00
870.33	4.5877E00
870.63	4.4730E00
870.92	4.2953E00
871.22	5.9793E00
871.51	4.6330E00
871.80	4.7215E00
872.10	4.7215E00
>>>>>End Processed Spectral Data<<<<<
