SpectraSuite Data File
++++++++++++++++++++++++++++++++++++
Date: Thu May 14 08:54:05 PDT 2015
User: schluterlab
Dark Spectrum Present: Yes
Reference Spectrum Present: No
Number of Sampled Component Spectra: 1
Spectrometers: USB2E3373
Integration Time (usec): 2300000 (USB2E3373)
Spectra Averaged: 3 (USB2E3373)
Boxcar Smoothing: 0 (USB2E3373)
Correct for Electrical Dark: No (USB2E3373)
Strobe/Lamp Enabled: No (USB2E3373)
Correct for Detector Non-linearity: No (USB2E3373)
Correct for Stray Light: No (USB2E3373)
Number of Pixels in Processed Spectrum: 2048
>>>>>Begin Processed Spectral Data<<<<<
178.53	0.0000E00
178.91	0.0000E00
179.29	0.0000E00
179.67	0.0000E00
180.04	0.0000E00
180.42	0.0000E00
180.80	0.0000E00
181.18	0.0000E00
181.56	0.0000E00
181.94	0.0000E00
182.31	0.0000E00
182.69	0.0000E00
183.07	0.0000E00
183.45	0.0000E00
183.83	0.0000E00
184.20	0.0000E00
184.58	0.0000E00
184.96	0.0000E00
185.34	0.0000E00
185.72	0.0000E00
186.09	0.0000E00
186.47	0.0000E00
186.85	0.0000E00
187.23	0.0000E00
187.61	0.0000E00
187.98	0.0000E00
188.36	0.0000E00
188.74	0.0000E00
189.12	0.0000E00
189.49	0.0000E00
189.87	0.0000E00
190.25	0.0000E00
190.63	0.0000E00
191.00	0.0000E00
191.38	0.0000E00
191.76	0.0000E00
192.14	0.0000E00
192.51	0.0000E00
192.89	0.0000E00
193.27	0.0000E00
193.65	0.0000E00
194.02	0.0000E00
194.40	0.0000E00
194.78	0.0000E00
195.15	0.0000E00
195.53	0.0000E00
195.91	0.0000E00
196.29	0.0000E00
196.66	0.0000E00
197.04	0.0000E00
197.42	0.0000E00
197.79	0.0000E00
198.17	0.0000E00
198.55	0.0000E00
198.92	0.0000E00
199.30	0.0000E00
199.68	0.0000E00
200.05	0.0000E00
200.43	0.0000E00
200.81	0.0000E00
201.18	0.0000E00
201.56	0.0000E00
201.94	0.0000E00
202.31	0.0000E00
202.69	0.0000E00
203.07	0.0000E00
203.44	0.0000E00
203.82	0.0000E00
204.19	0.0000E00
204.57	0.0000E00
204.95	0.0000E00
205.32	0.0000E00
205.70	0.0000E00
206.08	-0.0000E00
206.45	0.0000E00
206.83	0.0000E00
207.20	0.0000E00
207.58	0.0000E00
207.96	0.0000E00
208.33	0.0000E00
208.71	0.0000E00
209.08	0.0000E00
209.46	0.0000E00
209.84	-0.0000E00
210.21	0.0000E00
210.59	0.0000E00
210.96	0.0000E00
211.34	0.0000E00
211.71	0.0000E00
212.09	0.0000E00
212.46	0.0000E00
212.84	0.0000E00
213.22	0.0000E00
213.59	0.0000E00
213.97	0.0000E00
214.34	0.0000E00
214.72	0.0000E00
215.09	0.0000E00
215.47	0.0000E00
215.84	0.0000E00
216.22	0.0000E00
216.59	0.0000E00
216.97	0.0000E00
217.34	0.0000E00
217.72	0.0000E00
218.09	0.0000E00
218.47	0.0000E00
218.84	0.0000E00
219.22	0.0000E00
219.59	0.0000E00
219.97	0.0000E00
220.34	0.0000E00
220.72	0.0000E00
221.09	0.0000E00
221.47	0.0000E00
221.84	0.0000E00
222.22	0.0000E00
222.59	0.0000E00
222.97	0.0000E00
223.34	0.0000E00
223.72	0.0000E00
224.09	0.0000E00
224.46	0.0000E00
224.84	0.0000E00
225.21	0.0000E00
225.59	0.0000E00
225.96	0.0000E00
226.34	0.0000E00
226.71	0.0000E00
227.08	0.0000E00
227.46	0.0000E00
227.83	0.0000E00
228.21	0.0000E00
228.58	0.0000E00
228.95	0.0000E00
229.33	0.0000E00
229.70	0.0000E00
230.08	0.0000E00
230.45	0.0000E00
230.82	0.0000E00
231.20	0.0000E00
231.57	0.0000E00
231.95	0.0000E00
232.32	0.0000E00
232.69	0.0000E00
233.07	0.0000E00
233.44	0.0000E00
233.81	0.0000E00
234.19	0.0000E00
234.56	0.0000E00
234.93	0.0000E00
235.31	0.0000E00
235.68	0.0000E00
236.05	0.0000E00
236.43	0.0000E00
236.80	0.0000E00
237.17	0.0000E00
237.55	0.0000E00
237.92	0.0000E00
238.29	0.0000E00
238.67	0.0000E00
239.04	0.0000E00
239.41	0.0000E00
239.79	0.0000E00
240.16	0.0000E00
240.53	0.0000E00
240.91	0.0000E00
241.28	0.0000E00
241.65	0.0000E00
242.02	0.0000E00
242.40	0.0000E00
242.77	0.0000E00
243.14	0.0000E00
243.51	0.0000E00
243.89	0.0000E00
244.26	0.0000E00
244.63	0.0000E00
245.00	0.0000E00
245.38	0.0000E00
245.75	0.0000E00
246.12	0.0000E00
246.49	0.0000E00
246.87	0.0000E00
247.24	0.0000E00
247.61	0.0000E00
247.98	0.0000E00
248.36	0.0000E00
248.73	0.0000E00
249.10	0.0000E00
249.47	0.0000E00
249.84	0.0000E00
250.22	0.0000E00
250.59	0.0000E00
250.96	0.0000E00
251.33	0.0000E00
251.70	0.0000E00
252.08	0.0000E00
252.45	0.0000E00
252.82	0.0000E00
253.19	0.0000E00
253.56	0.0000E00
253.94	0.0000E00
254.31	0.0000E00
254.68	0.0000E00
255.05	0.0000E00
255.42	0.0000E00
255.79	0.0000E00
256.16	0.0000E00
256.54	0.0000E00
256.91	0.0000E00
257.28	0.0000E00
257.65	0.0000E00
258.02	0.0000E00
258.39	0.0000E00
258.76	0.0000E00
259.14	0.0000E00
259.51	0.0000E00
259.88	0.0000E00
260.25	0.0000E00
260.62	0.0000E00
260.99	0.0000E00
261.36	0.0000E00
261.73	0.0000E00
262.10	0.0000E00
262.47	0.0000E00
262.85	0.0000E00
263.22	0.0000E00
263.59	0.0000E00
263.96	0.0000E00
264.33	0.0000E00
264.70	0.0000E00
265.07	0.0000E00
265.44	0.0000E00
265.81	0.0000E00
266.18	0.0000E00
266.55	0.0000E00
266.92	0.0000E00
267.29	0.0000E00
267.66	-0.0000E00
268.03	0.0000E00
268.40	0.0000E00
268.77	0.0000E00
269.14	0.0000E00
269.51	0.0000E00
269.88	0.0000E00
270.25	0.0000E00
270.62	0.0000E00
270.99	0.0000E00
271.36	0.0000E00
271.73	0.0000E00
272.10	0.0000E00
272.47	0.0000E00
272.84	0.0000E00
273.21	0.0000E00
273.58	0.0000E00
273.95	0.0000E00
274.32	0.0000E00
274.69	0.0000E00
275.06	0.0000E00
275.43	0.0000E00
275.80	0.0000E00
276.17	0.0000E00
276.54	0.0000E00
276.91	0.0000E00
277.28	0.0000E00
277.65	0.0000E00
278.02	0.0000E00
278.39	0.0000E00
278.76	0.0000E00
279.13	0.0000E00
279.50	0.0000E00
279.87	0.0000E00
280.23	0.0000E00
280.60	0.0000E00
280.97	0.0000E00
281.34	0.0000E00
281.71	0.0000E00
282.08	0.0000E00
282.45	0.0000E00
282.82	0.0000E00
283.19	0.0000E00
283.56	0.0000E00
283.92	0.0000E00
284.29	0.0000E00
284.66	0.0000E00
285.03	0.0000E00
285.40	0.0000E00
285.77	0.0000E00
286.14	0.0000E00
286.51	0.0000E00
286.87	0.0000E00
287.24	0.0000E00
287.61	0.0000E00
287.98	0.0000E00
288.35	0.0000E00
288.72	0.0000E00
289.08	0.0000E00
289.45	0.0000E00
289.82	0.0000E00
290.19	0.0000E00
290.56	0.0000E00
290.93	0.0000E00
291.29	0.0000E00
291.66	0.0000E00
292.03	0.0000E00
292.40	0.0000E00
292.77	0.0000E00
293.13	0.0000E00
293.50	0.0000E00
293.87	0.0000E00
294.24	0.0000E00
294.60	0.0000E00
294.97	0.0000E00
295.34	0.0000E00
295.71	0.0000E00
296.08	0.0000E00
296.44	0.0000E00
296.81	0.0000E00
297.18	0.0000E00
297.55	0.0000E00
297.91	0.0000E00
298.28	0.0000E00
298.65	0.0000E00
299.02	0.0000E00
299.38	0.0000E00
299.75	0.0000E00
300.12	5.3622E-01
300.48	6.4753E-01
300.85	5.2839E-01
301.22	1.0041E00
301.59	5.6913E-01
301.95	6.1937E-01
302.32	5.1785E-01
302.69	6.0671E-01
303.05	5.7044E-01
303.42	9.0912E-01
303.79	8.6559E-01
304.15	5.5765E-01
304.52	7.2669E-01
304.89	8.3138E-01
305.25	4.6754E-01
305.62	6.3374E-01
305.99	7.1230E-01
306.35	5.9476E-01
306.72	7.4638E-01
307.09	8.5679E-01
307.45	8.5072E-01
307.82	9.4984E-01
308.19	3.4752E00
308.55	8.7589E-01
308.92	7.4787E-01
309.29	7.1082E-01
309.65	7.0669E-01
310.02	1.0821E00
310.38	8.6172E-01
310.75	7.1814E-01
311.12	1.1229E00
311.48	9.2555E-01
311.85	1.2813E00
312.22	9.0697E-01
312.58	1.6861E00
312.95	7.5671E-01
313.31	9.3678E-01
313.68	1.2962E00
314.05	1.1644E00
314.41	1.3803E00
314.78	1.1283E00
315.14	3.1136E00
315.51	1.3206E00
315.87	9.5444E-01
316.24	2.2899E00
316.61	1.4145E00
316.97	1.4305E00
317.34	1.4938E00
317.70	1.2092E00
318.07	1.4124E00
318.43	1.4148E00
318.80	2.2809E00
319.16	1.5437E00
319.53	4.1409E01
319.89	2.2224E00
320.26	1.7494E00
320.62	2.3766E00
320.99	1.7123E00
321.35	1.8550E00
321.72	2.4584E00
322.08	1.7519E00
322.45	3.0936E00
322.81	2.3612E00
323.18	1.3976E00
323.54	1.4555E00
323.91	3.2189E00
324.27	2.1678E00
324.64	6.5304E00
325.00	1.4960E00
325.37	5.8280E00
325.73	1.5983E00
326.10	5.8957E00
326.46	1.6166E00
326.83	1.4891E00
327.19	1.6324E00
327.56	1.5903E00
327.92	2.3604E00
328.29	3.0258E00
328.65	2.7326E00
329.01	3.6494E00
329.38	1.5668E00
329.74	1.6651E00
330.11	2.1132E00
330.47	2.4998E00
330.84	1.8944E00
331.20	1.8305E00
331.56	2.1957E00
331.93	1.7662E00
332.29	2.1043E00
332.66	2.1833E00
333.02	1.3631E00
333.38	1.5984E00
333.75	1.6434E00
334.11	1.6924E00
334.48	2.4538E00
334.84	2.0720E00
335.20	1.6786E00
335.57	1.9146E00
335.93	2.6780E00
336.29	2.2281E00
336.66	1.9789E00
337.02	2.0515E00
337.38	1.9027E00
337.75	1.5245E00
338.11	1.1862E00
338.47	2.0562E00
338.84	2.6771E00
339.20	4.8811E00
339.56	1.8558E00
339.93	1.8626E00
340.29	1.4668E00
340.65	1.7051E00
341.02	1.7696E00
341.38	1.6741E00
341.74	1.5034E00
342.11	1.5143E00
342.47	2.0937E00
342.83	2.1910E00
343.20	1.4372E00
343.56	2.4187E00
343.92	1.7228E00
344.28	1.9076E00
344.65	1.8652E00
345.01	1.9436E00
345.37	1.6458E00
345.73	1.6601E00
346.10	2.2153E00
346.46	1.7890E00
346.82	1.3441E00
347.19	3.0367E00
347.55	1.6093E00
347.91	3.0923E00
348.27	1.9827E00
348.63	1.6503E00
349.00	1.6216E00
349.36	1.4897E00
349.72	1.7277E00
350.08	2.1890E00
350.45	2.2025E00
350.81	2.1446E00
351.17	1.5002E00
351.53	2.0996E00
351.89	1.9351E00
352.26	1.7491E00
352.62	1.8970E00
352.98	1.2813E00
353.34	2.2111E00
353.70	1.6913E00
354.07	1.2954E00
354.43	1.5538E00
354.79	1.3541E00
355.15	1.3851E00
355.51	1.6081E00
355.87	1.0516E00
356.24	1.5850E00
356.60	1.7026E00
356.96	1.5003E00
357.32	1.8037E00
357.68	1.2584E00
358.04	1.4932E00
358.40	1.5342E00
358.77	1.2812E00
359.13	1.6918E00
359.49	1.6683E00
359.85	1.5467E00
360.21	1.4436E00
360.57	1.3332E00
360.93	1.2601E00
361.29	1.5120E00
361.66	2.3127E00
362.02	1.4595E00
362.38	1.9682E00
362.74	1.3066E00
363.10	1.5371E00
363.46	1.3365E00
363.82	1.3954E00
364.18	1.5341E00
364.54	1.4300E00
364.90	1.1202E00
365.26	1.5096E00
365.62	1.3903E00
365.98	1.9359E00
366.35	1.7078E00
366.71	1.4417E00
367.07	1.4570E00
367.43	1.4314E00
367.79	1.3671E00
368.15	1.1456E00
368.51	1.4193E00
368.87	1.2439E00
369.23	1.3558E00
369.59	1.5785E00
369.95	1.5721E00
370.31	1.2233E00
370.67	1.3277E00
371.03	1.5301E00
371.39	1.4252E00
371.75	1.2316E00
372.11	1.4710E00
372.47	1.2144E00
372.83	1.4826E00
373.19	1.3241E00
373.55	1.4698E00
373.91	1.4660E00
374.27	1.6220E00
374.63	1.3736E00
374.99	1.3533E00
375.35	1.4295E00
375.71	1.2510E00
376.07	1.3891E00
376.42	1.2731E00
376.78	1.4007E00
377.14	1.2970E00
377.50	1.1655E00
377.86	1.3612E00
378.22	1.2081E00
378.58	1.3182E00
378.94	1.0631E00
379.30	1.1360E00
379.66	1.2645E00
380.02	1.1668E00
380.38	1.1878E00
380.74	1.3135E00
381.09	1.0983E00
381.45	1.1625E00
381.81	1.0010E00
382.17	1.3142E00
382.53	1.1670E00
382.89	1.1328E00
383.25	1.1996E00
383.61	1.1456E00
383.97	1.1494E00
384.32	1.0939E00
384.68	1.2779E00
385.04	1.0849E00
385.40	1.0792E00
385.76	1.2215E00
386.12	1.0704E00
386.48	1.1342E00
386.83	1.2115E00
387.19	1.0663E00
387.55	1.1347E00
387.91	1.0321E00
388.27	1.1253E00
388.62	1.2171E00
388.98	1.0244E00
389.34	1.2049E00
389.70	1.0313E00
390.06	9.9890E-01
390.42	1.2117E00
390.77	1.0912E00
391.13	1.0569E00
391.49	1.1825E00
391.85	1.2741E00
392.20	1.2186E00
392.56	1.1473E00
392.92	1.0836E00
393.28	1.0764E00
393.64	1.0852E00
393.99	1.1317E00
394.35	1.0862E00
394.71	1.0956E00
395.07	1.0102E00
395.42	1.1093E00
395.78	1.1566E00
396.14	1.0973E00
396.50	1.0558E00
396.85	1.1722E00
397.21	1.0228E00
397.57	1.1183E00
397.92	1.0930E00
398.28	1.0647E00
398.64	1.1237E00
399.00	1.0222E00
399.35	9.9444E-01
399.71	1.0258E00
400.07	1.0799E00
400.42	1.0210E00
400.78	1.0349E00
401.14	9.6914E-01
401.49	1.0291E00
401.85	9.6217E-01
402.21	1.0422E00
402.57	1.0423E00
402.92	1.0121E00
403.28	9.8005E-01
403.63	9.7689E-01
403.99	9.6967E-01
404.35	9.7848E-01
404.70	1.0275E00
405.06	9.3049E-01
405.42	1.0323E00
405.77	9.5327E-01
406.13	9.4182E-01
406.49	8.9502E-01
406.84	9.6827E-01
407.20	9.2582E-01
407.55	1.0154E00
407.91	1.0123E00
408.27	9.2247E-01
408.62	9.0634E-01
408.98	9.1470E-01
409.34	9.0511E-01
409.69	9.5844E-01
410.05	9.2625E-01
410.40	9.1641E-01
410.76	8.7790E-01
411.11	8.3518E-01
411.47	9.1765E-01
411.83	8.5177E-01
412.18	8.5743E-01
412.54	9.1871E-01
412.89	9.1851E-01
413.25	8.5089E-01
413.60	8.7960E-01
413.96	9.4216E-01
414.31	9.0473E-01
414.67	9.5855E-01
415.03	9.6043E-01
415.38	9.2007E-01
415.74	9.5219E-01
416.09	8.7923E-01
416.45	9.4305E-01
416.80	8.8267E-01
417.16	9.5199E-01
417.51	8.9116E-01
417.87	8.7780E-01
418.22	8.5939E-01
418.58	9.2459E-01
418.93	8.2995E-01
419.29	9.0498E-01
419.64	8.7277E-01
420.00	8.3521E-01
420.35	8.0941E-01
420.71	8.5920E-01
421.06	8.4890E-01
421.42	8.5757E-01
421.77	8.6126E-01
422.12	8.5999E-01
422.48	8.3407E-01
422.83	8.8022E-01
423.19	8.4386E-01
423.54	8.4315E-01
423.90	8.4456E-01
424.25	8.0546E-01
424.61	8.4891E-01
424.96	8.3287E-01
425.31	8.0229E-01
425.67	8.0264E-01
426.02	8.1536E-01
426.38	8.0952E-01
426.73	7.9356E-01
427.09	8.1091E-01
427.44	7.4830E-01
427.79	8.0457E-01
428.15	7.8711E-01
428.50	8.0198E-01
428.85	8.2781E-01
429.21	7.6619E-01
429.56	7.4018E-01
429.92	7.6104E-01
430.27	7.5053E-01
430.62	7.8439E-01
430.98	8.0315E-01
431.33	7.7099E-01
431.68	7.7030E-01
432.04	7.3870E-01
432.39	7.5635E-01
432.74	8.0461E-01
433.10	7.2954E-01
433.45	7.7095E-01
433.80	7.7551E-01
434.16	7.7915E-01
434.51	7.4696E-01
434.86	7.8173E-01
435.22	7.3760E-01
435.57	8.1258E-01
435.92	7.5739E-01
436.28	7.8470E-01
436.63	7.3195E-01
436.98	7.3942E-01
437.34	7.5706E-01
437.69	7.3066E-01
438.04	7.0802E-01
438.39	7.6261E-01
438.75	7.3328E-01
439.10	7.0459E-01
439.45	7.4610E-01
439.81	7.2294E-01
440.16	7.0544E-01
440.51	7.2497E-01
440.86	7.2240E-01
441.22	7.1649E-01
441.57	7.2946E-01
441.92	7.0897E-01
442.27	7.4546E-01
442.63	7.1605E-01
442.98	7.6215E-01
443.33	7.4345E-01
443.68	7.1725E-01
444.03	6.6749E-01
444.39	6.6921E-01
444.74	7.2087E-01
445.09	7.3337E-01
445.44	7.2605E-01
445.79	6.5717E-01
446.15	7.2179E-01
446.50	7.0831E-01
446.85	6.7451E-01
447.20	6.6569E-01
447.55	6.8518E-01
447.91	6.9579E-01
448.26	6.9300E-01
448.61	7.0573E-01
448.96	6.8406E-01
449.31	6.8126E-01
449.66	7.1714E-01
450.02	6.7710E-01
450.37	7.0829E-01
450.72	6.7619E-01
451.07	7.1502E-01
451.42	7.1711E-01
451.77	6.9352E-01
452.12	6.9312E-01
452.47	7.3168E-01
452.83	6.5061E-01
453.18	6.9942E-01
453.53	6.8241E-01
453.88	6.4539E-01
454.23	6.5171E-01
454.58	6.4860E-01
454.93	6.8044E-01
455.28	6.7301E-01
455.63	6.6958E-01
455.98	6.5507E-01
456.34	6.8301E-01
456.69	6.7421E-01
457.04	6.5705E-01
457.39	6.3157E-01
457.74	6.2166E-01
458.09	6.4650E-01
458.44	6.2776E-01
458.79	6.0048E-01
459.14	6.2850E-01
459.49	6.4530E-01
459.84	6.2236E-01
460.19	6.5721E-01
460.54	6.4708E-01
460.89	5.9940E-01
461.24	6.5952E-01
461.59	6.3246E-01
461.94	6.5224E-01
462.29	6.0001E-01
462.64	6.4871E-01
462.99	6.5453E-01
463.34	6.5946E-01
463.69	6.2657E-01
464.04	5.8955E-01
464.39	5.9955E-01
464.74	6.1677E-01
465.09	6.3843E-01
465.44	6.0007E-01
465.79	6.2516E-01
466.14	6.2807E-01
466.49	6.0703E-01
466.84	6.1410E-01
467.19	6.1829E-01
467.54	6.3913E-01
467.89	6.0182E-01
468.24	5.7687E-01
468.59	5.8331E-01
468.94	5.7599E-01
469.29	5.7993E-01
469.64	5.9128E-01
469.99	5.7926E-01
470.34	5.5583E-01
470.68	5.9438E-01
471.03	5.7434E-01
471.38	5.5899E-01
471.73	5.5990E-01
472.08	5.3944E-01
472.43	5.2305E-01
472.78	5.4327E-01
473.13	5.4597E-01
473.48	5.4377E-01
473.83	5.2319E-01
474.17	5.3208E-01
474.52	5.2879E-01
474.87	5.0521E-01
475.22	5.1348E-01
475.57	4.8792E-01
475.92	4.7139E-01
476.27	5.0606E-01
476.61	4.7991E-01
476.96	4.7051E-01
477.31	4.5227E-01
477.66	4.5995E-01
478.01	4.5628E-01
478.36	4.5682E-01
478.70	4.4175E-01
479.05	4.5199E-01
479.40	4.2903E-01
479.75	4.3274E-01
480.10	4.3338E-01
480.45	4.1840E-01
480.79	4.2363E-01
481.14	4.3255E-01
481.49	4.1578E-01
481.84	4.0583E-01
482.19	4.0277E-01
482.53	4.0656E-01
482.88	3.9943E-01
483.23	3.9170E-01
483.58	3.9085E-01
483.92	3.9918E-01
484.27	3.8207E-01
484.62	3.8332E-01
484.97	3.7288E-01
485.31	3.7265E-01
485.66	3.7840E-01
486.01	3.8085E-01
486.36	3.6395E-01
486.70	3.6761E-01
487.05	3.6661E-01
487.40	3.6438E-01
487.75	3.5595E-01
488.09	3.5977E-01
488.44	3.6194E-01
488.79	3.6153E-01
489.13	3.5613E-01
489.48	3.5875E-01
489.83	3.5697E-01
490.17	3.4690E-01
490.52	3.4683E-01
490.87	3.4805E-01
491.22	3.4847E-01
491.56	3.4856E-01
491.91	3.5389E-01
492.26	3.4825E-01
492.60	3.4880E-01
492.95	3.5164E-01
493.30	3.5034E-01
493.64	3.4471E-01
493.99	3.4786E-01
494.34	3.4778E-01
494.68	3.4129E-01
495.03	3.5206E-01
495.37	3.4414E-01
495.72	3.5281E-01
496.07	3.4399E-01
496.41	3.4306E-01
496.76	3.4292E-01
497.11	3.4778E-01
497.45	3.4546E-01
497.80	3.4652E-01
498.14	3.4409E-01
498.49	3.4329E-01
498.84	3.4527E-01
499.18	3.4026E-01
499.53	3.4323E-01
499.87	3.4457E-01
500.22	3.4700E-01
500.56	3.4670E-01
500.91	3.4441E-01
501.26	3.4463E-01
501.60	3.4236E-01
501.95	3.4325E-01
502.29	3.4271E-01
502.64	3.3962E-01
502.98	3.4586E-01
503.33	3.3903E-01
503.67	3.4236E-01
504.02	3.4129E-01
504.36	3.3879E-01
504.71	3.4413E-01
505.06	3.4278E-01
505.40	3.3794E-01
505.75	3.3886E-01
506.09	3.4083E-01
506.44	3.3818E-01
506.78	3.3752E-01
507.13	3.3839E-01
507.47	3.3633E-01
507.82	3.3502E-01
508.16	3.3715E-01
508.51	3.3456E-01
508.85	3.3198E-01
509.19	3.3170E-01
509.54	3.3579E-01
509.88	3.3758E-01
510.23	3.3200E-01
510.57	3.3231E-01
510.92	3.3288E-01
511.26	3.2993E-01
511.61	3.3132E-01
511.95	3.2984E-01
512.30	3.2793E-01
512.64	3.2879E-01
512.98	3.2821E-01
513.33	3.2726E-01
513.67	3.3141E-01
514.02	3.2929E-01
514.36	3.2616E-01
514.70	3.2953E-01
515.05	3.2280E-01
515.39	3.2558E-01
515.74	3.2371E-01
516.08	3.2611E-01
516.42	3.2262E-01
516.77	3.2356E-01
517.11	3.2369E-01
517.46	3.2300E-01
517.80	3.2377E-01
518.14	3.2384E-01
518.49	3.2043E-01
518.83	3.2390E-01
519.17	3.2679E-01
519.52	3.2179E-01
519.86	3.2120E-01
520.20	3.1983E-01
520.55	3.1879E-01
520.89	3.1917E-01
521.23	3.2034E-01
521.58	3.2328E-01
521.92	3.2217E-01
522.26	3.2571E-01
522.61	3.1897E-01
522.95	3.2165E-01
523.29	3.1935E-01
523.64	3.2188E-01
523.98	3.2195E-01
524.32	3.2163E-01
524.66	3.2094E-01
525.01	3.2221E-01
525.35	3.2305E-01
525.69	3.2510E-01
526.04	3.2583E-01
526.38	3.2136E-01
526.72	3.2688E-01
527.06	3.2539E-01
527.41	3.2791E-01
527.75	3.2725E-01
528.09	3.2510E-01
528.43	3.2878E-01
528.78	3.2699E-01
529.12	3.3225E-01
529.46	3.3126E-01
529.80	3.3327E-01
530.15	3.3336E-01
530.49	3.3573E-01
530.83	3.3514E-01
531.17	3.3503E-01
531.51	3.3785E-01
531.86	3.3677E-01
532.20	3.4296E-01
532.54	3.3832E-01
532.88	3.4159E-01
533.22	3.4399E-01
533.57	3.4543E-01
533.91	3.4398E-01
534.25	3.4621E-01
534.59	3.4653E-01
534.93	3.4338E-01
535.27	3.4725E-01
535.62	3.5164E-01
535.96	3.5126E-01
536.30	3.5014E-01
536.64	3.5485E-01
536.98	3.5621E-01
537.32	3.5455E-01
537.66	3.5380E-01
538.01	3.6079E-01
538.35	3.6065E-01
538.69	3.5654E-01
539.03	3.6352E-01
539.37	3.5905E-01
539.71	3.6441E-01
540.05	3.6064E-01
540.39	3.6433E-01
540.73	3.6660E-01
541.07	3.6596E-01
541.42	3.6646E-01
541.76	3.6747E-01
542.10	3.6858E-01
542.44	3.7139E-01
542.78	3.7106E-01
543.12	3.6787E-01
543.46	3.7629E-01
543.80	3.7120E-01
544.14	3.7042E-01
544.48	3.6939E-01
544.82	3.7431E-01
545.16	3.7183E-01
545.50	3.7390E-01
545.84	3.7966E-01
546.18	3.7287E-01
546.52	3.7835E-01
546.86	3.7800E-01
547.20	3.7939E-01
547.54	3.8487E-01
547.88	3.7898E-01
548.22	3.7860E-01
548.56	3.8163E-01
548.90	3.7905E-01
549.24	3.8103E-01
549.58	3.8412E-01
549.92	3.8167E-01
550.26	3.8631E-01
550.60	3.8434E-01
550.94	3.7917E-01
551.28	3.8670E-01
551.62	3.8191E-01
551.96	3.8621E-01
552.30	3.8994E-01
552.64	3.8866E-01
552.98	3.8626E-01
553.32	3.8520E-01
553.66	3.8526E-01
554.00	3.8437E-01
554.34	3.8735E-01
554.68	3.8959E-01
555.02	3.8681E-01
555.36	3.9117E-01
555.69	3.9007E-01
556.03	3.8842E-01
556.37	3.8813E-01
556.71	3.8714E-01
557.05	3.8796E-01
557.39	3.8910E-01
557.73	3.8993E-01
558.07	3.8941E-01
558.41	3.8616E-01
558.75	3.9047E-01
559.08	3.8866E-01
559.42	3.8399E-01
559.76	3.9149E-01
560.10	3.9125E-01
560.44	3.9199E-01
560.78	3.8755E-01
561.12	3.8771E-01
561.45	3.8928E-01
561.79	3.9107E-01
562.13	3.9083E-01
562.47	3.9099E-01
562.81	3.9331E-01
563.15	3.9278E-01
563.48	3.9108E-01
563.82	3.8457E-01
564.16	3.9247E-01
564.50	3.8972E-01
564.84	3.9347E-01
565.17	3.9178E-01
565.51	3.8786E-01
565.85	3.9241E-01
566.19	3.8958E-01
566.52	3.9477E-01
566.86	3.8996E-01
567.20	3.9286E-01
567.54	3.9482E-01
567.88	3.9333E-01
568.21	3.9673E-01
568.55	3.9431E-01
568.89	3.9265E-01
569.23	3.9290E-01
569.56	3.9321E-01
569.90	3.9625E-01
570.24	3.9818E-01
570.57	3.9893E-01
570.91	3.9729E-01
571.25	3.9607E-01
571.59	3.9562E-01
571.92	3.9613E-01
572.26	3.9798E-01
572.60	4.0048E-01
572.93	4.0084E-01
573.27	4.0292E-01
573.61	4.0368E-01
573.95	3.9946E-01
574.28	4.0403E-01
574.62	4.0351E-01
574.96	4.0998E-01
575.29	4.0724E-01
575.63	4.1261E-01
575.97	4.0908E-01
576.30	4.1614E-01
576.64	4.1157E-01
576.98	4.1530E-01
577.31	4.1358E-01
577.65	4.1781E-01
577.98	4.1621E-01
578.32	4.2071E-01
578.66	4.2325E-01
578.99	4.2113E-01
579.33	4.2696E-01
579.67	4.2394E-01
580.00	4.2846E-01
580.34	4.2523E-01
580.67	4.2971E-01
581.01	4.3030E-01
581.35	4.3216E-01
581.68	4.3456E-01
582.02	4.3550E-01
582.35	4.3695E-01
582.69	4.3449E-01
583.02	4.4288E-01
583.36	4.4141E-01
583.70	4.3923E-01
584.03	4.4320E-01
584.37	4.4118E-01
584.70	4.4965E-01
585.04	4.4667E-01
585.37	4.4510E-01
585.71	4.5319E-01
586.04	4.4835E-01
586.38	4.5118E-01
586.72	4.5644E-01
587.05	4.5518E-01
587.39	4.5903E-01
587.72	4.5487E-01
588.06	4.6236E-01
588.39	4.5892E-01
588.73	4.6199E-01
589.06	4.6259E-01
589.40	4.6700E-01
589.73	4.6751E-01
590.07	4.7053E-01
590.40	4.7141E-01
590.73	4.7744E-01
591.07	4.6982E-01
591.40	4.7774E-01
591.74	4.7546E-01
592.07	4.8072E-01
592.41	4.7972E-01
592.74	4.7998E-01
593.08	4.7672E-01
593.41	4.7837E-01
593.75	4.8144E-01
594.08	4.8274E-01
594.41	4.8299E-01
594.75	4.8684E-01
595.08	4.8403E-01
595.42	4.8075E-01
595.75	4.8364E-01
596.09	4.8776E-01
596.42	4.8711E-01
596.75	4.8837E-01
597.09	4.9359E-01
597.42	4.8662E-01
597.75	4.9160E-01
598.09	4.9140E-01
598.42	4.9487E-01
598.76	4.9529E-01
599.09	4.9614E-01
599.42	5.0069E-01
599.76	4.9717E-01
600.09	4.9921E-01
600.42	4.9995E-01
600.76	4.8983E-01
601.09	4.9730E-01
601.42	5.0560E-01
601.76	4.9779E-01
602.09	4.9926E-01
602.42	5.0220E-01
602.76	5.0220E-01
603.09	5.0068E-01
603.42	5.0275E-01
603.76	4.9843E-01
604.09	4.9984E-01
604.42	5.0359E-01
604.76	5.0006E-01
605.09	5.0677E-01
605.42	5.0380E-01
605.75	5.0545E-01
606.09	5.0840E-01
606.42	5.0525E-01
606.75	5.0669E-01
607.09	5.1011E-01
607.42	5.0480E-01
607.75	5.1001E-01
608.08	5.1206E-01
608.42	5.1208E-01
608.75	5.0857E-01
609.08	5.1273E-01
609.41	5.1414E-01
609.75	5.1455E-01
610.08	5.0866E-01
610.41	5.1376E-01
610.74	5.1480E-01
611.07	5.1602E-01
611.41	5.0911E-01
611.74	5.1541E-01
612.07	5.1389E-01
612.40	5.1143E-01
612.73	5.1347E-01
613.07	5.1873E-01
613.40	5.1395E-01
613.73	5.1136E-01
614.06	5.1526E-01
614.39	5.1622E-01
614.72	5.1940E-01
615.06	5.1818E-01
615.39	5.2627E-01
615.72	5.1701E-01
616.05	5.2776E-01
616.38	5.2377E-01
616.71	5.2688E-01
617.05	5.1733E-01
617.38	5.2275E-01
617.71	5.1851E-01
618.04	5.2760E-01
618.37	5.1733E-01
618.70	5.2120E-01
619.03	5.2265E-01
619.36	5.1538E-01
619.69	5.2358E-01
620.03	5.1923E-01
620.36	5.1906E-01
620.69	5.1895E-01
621.02	5.2304E-01
621.35	5.1721E-01
621.68	5.1169E-01
622.01	5.1651E-01
622.34	5.1883E-01
622.67	5.1801E-01
623.00	5.2188E-01
623.33	5.1886E-01
623.66	5.2013E-01
623.99	5.2419E-01
624.32	5.1657E-01
624.65	5.1777E-01
624.99	5.1874E-01
625.32	5.2116E-01
625.65	5.2041E-01
625.98	5.1173E-01
626.31	5.1827E-01
626.64	5.2073E-01
626.97	5.1670E-01
627.30	5.1521E-01
627.63	5.1909E-01
627.96	5.1485E-01
628.29	5.1165E-01
628.62	5.1904E-01
628.95	5.2042E-01
629.28	5.1230E-01
629.61	5.2350E-01
629.94	5.2006E-01
630.26	5.2235E-01
630.59	5.2283E-01
630.92	5.1777E-01
631.25	5.1969E-01
631.58	5.2594E-01
631.91	5.2582E-01
632.24	5.2921E-01
632.57	5.2692E-01
632.90	5.2528E-01
633.23	5.2674E-01
633.56	5.3062E-01
633.89	5.3051E-01
634.22	5.3131E-01
634.55	5.3445E-01
634.88	5.3892E-01
635.20	5.3930E-01
635.53	5.4207E-01
635.86	5.4194E-01
636.19	5.4853E-01
636.52	5.4848E-01
636.85	5.4890E-01
637.18	5.5493E-01
637.51	5.5206E-01
637.83	5.5940E-01
638.16	5.5543E-01
638.49	5.6385E-01
638.82	5.6286E-01
639.15	5.6479E-01
639.48	5.6737E-01
639.81	5.7550E-01
640.13	5.6998E-01
640.46	5.7665E-01
640.79	5.7572E-01
641.12	5.8433E-01
641.45	5.8100E-01
641.77	5.8220E-01
642.10	5.9187E-01
642.43	5.9124E-01
642.76	5.9623E-01
643.09	5.9096E-01
643.41	5.9749E-01
643.74	5.9979E-01
644.07	5.9548E-01
644.40	6.0199E-01
644.73	6.1066E-01
645.05	6.1190E-01
645.38	6.1399E-01
645.71	6.1636E-01
646.04	6.1887E-01
646.36	6.1528E-01
646.69	6.2838E-01
647.02	6.2046E-01
647.35	6.2511E-01
647.67	6.3355E-01
648.00	6.2878E-01
648.33	6.3959E-01
648.66	6.3102E-01
648.98	6.4184E-01
649.31	6.3682E-01
649.64	6.3907E-01
649.96	6.4816E-01
650.29	6.5058E-01
650.62	6.5181E-01
650.94	6.5466E-01
651.27	6.5254E-01
651.60	6.5458E-01
651.92	6.6459E-01
652.25	6.6288E-01
652.58	6.6419E-01
652.90	6.6837E-01
653.23	6.6716E-01
653.56	6.6909E-01
653.88	6.7546E-01
654.21	6.7467E-01
654.54	6.7900E-01
654.86	6.8706E-01
655.19	6.7926E-01
655.52	6.9060E-01
655.84	6.8348E-01
656.17	6.8761E-01
656.49	6.9576E-01
656.82	6.8388E-01
657.15	6.9766E-01
657.47	6.9701E-01
657.80	6.9905E-01
658.13	6.9940E-01
658.45	7.0250E-01
658.78	7.0791E-01
659.10	7.0912E-01
659.43	7.1131E-01
659.75	7.0826E-01
660.08	7.0564E-01
660.41	7.1564E-01
660.73	7.1829E-01
661.06	7.2131E-01
661.38	7.1937E-01
661.71	7.2058E-01
662.03	7.1340E-01
662.36	7.2804E-01
662.68	7.2789E-01
663.01	7.1968E-01
663.33	7.3104E-01
663.66	7.3154E-01
663.98	7.3710E-01
664.31	7.3043E-01
664.63	7.4567E-01
664.96	7.3446E-01
665.28	7.4314E-01
665.61	7.4118E-01
665.93	7.4033E-01
666.26	7.4499E-01
666.58	7.4816E-01
666.91	7.4317E-01
667.23	7.5092E-01
667.56	7.4789E-01
667.88	7.4969E-01
668.21	7.5851E-01
668.53	7.5078E-01
668.86	7.5749E-01
669.18	7.5552E-01
669.50	7.6699E-01
669.83	7.6610E-01
670.15	7.6665E-01
670.48	7.7067E-01
670.80	7.6721E-01
671.13	7.6357E-01
671.45	7.7101E-01
671.77	7.7494E-01
672.10	7.6860E-01
672.42	7.8324E-01
672.75	7.7583E-01
673.07	7.8518E-01
673.39	7.8076E-01
673.72	7.8539E-01
674.04	7.9088E-01
674.37	7.8635E-01
674.69	7.8162E-01
675.01	7.9857E-01
675.34	7.9632E-01
675.66	7.9797E-01
675.98	7.8615E-01
676.31	8.0222E-01
676.63	7.9814E-01
676.95	7.9737E-01
677.28	8.0466E-01
677.60	8.0648E-01
677.92	8.1176E-01
678.25	8.1384E-01
678.57	8.1456E-01
678.89	8.1035E-01
679.22	8.2143E-01
679.54	8.1482E-01
679.86	8.2703E-01
680.18	8.1765E-01
680.51	8.1949E-01
680.83	8.3811E-01
681.15	8.2462E-01
681.48	8.3409E-01
681.80	8.2839E-01
682.12	8.2971E-01
682.44	8.3945E-01
682.77	8.4456E-01
683.09	8.4933E-01
683.41	8.4759E-01
683.73	8.5483E-01
684.06	8.5027E-01
684.38	8.5150E-01
684.70	8.5749E-01
685.02	8.6280E-01
685.34	8.6566E-01
685.67	8.6216E-01
685.99	8.7567E-01
686.31	8.6682E-01
686.63	8.8330E-01
686.96	8.8318E-01
687.28	8.8889E-01
687.60	8.7652E-01
687.92	8.8559E-01
688.24	8.9134E-01
688.56	9.0128E-01
688.89	8.9238E-01
689.21	9.0256E-01
689.53	9.0211E-01
689.85	9.1253E-01
690.17	9.0543E-01
690.49	9.2437E-01
690.82	9.1544E-01
691.14	9.1878E-01
691.46	9.1725E-01
691.78	9.2968E-01
692.10	9.2364E-01
692.42	9.3497E-01
692.74	9.3524E-01
693.06	9.4165E-01
693.39	9.5259E-01
693.71	9.6620E-01
694.03	9.6095E-01
694.35	9.5964E-01
694.67	9.6302E-01
694.99	9.7777E-01
695.31	9.7583E-01
695.63	9.8035E-01
695.95	9.8068E-01
696.27	9.8474E-01
696.59	9.8682E-01
696.91	9.9611E-01
697.23	9.9870E-01
697.56	1.0036E00
697.88	1.0014E00
698.20	1.0097E00
698.52	1.0132E00
698.84	1.0264E00
699.16	1.0339E00
699.48	1.0222E00
699.80	1.0454E00
700.12	1.0379E00
700.44	1.0420E00
700.76	1.0489E00
701.08	1.0637E00
701.40	1.0633E00
701.72	1.0652E00
702.04	1.0733E00
702.36	1.0727E00
702.68	1.0830E00
703.00	1.0930E00
703.32	1.0891E00
703.64	1.1044E00
703.96	1.1002E00
704.28	1.1092E00
704.60	1.1176E00
704.91	1.1242E00
705.23	1.1238E00
705.55	1.1366E00
705.87	1.1380E00
706.19	1.1367E00
706.51	1.1499E00
706.83	1.1438E00
707.15	1.1731E00
707.47	1.1635E00
707.79	1.1777E00
708.11	1.1736E00
708.43	1.1809E00
708.74	1.1813E00
709.06	1.1930E00
709.38	1.2056E00
709.70	1.2031E00
710.02	1.2099E00
710.34	1.2052E00
710.66	1.2303E00
710.98	1.2270E00
711.29	1.2316E00
711.61	1.2511E00
711.93	1.2624E00
712.25	1.2495E00
712.57	1.2678E00
712.89	1.2741E00
713.20	1.2669E00
713.52	1.2847E00
713.84	1.2889E00
714.16	1.2822E00
714.48	1.2939E00
714.80	1.3121E00
715.11	1.3094E00
715.43	1.3252E00
715.75	1.3293E00
716.07	1.3339E00
716.39	1.3234E00
716.70	1.3342E00
717.02	1.3324E00
717.34	1.3596E00
717.66	1.3639E00
717.97	1.3759E00
718.29	1.3845E00
718.61	1.3900E00
718.93	1.4057E00
719.24	1.4004E00
719.56	1.4258E00
719.88	1.4244E00
720.20	1.4498E00
720.51	1.4652E00
720.83	1.4428E00
721.15	1.4746E00
721.46	1.4749E00
721.78	1.4840E00
722.10	1.5106E00
722.42	1.5048E00
722.73	1.5251E00
723.05	1.5154E00
723.37	1.5320E00
723.68	1.5503E00
724.00	1.5383E00
724.32	1.5615E00
724.63	1.5534E00
724.95	1.5678E00
725.27	1.5777E00
725.58	1.5775E00
725.90	1.5716E00
726.22	1.5962E00
726.53	1.5788E00
726.85	1.6016E00
727.16	1.6087E00
727.48	1.6204E00
727.80	1.6178E00
728.11	1.6175E00
728.43	1.6242E00
728.74	1.6267E00
729.06	1.6497E00
729.38	1.6479E00
729.69	1.6366E00
730.01	1.6563E00
730.32	1.6562E00
730.64	1.6551E00
730.96	1.6639E00
731.27	1.6923E00
731.59	1.6682E00
731.90	1.6908E00
732.22	1.6880E00
732.53	1.6913E00
732.85	1.7133E00
733.16	1.7160E00
733.48	1.7221E00
733.80	1.6975E00
734.11	1.7323E00
734.43	1.7247E00
734.74	1.7295E00
735.06	1.7612E00
735.37	1.7417E00
735.69	1.7649E00
736.00	1.7725E00
736.32	1.7753E00
736.63	1.7796E00
736.95	1.7840E00
737.26	1.8022E00
737.58	1.7922E00
737.89	1.8123E00
738.21	1.8152E00
738.52	1.8108E00
738.83	1.8300E00
739.15	1.8180E00
739.46	1.8385E00
739.78	1.8519E00
740.09	1.8506E00
740.41	1.8502E00
740.72	1.8505E00
741.04	1.8522E00
741.35	1.8547E00
741.66	1.8443E00
741.98	1.8703E00
742.29	1.8641E00
742.61	1.8727E00
742.92	1.8651E00
743.23	1.8739E00
743.55	1.8941E00
743.86	1.8905E00
744.18	1.8737E00
744.49	1.8894E00
744.80	1.8832E00
745.12	1.8841E00
745.43	1.8867E00
745.74	1.8770E00
746.06	1.8872E00
746.37	1.8683E00
746.68	1.8750E00
747.00	1.8843E00
747.31	1.8937E00
747.62	1.8678E00
747.94	1.8987E00
748.25	1.8860E00
748.56	1.8812E00
748.88	1.8809E00
749.19	1.8928E00
749.50	1.8921E00
749.82	1.8820E00
750.13	1.8859E00
750.44	1.8816E00
750.75	1.8687E00
751.07	1.8859E00
751.38	1.8932E00
751.69	1.8909E00
752.01	1.8908E00
752.32	1.8998E00
752.63	1.8832E00
752.94	1.8984E00
753.26	1.9193E00
753.57	1.8999E00
753.88	1.9270E00
754.19	1.9137E00
754.51	1.9101E00
754.82	1.9135E00
755.13	1.9450E00
755.44	1.9297E00
755.75	1.9263E00
756.07	1.9335E00
756.38	1.9531E00
756.69	1.9470E00
757.00	1.9554E00
757.31	1.9822E00
757.63	2.0044E00
757.94	1.9979E00
758.25	1.9969E00
758.56	1.9723E00
758.87	2.0111E00
759.18	2.0319E00
759.50	2.0272E00
759.81	2.0502E00
760.12	2.0411E00
760.43	2.0550E00
760.74	2.0741E00
761.05	2.0706E00
761.36	2.0976E00
761.67	2.1235E00
761.99	2.1315E00
762.30	2.1107E00
762.61	2.1427E00
762.92	2.1615E00
763.23	2.1715E00
763.54	2.1772E00
763.85	2.2127E00
764.16	2.2185E00
764.47	2.2220E00
764.78	2.2468E00
765.10	2.2568E00
765.41	2.2706E00
765.72	2.2782E00
766.03	2.3374E00
766.34	2.3362E00
766.65	2.3496E00
766.96	2.3802E00
767.27	2.3914E00
767.58	2.3691E00
767.89	2.4101E00
768.20	2.4438E00
768.51	2.4583E00
768.82	2.4643E00
769.13	2.4833E00
769.44	2.5364E00
769.75	2.5323E00
770.06	2.5694E00
770.37	2.5346E00
770.68	2.5902E00
770.99	2.6088E00
771.30	2.6498E00
771.61	2.6918E00
771.92	2.6612E00
772.23	2.6869E00
772.54	2.7275E00
772.85	2.7283E00
773.16	2.7913E00
773.47	2.8148E00
773.78	2.7921E00
774.09	2.8697E00
774.39	2.8600E00
774.70	2.8955E00
775.01	2.9152E00
775.32	2.9154E00
775.63	2.9678E00
775.94	2.9990E00
776.25	3.0048E00
776.56	3.0443E00
776.87	3.1132E00
777.18	3.0976E00
777.48	3.1157E00
777.79	3.1574E00
778.10	3.1815E00
778.41	3.2047E00
778.72	3.2396E00
779.03	3.2422E00
779.34	3.3293E00
779.65	3.3049E00
779.95	3.3431E00
780.26	3.3821E00
780.57	3.4097E00
780.88	3.3987E00
781.19	3.4712E00
781.50	3.4799E00
781.80	3.5077E00
782.11	3.5493E00
782.42	3.6195E00
782.73	3.5447E00
783.04	3.5951E00
783.34	3.6778E00
783.65	3.7098E00
783.96	3.7330E00
784.27	3.7288E00
784.57	3.7380E00
784.88	3.8352E00
785.19	3.8423E00
785.50	3.8419E00
785.81	3.8849E00
786.11	3.8617E00
786.42	4.0076E00
786.73	4.0142E00
787.04	3.9808E00
787.34	4.0423E00
787.65	4.0362E00
787.96	4.1392E00
788.26	4.1710E00
788.57	4.2230E00
788.88	4.1337E00
789.19	4.3056E00
789.49	4.3018E00
789.80	4.3293E00
790.11	4.3711E00
790.41	4.3498E00
790.72	4.4773E00
791.03	4.4635E00
791.33	4.5025E00
791.64	4.5094E00
791.95	4.5670E00
792.25	4.6612E00
792.56	4.6852E00
792.87	4.6549E00
793.17	4.7176E00
793.48	4.7034E00
793.79	4.7776E00
794.09	4.9503E00
794.40	4.7532E00
794.70	4.7954E00
795.01	4.8988E00
795.32	4.8828E00
795.62	4.9994E00
795.93	5.0148E00
796.23	5.0537E00
796.54	5.0611E00
796.85	5.0186E00
797.15	5.1661E00
797.46	5.1793E00
797.76	5.2936E00
798.07	5.2403E00
798.37	5.3589E00
798.68	5.3908E00
798.99	5.4512E00
799.29	5.4822E00
799.60	5.5130E00
799.90	5.5403E00
800.21	5.6410E00
800.51	5.6999E00
800.82	5.6655E00
801.12	5.7775E00
801.43	5.6889E00
801.73	5.8054E00
802.04	5.8546E00
802.34	5.8713E00
802.65	5.9823E00
802.95	6.0333E00
803.26	6.1088E00
803.56	5.9951E00
803.87	6.0999E00
804.17	6.1679E00
804.48	6.1386E00
804.78	6.1792E00
805.09	6.3241E00
805.39	6.2512E00
805.70	6.3166E00
806.00	6.4286E00
806.30	6.3286E00
806.61	6.4528E00
806.91	6.4790E00
807.22	6.5397E00
807.52	6.6317E00
807.83	6.5542E00
808.13	6.7088E00
808.43	6.6454E00
808.74	6.8764E00
809.04	6.8190E00
809.35	6.8434E00
809.65	7.0011E00
809.95	6.9261E00
810.26	7.0938E00
810.56	6.9449E00
810.86	7.2586E00
811.17	7.2182E00
811.47	7.3865E00
811.77	7.3614E00
812.08	7.4172E00
812.38	7.4250E00
812.69	7.3740E00
812.99	7.4329E00
813.29	7.4103E00
813.59	7.5813E00
813.90	7.7157E00
814.20	7.7640E00
814.50	7.8252E00
814.81	7.7797E00
815.11	7.9014E00
815.41	7.9921E00
815.72	7.9907E00
816.02	8.1392E00
816.32	8.0284E00
816.62	7.9880E00
816.93	8.0846E00
817.23	8.3244E00
817.53	8.3300E00
817.84	8.5312E00
818.14	8.4968E00
818.44	8.3014E00
818.74	8.6063E00
819.04	8.7519E00
819.35	8.7616E00
819.65	8.6661E00
819.95	8.8208E00
820.25	8.9621E00
820.56	9.0171E00
820.86	9.0023E00
821.16	9.0676E00
821.46	9.0451E00
821.76	9.0213E00
822.07	9.1525E00
822.37	9.4103E00
822.67	9.4343E00
822.97	9.6376E00
823.27	9.5363E00
823.57	9.5161E00
823.88	9.4786E00
824.18	9.6960E00
824.48	9.4954E00
824.78	9.7409E00
825.08	9.7464E00
825.38	9.9915E00
825.69	9.8997E00
825.99	9.8831E00
826.29	1.0092E01
826.59	1.0310E01
826.89	1.0310E01
827.19	1.0232E01
827.49	1.0457E01
827.79	1.0484E01
828.09	1.0509E01
828.39	1.0676E01
828.70	1.0523E01
829.00	1.0780E01
829.30	1.0878E01
829.60	1.0650E01
829.90	1.0895E01
830.20	1.1087E01
830.50	1.1240E01
830.80	1.1489E01
831.10	1.1306E01
831.40	1.1311E01
831.70	1.1359E01
832.00	1.1447E01
832.30	1.1757E01
832.60	1.1527E01
832.90	1.1698E01
833.20	1.1596E01
833.50	1.1698E01
833.80	1.2055E01
834.10	1.2036E01
834.40	1.2193E01
834.70	1.2154E01
835.00	1.2523E01
835.30	1.2422E01
835.60	1.2347E01
835.90	1.2494E01
836.20	1.2744E01
836.50	1.2464E01
836.80	1.2601E01
837.10	1.2863E01
837.40	1.2782E01
837.70	1.2918E01
838.00	1.3215E01
838.30	1.3165E01
838.60	1.3535E01
838.90	1.3361E01
839.19	1.3211E01
839.49	1.3904E01
839.79	1.3478E01
840.09	1.3632E01
840.39	1.3738E01
840.69	1.3819E01
840.99	1.4250E01
841.29	1.4223E01
841.59	1.4224E01
841.88	1.4393E01
842.18	1.4711E01
842.48	1.4580E01
842.78	1.4584E01
843.08	1.4837E01
843.38	1.5139E01
843.68	1.5231E01
843.97	1.5387E01
844.27	1.5154E01
844.57	1.5034E01
844.87	1.5466E01
845.17	1.5398E01
845.47	1.5811E01
845.76	1.5882E01
846.06	1.5921E01
846.36	1.5825E01
846.66	1.6040E01
846.96	1.6012E01
847.25	1.6310E01
847.55	1.6313E01
847.85	1.6461E01
848.15	1.6580E01
848.44	1.6810E01
848.74	1.7193E01
849.04	1.7097E01
849.34	1.7507E01
849.63	1.7150E01
849.93	1.7393E01
850.23	1.7439E01
850.53	1.8091E01
850.82	1.8124E01
851.12	1.8313E01
851.42	1.7935E01
851.71	1.8520E01
852.01	1.8613E01
852.31	1.8546E01
852.61	1.8895E01
852.90	1.8948E01
853.20	1.9371E01
853.50	1.9675E01
853.79	1.9058E01
854.09	1.9233E01
854.39	2.0031E01
854.68	2.0022E01
854.98	1.9714E01
855.28	2.0615E01
855.57	2.0282E01
855.87	2.0550E01
856.17	2.0903E01
856.46	2.0994E01
856.76	2.0901E01
857.05	2.0708E01
857.35	2.1320E01
857.65	2.1598E01
857.94	2.1918E01
858.24	2.1902E01
858.53	2.1789E01
858.83	2.2000E01
859.13	2.2105E01
859.42	2.2334E01
859.72	2.3012E01
860.01	2.2727E01
860.31	2.3153E01
860.60	2.4148E01
860.90	2.3027E01
861.20	2.3932E01
861.49	2.4498E01
861.79	2.4478E01
862.08	2.4829E01
862.38	2.5009E01
862.67	2.5002E01
862.97	2.5161E01
863.26	2.4628E01
863.56	2.5542E01
863.85	2.6741E01
864.15	2.6068E01
864.44	2.6213E01
864.74	2.6811E01
865.03	2.6913E01
865.33	2.7183E01
865.62	2.7884E01
865.92	2.7650E01
866.21	2.8182E01
866.51	2.7819E01
866.80	2.8992E01
867.10	2.9252E01
867.39	2.9029E01
867.69	2.8969E01
867.98	2.9147E01
868.27	2.9727E01
868.57	3.0165E01
868.86	3.0118E01
869.16	3.0157E01
869.45	3.1297E01
869.75	3.0812E01
870.04	3.2348E01
870.33	3.1550E01
870.63	3.2205E01
870.92	3.1650E01
871.22	3.4175E01
871.51	3.4050E01
871.80	3.3213E01
872.10	3.3213E01
>>>>>End Processed Spectral Data<<<<<
