SpectraSuite Data File
++++++++++++++++++++++++++++++++++++
Date: Thu May 14 15:54:36 PDT 2015
User: schluterlab
Dark Spectrum Present: Yes
Reference Spectrum Present: Yes
Number of Sampled Component Spectra: 1
Spectrometers: USB2E3373
Integration Time (usec): 3000 (USB2E3373)
Spectra Averaged: 3 (USB2E3373)
Boxcar Smoothing: 0 (USB2E3373)
Correct for Electrical Dark: No (USB2E3373)
Strobe/Lamp Enabled: No (USB2E3373)
Correct for Detector Non-linearity: No (USB2E3373)
Correct for Stray Light: No (USB2E3373)
Number of Pixels in Processed Spectrum: 2048
>>>>>Begin Processed Spectral Data<<<<<
178.53	0.000
178.91	485.714
179.29	-3900.000
179.67	-3900.000
180.04	350.000
180.42	320.000
180.80	700.000
181.18	-3800.000
181.56	-2000.000
181.94	825.000
182.31	-800.000
182.69	1333.333
183.07	-1600.000
183.45	950.000
183.83	-516.667
184.20	-1166.667
184.58	3700.000
184.96	-675.000
185.34	-333.333
185.72	-660.000
186.09	500.000
186.47	2300.000
186.85	760.000
187.23	-311.111
187.61	-3700.000
187.98	760.000
188.36	825.000
188.74	-850.000
189.12	-1133.333
189.49	-187.500
189.87	-512.500
190.25	-411.111
190.63	-580.000
191.00	-466.667
191.38	0.000
191.76	-1050.000
192.14	-566.667
192.51	1550.000
192.89	-383.333
193.27	0.000
193.65	-457.143
194.02	-4200.000
194.40	-400.000
194.78	528.571
195.15	0.000
195.53	-300.000
195.91	0.000
196.29	-600.000
196.66	-207.692
197.04	-3900.000
197.42	-428.571
197.79	-1600.000
198.17	-462.500
198.55	-557.143
198.92	-255.556
199.30	-475.000
199.68	-181.818
200.05	-200.000
200.43	-1700.000
200.81	471.429
201.18	0.000
201.56	577.778
201.94	0.000
202.31	1633.333
202.69	-388.889
203.07	3900.000
203.44	-288.889
203.82	-650.000
204.19	-216.667
204.57	-683.333
204.95	-437.500
205.32	-4500.000
205.70	975.000
206.08	-433.333
206.45	-433.333
206.83	780.000
207.20	-516.667
207.58	-940.000
207.96	-650.000
208.33	-450.000
208.71	250.000
209.08	-383.333
209.46	0.000
209.84	616.667
210.21	1900.000
210.59	2000.000
210.96	1133.333
211.34	-600.000
211.71	-450.000
212.09	-3100.000
212.46	0.000
212.84	2200.000
213.22	-720.000
213.59	-725.000
213.97	-360.000
214.34	-1200.000
214.72	650.000
215.09	-1025.000
215.47	0.000
215.84	571.429
216.22	2050.000
216.59	-640.000
216.97	-640.000
217.34	-750.000
217.72	-350.000
218.09	-1075.000
218.47	-1000.000
218.84	0.000
219.22	680.000
219.59	-182.353
219.97	-140.000
220.34	2000.000
220.72	-355.556
221.09	-215.385
221.47	-1066.667
221.84	-330.000
222.22	-471.429
222.59	0.000
222.97	-362.500
223.34	-760.000
223.72	-3800.000
224.09	-625.000
224.46	-825.000
224.84	-560.000
225.21	-471.429
225.59	-575.000
225.96	-800.000
226.34	-107.692
226.71	750.000
227.08	-1400.000
227.46	-206.667
227.83	-700.000
228.21	-136.842
228.58	400.000
228.95	1800.000
229.33	-141.667
229.70	-330.000
230.08	-142.105
230.45	410.000
230.82	-1200.000
231.20	-221.429
231.57	-191.667
231.95	-300.000
232.32	-300.000
232.69	-150.000
233.07	-1050.000
233.44	-194.118
233.81	-420.000
234.19	-166.667
234.56	-113.636
234.93	-86.207
235.31	-168.421
235.68	-155.556
236.05	-195.000
236.43	-61.538
236.80	-72.000
237.17	-100.000
237.55	-81.818
237.92	-460.000
238.29	-106.452
238.67	-70.455
239.04	-97.222
239.41	-64.286
239.79	-65.217
240.16	-61.111
240.53	-71.739
240.91	-49.020
241.28	-59.016
241.65	-16.418
242.02	-18.919
242.40	-53.846
242.77	-34.667
243.14	-45.122
243.51	-39.474
243.89	-35.897
244.26	-27.723
244.63	-15.686
245.00	-14.019
245.38	-19.298
245.75	-34.513
246.12	-11.111
246.49	-17.829
246.87	-12.857
247.24	-11.921
247.61	-5.921
247.98	-13.423
248.36	-12.346
248.73	-13.497
249.10	-7.104
249.47	-0.995
249.84	-0.524
250.22	-7.254
250.59	-6.111
250.96	-6.364
251.33	-12.755
251.70	-5.128
252.08	-4.583
252.45	-3.279
252.82	-5.372
253.19	-2.344
253.56	-3.422
253.94	-5.000
254.31	-4.167
254.68	3.497
255.05	1.954
255.42	-1.701
255.79	-6.472
256.16	-4.636
256.54	-5.298
256.91	-0.656
257.28	-0.984
257.65	-2.866
258.02	-2.360
258.39	0.285
258.76	3.058
259.14	-0.287
259.51	1.153
259.88	-0.567
260.25	1.111
260.62	0.822
260.99	4.098
261.36	2.949
261.73	0.000
262.10	2.747
262.47	-0.268
262.85	4.040
263.22	-1.818
263.59	-0.789
263.96	-1.535
264.33	1.279
264.70	2.469
265.07	1.909
265.44	4.535
265.81	2.546
266.18	3.401
266.55	1.562
266.92	0.228
267.29	3.063
267.66	1.330
268.03	3.930
268.40	3.340
268.77	-0.456
269.14	-0.220
269.51	1.535
269.88	5.328
270.25	4.628
270.62	3.586
270.99	4.646
271.36	4.356
271.73	5.108
272.10	6.212
272.47	2.204
272.84	4.418
273.21	3.808
273.58	3.226
273.95	2.115
274.32	1.901
274.69	0.193
275.06	2.747
275.43	2.218
275.80	4.938
276.17	1.111
276.54	4.478
276.91	3.041
277.28	4.159
277.65	2.873
278.02	4.412
278.39	1.087
278.76	2.636
279.13	3.014
279.50	3.093
279.87	3.578
280.23	0.528
280.60	4.576
280.97	4.605
281.34	2.886
281.71	4.738
282.08	2.824
282.45	2.291
282.82	2.983
283.19	2.585
283.56	3.443
283.92	4.054
284.29	4.739
284.66	5.419
285.03	1.442
285.40	3.400
285.77	2.322
286.14	4.733
286.51	4.566
286.87	2.212
287.24	3.765
287.61	3.139
287.98	4.532
288.35	3.107
288.72	3.698
289.08	3.514
289.45	2.811
289.82	3.614
290.19	3.736
290.56	4.930
290.93	2.568
291.29	3.994
291.66	3.994
292.03	3.256
292.40	3.810
292.77	2.022
293.13	2.300
293.50	2.102
293.87	2.416
294.24	5.067
294.60	3.793
294.97	3.624
295.34	3.585
295.71	2.774
296.08	3.230
296.44	3.799
296.81	3.410
297.18	2.989
297.55	3.184
297.91	2.728
298.28	1.422
298.65	4.162
299.02	2.125
299.38	2.746
299.75	3.271
300.12	2.315
300.48	3.226
300.85	3.262
301.22	3.579
301.59	3.881
301.95	3.955
302.32	4.556
302.69	3.614
303.05	3.264
303.42	3.326
303.79	3.750
304.15	3.365
304.52	2.008
304.89	3.141
305.25	3.934
305.62	3.344
305.99	3.918
306.35	2.520
306.72	3.206
307.09	3.350
307.45	3.830
307.82	3.532
308.19	3.229
308.55	3.954
308.92	3.116
309.29	3.736
309.65	2.632
310.02	2.574
310.38	2.657
310.75	3.398
311.12	3.931
311.48	4.008
311.85	3.799
312.22	3.416
312.58	3.568
312.95	2.294
313.31	4.426
313.68	4.579
314.05	3.975
314.41	4.007
314.78	3.451
315.14	3.267
315.51	2.678
315.87	3.960
316.24	4.018
316.61	4.529
316.97	3.529
317.34	2.293
317.70	4.279
318.07	2.734
318.43	4.762
318.80	4.515
319.16	2.918
319.53	3.085
319.89	3.067
320.26	4.359
320.62	3.635
320.99	3.693
321.35	3.697
321.72	4.279
322.08	3.877
322.45	3.523
322.81	4.332
323.18	3.805
323.54	5.000
323.91	4.093
324.27	3.184
324.64	4.198
325.00	3.400
325.37	4.914
325.73	5.207
326.10	5.191
326.46	5.049
326.83	4.564
327.19	4.094
327.56	5.059
327.92	3.698
328.29	4.194
328.65	3.936
329.01	3.807
329.38	4.381
329.74	3.938
330.11	4.281
330.47	4.128
330.84	3.531
331.20	4.500
331.56	4.333
331.93	4.435
332.29	4.492
332.66	4.983
333.02	4.104
333.38	3.272
333.75	4.040
334.11	4.170
334.48	5.363
334.84	4.758
335.20	4.366
335.57	3.879
335.93	4.463
336.29	4.160
336.66	4.121
337.02	4.013
337.38	4.507
337.75	3.884
338.11	3.953
338.47	4.301
338.84	4.315
339.20	3.286
339.56	3.624
339.93	4.187
340.29	4.911
340.65	4.380
341.02	4.469
341.38	5.093
341.74	4.520
342.11	3.701
342.47	3.018
342.83	5.395
343.20	5.233
343.56	3.448
343.92	4.724
344.28	3.906
344.65	4.806
345.01	4.212
345.37	4.977
345.73	3.040
346.10	4.290
346.46	3.639
346.82	4.270
347.19	4.354
347.55	5.615
347.91	3.863
348.27	4.021
348.63	4.417
349.00	3.207
349.36	4.312
349.72	3.348
350.08	4.755
350.45	3.498
350.81	4.148
351.17	4.135
351.53	4.018
351.89	3.645
352.26	3.284
352.62	2.985
352.98	3.206
353.34	4.033
353.70	3.390
354.07	4.545
354.43	3.417
354.79	4.188
355.15	4.562
355.51	4.167
355.87	4.637
356.24	4.106
356.60	4.508
356.96	3.039
357.32	4.387
357.68	2.343
358.04	3.817
358.40	3.657
358.77	4.020
359.13	3.840
359.49	2.454
359.85	3.988
360.21	3.802
360.57	3.374
360.93	3.879
361.29	4.140
361.66	3.331
362.02	4.593
362.38	3.584
362.74	4.050
363.10	4.746
363.46	3.878
363.82	3.196
364.18	2.815
364.54	4.080
364.90	3.612
365.26	2.828
365.62	4.533
365.98	4.152
366.35	3.826
366.71	4.286
367.07	3.451
367.43	4.137
367.79	4.446
368.15	4.682
368.51	4.195
368.87	4.637
369.23	3.867
369.59	4.098
369.95	3.786
370.31	4.929
370.67	3.576
371.03	3.670
371.39	3.425
371.75	3.989
372.11	3.320
372.47	3.791
372.83	5.039
373.19	3.269
373.55	3.997
373.91	3.681
374.27	3.428
374.63	3.383
374.99	3.448
375.35	3.506
375.71	3.677
376.07	4.196
376.42	3.463
376.78	4.910
377.14	3.681
377.50	2.910
377.86	4.741
378.22	4.311
378.58	3.864
378.94	4.108
379.30	3.808
379.66	3.939
380.02	4.097
380.38	3.744
380.74	4.169
381.09	3.717
381.45	4.205
381.81	3.864
382.17	3.860
382.53	3.392
382.89	4.571
383.25	3.810
383.61	3.993
383.97	4.181
384.32	3.529
384.68	3.770
385.04	4.049
385.40	3.889
385.76	3.869
386.12	3.531
386.48	4.529
386.83	4.231
387.19	3.650
387.55	4.167
387.91	3.881
388.27	3.695
388.62	4.353
388.98	3.666
389.34	4.478
389.70	3.661
390.06	3.612
390.42	3.313
390.77	4.094
391.13	3.462
391.49	4.287
391.85	3.333
392.20	3.796
392.56	4.725
392.92	3.599
393.28	3.538
393.64	3.799
393.99	3.951
394.35	3.914
394.71	4.072
395.07	3.293
395.42	4.854
395.78	4.083
396.14	3.624
396.50	4.216
396.85	3.637
397.21	3.254
397.57	3.592
397.92	3.895
398.28	3.096
398.64	3.604
399.00	3.455
399.35	4.555
399.71	3.478
400.07	3.650
400.42	3.609
400.78	3.472
401.14	4.382
401.49	4.150
401.85	3.547
402.21	4.287
402.57	4.343
402.92	3.842
403.28	2.986
403.63	2.983
403.99	4.097
404.35	4.719
404.70	3.909
405.06	3.587
405.42	4.098
405.77	4.362
406.13	4.052
406.49	4.110
406.84	4.654
407.20	3.633
407.55	3.210
407.91	3.583
408.27	4.064
408.62	3.258
408.98	4.121
409.34	2.405
409.69	2.905
410.05	3.986
410.40	3.886
410.76	4.543
411.11	3.741
411.47	3.440
411.83	3.998
412.18	4.157
412.54	3.912
412.89	4.482
413.25	3.612
413.60	4.078
413.96	3.671
414.31	4.363
414.67	3.816
415.03	4.062
415.38	3.405
415.74	4.520
416.09	4.688
416.45	3.381
416.80	3.978
417.16	3.704
417.51	3.549
417.87	3.985
418.22	3.832
418.58	3.346
418.93	4.307
419.29	3.083
419.64	3.541
420.00	3.383
420.35	3.650
420.71	3.504
421.06	3.335
421.42	3.440
421.77	3.608
422.12	4.757
422.48	3.943
422.83	4.381
423.19	3.820
423.54	4.646
423.90	3.865
424.25	3.893
424.61	3.559
424.96	4.119
425.31	5.202
425.67	3.972
426.02	3.597
426.38	3.674
426.73	4.185
427.09	4.325
427.44	4.205
427.79	4.201
428.15	3.767
428.50	3.090
428.85	3.674
429.21	3.989
429.56	3.702
429.92	4.079
430.27	4.771
430.62	3.957
430.98	3.689
431.33	3.910
431.68	3.975
432.04	4.317
432.39	3.749
432.74	3.653
433.10	4.327
433.45	3.233
433.80	4.399
434.16	3.564
434.51	4.111
434.86	3.583
435.22	4.304
435.57	3.774
435.92	4.563
436.28	3.527
436.63	3.659
436.98	4.240
437.34	3.946
437.69	4.128
438.04	4.019
438.39	4.652
438.75	3.431
439.10	4.915
439.45	4.080
439.81	3.842
440.16	3.592
440.51	4.181
440.86	3.613
441.22	3.966
441.57	4.403
441.92	4.365
442.27	4.545
442.63	4.620
442.98	4.002
443.33	4.261
443.68	4.658
444.03	5.315
444.39	5.270
444.74	4.645
445.09	4.257
445.44	3.688
445.79	4.406
446.15	4.573
446.50	3.824
446.85	5.350
447.20	4.691
447.55	3.766
447.91	4.084
448.26	4.017
448.61	4.463
448.96	4.238
449.31	4.242
449.66	3.758
450.02	4.272
450.37	4.635
450.72	4.037
451.07	4.214
451.42	3.813
451.77	4.225
452.12	4.458
452.47	3.981
452.83	3.998
453.18	3.970
453.53	4.136
453.88	3.865
454.23	4.124
454.58	3.656
454.93	3.155
455.28	4.395
455.63	4.377
455.98	4.581
456.34	3.475
456.69	4.644
457.04	3.369
457.39	4.213
457.74	4.139
458.09	4.174
458.44	4.849
458.79	3.559
459.14	4.300
459.49	4.131
459.84	4.250
460.19	3.443
460.54	4.656
460.89	4.606
461.24	3.391
461.59	4.206
461.94	3.822
462.29	4.255
462.64	4.406
462.99	3.641
463.34	3.764
463.69	4.455
464.04	4.892
464.39	3.756
464.74	3.877
465.09	4.441
465.44	4.775
465.79	4.865
466.14	3.960
466.49	4.211
466.84	3.912
467.19	3.757
467.54	4.348
467.89	3.448
468.24	4.321
468.59	3.706
468.94	3.904
469.29	3.719
469.64	3.814
469.99	3.250
470.34	3.960
470.68	3.281
471.03	4.060
471.38	3.205
471.73	3.641
472.08	3.553
472.43	3.913
472.78	3.841
473.13	3.413
473.48	3.625
473.83	4.005
474.17	3.927
474.52	3.127
474.87	5.039
475.22	4.282
475.57	3.738
475.92	4.131
476.27	4.952
476.61	4.361
476.96	3.650
477.31	4.703
477.66	4.460
478.01	4.270
478.36	4.187
478.70	4.384
479.05	3.885
479.40	4.097
479.75	5.091
480.10	4.027
480.45	4.330
480.79	4.172
481.14	4.825
481.49	4.134
481.84	4.439
482.19	4.688
482.53	5.072
482.88	4.386
483.23	4.269
483.58	4.323
483.92	3.989
484.27	4.996
484.62	4.620
484.97	5.171
485.31	4.717
485.66	4.726
486.01	4.451
486.36	4.791
486.70	5.250
487.05	5.408
487.40	5.038
487.75	5.369
488.09	5.776
488.44	5.456
488.79	5.363
489.13	5.250
489.48	4.738
489.83	3.863
490.17	4.415
490.52	4.639
490.87	4.569
491.22	4.333
491.56	4.863
491.91	4.928
492.26	4.500
492.60	4.722
492.95	4.520
493.30	4.437
493.64	4.249
493.99	4.386
494.34	4.268
494.68	4.925
495.03	4.361
495.37	4.616
495.72	4.535
496.07	4.908
496.41	4.590
496.76	4.754
497.11	5.096
497.45	4.661
497.80	5.153
498.14	4.354
498.49	4.825
498.84	3.976
499.18	4.498
499.53	4.843
499.87	4.440
500.22	3.874
500.56	4.184
500.91	4.073
501.26	4.636
501.60	4.419
501.95	5.384
502.29	4.212
502.64	4.722
502.98	4.487
503.33	3.888
503.67	4.317
504.02	4.729
504.36	4.379
504.71	3.904
505.06	4.957
505.40	4.479
505.75	4.508
506.09	4.604
506.44	4.689
506.78	4.587
507.13	4.979
507.47	5.258
507.82	4.972
508.16	3.776
508.51	3.938
508.85	4.440
509.19	4.832
509.54	4.803
509.88	4.565
510.23	4.565
510.57	5.172
510.92	4.064
511.26	4.425
511.61	3.621
511.95	4.441
512.30	5.022
512.64	4.098
512.98	4.252
513.33	4.839
513.67	4.539
514.02	3.679
514.36	4.297
514.70	4.792
515.05	4.536
515.39	4.987
515.74	5.090
516.08	4.490
516.42	4.396
516.77	3.943
517.11	4.126
517.46	4.401
517.80	4.917
518.14	4.733
518.49	5.098
518.83	4.258
519.17	4.416
519.52	5.031
519.86	4.224
520.20	4.473
520.55	4.381
520.89	4.786
521.23	4.355
521.58	4.915
521.92	4.419
522.26	4.009
522.61	3.762
522.95	4.210
523.29	4.483
523.64	4.260
523.98	4.678
524.32	5.272
524.66	4.895
525.01	3.794
525.35	4.997
525.69	4.988
526.04	4.018
526.38	4.425
526.72	4.556
527.06	4.223
527.41	4.606
527.75	4.810
528.09	4.664
528.43	4.263
528.78	4.335
529.12	3.956
529.46	4.384
529.80	4.577
530.15	4.116
530.49	4.626
530.83	5.018
531.17	4.002
531.51	4.091
531.86	4.507
532.20	4.390
532.54	4.488
532.88	4.364
533.22	4.714
533.57	4.905
533.91	4.938
534.25	4.183
534.59	4.425
534.93	4.358
535.27	4.507
535.62	5.287
535.96	4.881
536.30	4.113
536.64	4.565
536.98	5.228
537.32	4.753
537.66	4.304
538.01	4.109
538.35	4.507
538.69	4.748
539.03	4.414
539.37	4.711
539.71	4.505
540.05	5.216
540.39	4.523
540.73	4.493
541.07	4.353
541.42	3.957
541.76	3.440
542.10	4.704
542.44	3.654
542.78	4.988
543.12	4.589
543.46	5.067
543.80	4.017
544.14	4.668
544.48	5.201
544.82	4.847
545.16	4.770
545.50	4.314
545.84	4.715
546.18	5.185
546.52	4.586
546.86	4.717
547.20	4.453
547.54	4.245
547.88	4.340
548.22	3.977
548.56	4.857
548.90	4.418
549.24	4.377
549.58	4.543
549.92	3.890
550.26	5.178
550.60	4.531
550.94	4.657
551.28	4.884
551.62	4.784
551.96	4.207
552.30	5.099
552.64	4.605
552.98	4.803
553.32	4.566
553.66	4.373
554.00	5.296
554.34	4.955
554.68	4.067
555.02	4.271
555.36	4.536
555.69	3.523
556.03	4.477
556.37	4.881
556.71	4.692
557.05	4.984
557.39	4.910
557.73	4.293
558.07	4.834
558.41	4.252
558.75	4.260
559.08	4.941
559.42	3.841
559.76	4.274
560.10	3.885
560.44	4.420
560.78	5.062
561.12	4.865
561.45	4.805
561.79	4.823
562.13	4.313
562.47	4.562
562.81	4.430
563.15	4.672
563.48	4.661
563.82	4.293
564.16	4.300
564.50	4.172
564.84	4.661
565.17	5.412
565.51	5.121
565.85	4.751
566.19	4.032
566.52	4.564
566.86	5.093
567.20	5.003
567.54	4.514
567.88	5.250
568.21	5.237
568.55	4.652
568.89	4.812
569.23	5.450
569.56	5.236
569.90	5.132
570.24	4.722
570.57	4.779
570.91	4.930
571.25	4.975
571.59	5.817
571.92	5.251
572.26	5.109
572.60	5.569
572.93	5.566
573.27	5.591
573.61	5.161
573.95	5.560
574.28	5.536
574.62	5.298
574.96	5.117
575.29	5.354
575.63	5.405
575.97	5.653
576.30	5.798
576.64	5.416
576.98	5.444
577.31	5.519
577.65	5.489
577.98	5.535
578.32	5.056
578.66	5.390
578.99	5.263
579.33	5.425
579.67	5.644
580.00	5.484
580.34	5.454
580.67	5.097
581.01	5.539
581.35	5.494
581.68	5.306
582.02	5.358
582.35	5.804
582.69	5.371
583.02	5.831
583.36	5.566
583.70	5.590
584.03	5.424
584.37	5.826
584.70	5.672
585.04	5.348
585.37	5.192
585.71	5.458
586.04	5.394
586.38	5.176
586.72	4.813
587.05	5.040
587.39	5.410
587.72	5.407
588.06	5.392
588.39	5.825
588.73	5.159
589.06	5.474
589.40	5.101
589.73	5.270
590.07	5.305
590.40	5.646
590.73	5.302
591.07	4.914
591.40	4.977
591.74	5.564
592.07	5.481
592.41	5.087
592.74	5.005
593.08	5.127
593.41	5.395
593.75	5.057
594.08	4.938
594.41	5.321
594.75	5.247
595.08	4.879
595.42	5.455
595.75	5.554
596.09	5.557
596.42	5.518
596.75	5.635
597.09	5.455
597.42	5.046
597.75	4.939
598.09	5.595
598.42	5.348
598.76	4.585
599.09	4.984
599.42	5.028
599.76	5.150
600.09	5.439
600.42	5.405
600.76	4.723
601.09	5.509
601.42	5.218
601.76	5.517
602.09	5.039
602.42	5.089
602.76	5.203
603.09	4.736
603.42	5.094
603.76	4.757
604.09	5.784
604.42	5.505
604.76	4.833
605.09	4.906
605.42	5.742
605.75	4.731
606.09	4.666
606.42	4.706
606.75	5.097
607.09	5.069
607.42	5.434
607.75	4.767
608.08	4.854
608.42	4.837
608.75	5.638
609.08	4.669
609.41	4.632
609.75	4.955
610.08	5.321
610.41	4.460
610.74	5.882
611.07	4.663
611.41	5.516
611.74	5.266
612.07	4.956
612.40	4.895
612.73	4.499
613.07	5.086
613.40	5.197
613.73	5.007
614.06	4.711
614.39	4.713
614.72	4.706
615.06	4.427
615.39	5.075
615.72	4.882
616.05	5.002
616.38	4.642
616.71	5.068
617.05	4.473
617.38	4.655
617.71	4.428
618.04	4.587
618.37	4.372
618.70	5.317
619.03	3.763
619.36	4.994
619.69	3.972
620.03	5.085
620.36	3.926
620.69	3.886
621.02	4.790
621.35	4.790
621.68	4.917
622.01	4.342
622.34	4.254
622.67	4.948
623.00	3.239
623.33	4.910
623.66	4.150
623.99	4.147
624.32	5.588
624.65	3.411
624.99	4.941
625.32	5.160
625.65	4.113
625.98	3.797
626.31	4.748
626.64	5.201
626.97	3.526
627.30	3.189
627.63	4.276
627.96	5.255
628.29	3.035
628.62	3.191
628.95	2.892
629.28	2.974
629.61	3.956
629.94	3.515
630.26	3.729
630.59	3.972
630.92	3.463
631.25	4.651
631.58	3.578
631.91	3.280
632.24	3.939
632.57	3.226
632.90	2.608
633.23	3.265
633.56	3.776
633.89	1.550
634.22	4.262
634.55	3.445
634.88	4.113
635.20	4.198
635.53	2.147
635.86	4.550
636.19	4.666
636.52	3.165
636.85	2.656
637.18	3.326
637.51	3.441
637.83	4.430
638.16	2.304
638.49	2.817
638.82	4.171
639.15	2.635
639.48	2.887
639.81	3.811
640.13	4.005
640.46	1.212
640.79	2.696
641.12	3.975
641.45	2.635
641.77	5.006
642.10	3.018
642.43	3.324
642.76	1.897
643.09	2.055
643.41	1.261
643.74	2.897
644.07	4.000
644.40	1.980
644.73	0.726
645.05	2.643
645.38	2.158
645.71	2.933
646.04	3.300
646.36	2.920
646.69	2.147
647.02	2.905
647.35	3.511
647.67	2.738
648.00	2.707
648.33	1.802
648.66	2.710
648.98	2.449
649.31	2.842
649.64	3.187
649.96	2.785
650.29	1.530
650.62	1.273
650.94	1.502
651.27	0.150
651.60	1.462
651.92	-0.304
652.25	3.618
652.58	4.264
652.90	1.308
653.23	2.676
653.56	1.854
653.88	4.073
654.21	2.113
654.54	2.023
654.86	3.541
655.19	1.129
655.52	3.990
655.84	4.929
656.17	5.717
656.49	8.327
656.82	9.748
657.15	8.080
657.47	6.717
657.80	5.038
658.13	3.969
658.45	5.630
658.78	6.525
659.10	6.370
659.43	6.104
659.75	5.634
660.08	5.490
660.41	3.888
660.73	3.421
661.06	2.643
661.38	2.552
661.71	0.517
662.03	0.705
662.36	4.293
662.68	1.501
663.01	1.062
663.33	2.268
663.66	4.212
663.98	1.923
664.31	0.563
664.63	-0.963
664.96	2.722
665.28	-0.181
665.61	3.322
665.93	1.250
666.26	3.405
666.58	0.554
666.91	1.869
667.23	1.333
667.56	0.986
667.88	1.000
668.21	-1.953
668.53	-1.544
668.86	0.196
669.18	-0.611
669.50	0.795
669.83	-0.200
670.15	0.591
670.48	1.389
670.80	-0.382
671.13	2.079
671.45	-0.787
671.77	2.260
672.10	1.000
672.42	0.647
672.75	0.922
673.07	1.642
673.39	0.000
673.72	1.846
674.04	2.069
674.37	2.326
674.69	4.056
675.01	-0.381
675.34	-0.382
675.66	-0.562
675.98	2.612
676.31	1.953
676.63	1.901
676.95	1.724
677.28	-1.008
677.60	-0.984
677.92	0.768
678.25	1.280
678.57	1.601
678.89	3.754
679.22	-0.871
679.54	0.000
679.86	-0.169
680.18	0.332
680.51	2.044
680.83	3.110
681.15	1.897
681.48	0.691
681.80	1.036
682.12	1.923
682.44	0.334
682.77	-0.355
683.09	-0.189
683.41	2.519
683.73	0.190
684.06	2.030
684.38	-1.610
684.70	1.257
685.02	1.377
685.34	0.000
685.67	0.946
685.99	1.687
686.31	0.581
686.63	0.632
686.96	2.050
687.28	1.140
687.60	-0.842
687.92	0.322
688.24	2.671
688.56	1.034
688.89	3.448
689.21	1.174
689.53	-3.137
689.85	0.000
690.17	0.926
690.49	0.996
690.82	1.188
691.14	-0.607
691.46	1.912
691.78	2.210
692.10	0.550
692.42	0.893
692.74	0.000
693.06	-0.556
693.39	1.518
693.71	1.128
694.03	1.115
694.35	0.381
694.67	0.000
694.99	0.426
695.31	1.104
695.63	-0.216
695.95	0.207
696.27	-1.758
696.59	1.327
696.91	0.000
697.23	-0.220
697.56	-0.204
697.88	0.947
698.20	0.942
698.52	1.894
698.84	0.208
699.16	2.449
699.48	-1.255
699.80	-1.702
700.12	-1.310
700.44	-2.304
700.76	-0.475
701.08	0.242
701.40	-2.332
701.72	-1.990
702.04	-1.070
702.36	-1.832
702.68	-1.956
703.00	-0.733
703.32	-3.695
703.64	0.244
703.96	-1.671
704.28	-1.229
704.60	2.532
704.91	-3.316
705.23	-3.836
705.55	0.000
705.87	0.606
706.19	-0.613
706.51	-4.217
706.83	-4.035
707.15	-2.910
707.47	-0.701
707.79	-1.747
708.11	-1.907
708.43	-2.581
708.74	-1.786
709.06	-0.928
709.38	1.174
709.70	0.496
710.02	-2.326
710.34	-1.596
710.66	-3.631
710.98	-3.279
711.29	-4.121
711.61	-5.085
711.93	-2.564
712.25	-0.541
712.57	0.295
712.89	1.471
713.20	-3.550
713.52	-0.578
713.84	-5.014
714.16	-1.842
714.48	-1.289
714.80	-0.779
715.11	-1.837
715.43	-1.326
715.75	0.000
716.07	-4.696
716.39	-0.820
716.70	-2.410
717.02	-3.279
717.34	-6.620
717.66	-5.369
717.97	-5.822
718.29	-7.904
718.61	-6.579
718.93	-1.618
719.24	-0.932
719.56	-3.067
719.88	-3.003
720.20	-4.194
720.51	-3.727
720.83	-6.875
721.15	-2.303
721.46	-7.877
721.78	-4.333
722.10	-4.854
722.42	-8.054
722.73	-5.161
723.05	-8.421
723.37	-2.431
723.68	-1.434
724.00	-5.054
724.32	-7.042
724.63	-4.895
724.95	-3.191
725.27	-6.969
725.58	-8.481
725.90	-4.138
726.22	-1.881
726.53	-2.273
726.85	-3.145
727.16	-3.625
727.48	0.000
727.80	-4.305
728.11	-4.947
728.43	-4.377
728.74	-3.010
729.06	-5.298
729.38	-2.597
729.69	-4.362
730.01	-2.381
730.32	-7.576
730.64	-5.031
730.96	-4.969
731.27	-2.514
731.59	-1.923
731.90	-3.117
732.22	-3.385
732.53	-4.420
732.85	-2.857
733.16	-2.933
733.48	-7.927
733.80	-3.621
734.11	-4.843
734.43	-2.162
734.74	0.759
735.06	-4.020
735.37	-1.351
735.69	-1.892
736.00	-3.107
736.32	-0.809
736.63	-2.500
736.95	-4.598
737.26	-3.636
737.58	-5.758
737.89	-2.353
738.21	-5.199
738.52	-6.885
738.83	-3.413
739.15	-5.319
739.46	-5.102
739.78	-3.374
740.09	-4.871
740.41	-2.332
740.72	-7.333
741.04	-3.883
741.35	-2.456
741.66	-6.667
741.98	-3.689
742.29	-5.439
742.61	-5.263
742.92	-3.846
743.23	-0.361
743.55	-3.101
743.86	-8.000
744.18	-13.636
744.49	-10.549
744.80	-5.761
745.12	-7.173
745.43	-7.317
745.74	-10.776
746.06	-7.203
746.37	-6.329
746.68	-4.878
747.00	-8.750
747.31	-7.725
747.62	-6.154
747.94	-8.097
748.25	-10.442
748.56	-6.531
748.88	-11.111
749.19	-3.017
749.50	-8.658
749.82	-2.811
750.13	-4.982
750.44	-7.667
750.75	-3.077
751.07	-3.692
751.38	-4.101
751.69	-4.153
752.01	-5.825
752.32	-3.922
752.63	-6.803
752.94	-5.882
753.26	-6.320
753.57	-9.630
753.88	-9.738
754.19	-1.929
754.51	-2.572
754.82	-3.215
755.13	-4.590
755.44	-5.802
755.75	-5.592
756.07	-0.597
756.38	-5.660
756.69	1.205
757.00	-5.540
757.31	-3.552
757.63	-5.371
757.94	-3.521
758.25	-0.226
758.56	-1.089
758.87	-0.682
759.18	-1.600
759.50	-2.266
759.81	-3.081
760.12	-2.965
760.43	0.260
760.74	-3.202
761.05	-2.000
761.36	-3.614
761.67	-5.076
761.99	-2.973
762.30	-5.488
762.61	-8.911
762.92	-7.463
763.23	-5.243
763.54	-2.158
763.85	-4.811
764.16	-5.387
764.47	-1.761
764.78	-4.153
765.10	-3.812
765.41	-0.769
765.72	-5.026
766.03	-2.542
766.34	-6.897
766.65	-9.408
766.96	-9.960
767.27	-10.599
767.58	-14.428
767.89	-4.808
768.20	-11.268
768.51	-7.870
768.82	-4.016
769.13	-6.439
769.44	-13.462
769.75	-1.805
770.06	-5.769
770.37	-5.118
770.68	-10.638
770.99	-10.121
771.30	-3.333
771.61	-6.464
771.92	-7.778
772.23	-4.858
772.54	-10.648
772.85	-7.834
773.16	-7.143
773.47	-15.873
773.78	-15.135
774.09	-6.818
774.39	-3.000
774.70	-9.836
775.01	-17.683
775.32	-16.471
775.63	-12.270
775.94	-20.382
776.25	-12.903
776.56	-7.051
776.87	-11.565
777.18	-12.414
777.48	-15.385
777.79	-11.486
778.10	-24.265
778.41	-11.806
778.72	-11.724
779.03	-12.963
779.34	-15.152
779.65	-7.254
779.95	-10.000
780.26	-10.795
780.57	-13.548
780.88	-15.217
781.19	-10.323
781.50	-8.824
781.80	-10.215
782.11	-8.466
782.42	-14.141
782.73	-18.563
783.04	-11.732
783.34	-17.576
783.65	-16.993
783.96	-16.149
784.27	-11.310
784.57	-12.583
784.88	-17.143
785.19	-27.559
785.50	-23.622
785.81	-12.030
786.11	-16.923
786.42	-22.302
786.73	-20.144
787.04	-16.541
787.34	-18.852
787.65	-19.200
787.96	-20.896
788.26	-10.490
788.57	-10.490
788.88	-18.421
789.19	-10.458
789.49	-14.384
789.80	-13.475
790.11	-18.898
790.41	-18.750
790.72	-16.102
791.03	-26.214
791.33	-24.348
791.64	-25.439
791.95	-25.000
792.25	-13.333
792.56	-22.321
792.87	-34.375
793.17	-15.179
793.48	-28.125
793.79	-40.964
794.09	-27.523
794.40	-26.606
794.70	-12.925
795.01	-18.182
795.32	-21.918
795.62	-14.789
795.93	-16.667
796.23	-15.574
796.54	-31.250
796.85	-34.043
797.15	-29.348
797.46	-45.205
797.76	-43.750
798.07	-23.913
798.37	-31.959
798.68	-31.169
798.99	-32.184
799.29	-42.697
799.60	-19.149
799.90	-38.554
800.21	-67.692
800.51	-50.746
800.82	-38.235
801.12	-49.315
801.43	-52.941
801.73	-52.542
802.04	-45.455
802.34	-51.667
802.65	-52.542
802.95	-38.806
803.26	-40.678
803.56	-42.466
803.87	-34.286
804.17	-28.767
804.48	-75.439
804.78	-37.500
805.09	-72.414
805.39	-40.541
805.70	-57.746
806.00	-32.927
806.30	-33.735
806.61	-34.247
806.91	-29.808
807.22	-36.667
807.52	-36.782
807.83	-40.278
808.13	-32.530
808.43	-29.213
808.74	-37.500
809.04	-57.353
809.35	-49.333
809.65	-47.143
809.95	-32.877
810.26	-68.421
810.56	-53.448
810.86	-38.235
811.17	-40.351
811.47	-59.016
811.77	-93.333
812.08	-47.458
812.38	-58.333
812.69	-44.828
812.99	-67.925
813.29	-94.872
813.59	-44.000
813.90	-35.088
814.20	-58.182
814.50	-29.577
814.81	-32.051
815.11	-39.344
815.41	-47.761
815.72	-39.655
816.02	-51.786
816.32	-73.333
816.62	-63.636
816.93	-71.111
817.23	-22.222
817.53	-74.468
817.84	-54.762
818.14	-82.353
818.44	-32.653
818.74	-57.778
819.04	-74.359
819.35	-88.571
819.65	-150.000
819.95	-62.264
820.25	-44.444
820.56	-54.762
820.86	-100.000
821.16	-107.692
821.46	-90.698
821.76	-82.000
822.07	-39.286
822.37	-65.217
822.67	-61.702
822.97	-105.405
823.27	-65.000
823.57	-44.898
823.88	-46.667
824.18	-70.000
824.48	-113.333
824.78	-168.000
825.08	-90.909
825.38	-51.111
825.69	-61.702
825.99	-77.778
826.29	-108.571
826.59	-84.615
826.89	-79.070
827.19	-64.000
827.49	-82.353
827.79	-50.000
828.09	-108.108
828.39	-123.333
828.70	-107.317
829.00	-58.140
829.30	-128.571
829.60	-79.412
829.90	-82.609
830.20	-108.571
830.50	-141.379
830.80	-172.222
831.10	-107.692
831.40	-91.176
831.70	-161.905
832.00	-87.097
832.30	-223.529
832.60	-141.667
832.90	-338.462
833.20	-200.000
833.50	-205.000
833.80	-184.211
834.10	-209.524
834.40	-66.667
834.70	-87.500
835.00	-120.000
835.30	-76.471
835.60	-103.333
835.90	-132.000
836.20	-181.818
836.50	-88.000
836.80	-109.091
837.10	-111.111
837.40	-114.815
837.70	-225.000
838.00	-96.429
838.30	-156.522
838.60	-103.448
838.90	-185.714
839.19	-200.000
839.49	-266.667
839.79	-139.130
840.09	-250.000
840.39	-155.000
840.69	-70.968
840.99	-117.857
841.29	-273.333
841.59	-194.737
841.88	-69.231
842.18	-150.000
842.48	-400.000
842.78	-185.000
843.08	-110.000
843.38	-106.452
843.68	-222.222
843.97	-58.824
844.27	-150.000
844.57	-157.895
844.87	-300.000
845.17	-180.000
845.47	-138.095
845.76	-180.952
846.06	-411.111
846.36	-229.412
846.66	-88.462
846.96	-246.667
847.25	-176.471
847.55	-113.043
847.85	-190.000
848.15	-229.412
848.44	-345.455
848.74	-171.429
849.04	-133.333
849.34	-206.250
849.63	-160.870
849.93	1850.000
850.23	-220.000
850.53	-80.769
850.82	-345.455
851.12	-86.364
851.42	-327.273
851.71	-200.000
852.01	-200.000
852.31	-269.231
852.61	-142.105
852.90	-283.333
853.20	-144.444
853.50	-500.000
853.79	-185.714
854.09	-168.182
854.39	-366.667
854.68	-119.355
854.98	-126.923
855.28	-133.333
855.57	-132.143
855.87	-132.000
856.17	-118.182
856.46	-103.704
856.76	-177.778
857.05	-182.609
857.35	-162.500
857.65	-238.462
857.94	-133.333
858.24	-96.296
858.53	-86.957
858.83	-141.176
859.13	-217.647
859.42	-194.118
859.72	-192.857
860.01	-175.000
860.31	-388.889
860.60	-340.000
860.90	-213.333
861.20	-194.444
861.49	-269.231
861.79	-93.333
862.08	-300.000
862.38	-75.000
862.67	-188.235
862.97	-225.000
863.26	-400.000
863.56	-280.000
863.85	-327.273
864.15	-144.444
864.44	-933.333
864.74	-214.286
865.03	-100.000
865.33	-410.000
865.62	-77.419
865.92	-90.909
866.21	-126.087
866.51	-271.429
866.80	-860.000
867.10	-291.667
867.39	-266.667
867.69	3800.000
867.98	-342.857
868.27	-158.824
868.57	-4100.000
868.86	-410.000
869.16	-185.714
869.45	-150.000
869.75	-218.182
870.04	-528.571
870.33	-275.000
870.63	-600.000
870.92	-725.000
871.22	-562.500
871.51	-318.182
871.80	-1566.667
872.10	-2000.000
>>>>>End Processed Spectral Data<<<<<
