SpectraSuite Data File
++++++++++++++++++++++++++++++++++++
Date: Thu May 14 16:33:18 PDT 2015
User: schluterlab
Dark Spectrum Present: Yes
Reference Spectrum Present: Yes
Number of Sampled Component Spectra: 1
Spectrometers: USB2E3373
Integration Time (usec): 3000 (USB2E3373)
Spectra Averaged: 3 (USB2E3373)
Boxcar Smoothing: 0 (USB2E3373)
Correct for Electrical Dark: No (USB2E3373)
Strobe/Lamp Enabled: No (USB2E3373)
Correct for Detector Non-linearity: No (USB2E3373)
Correct for Stray Light: No (USB2E3373)
Number of Pixels in Processed Spectrum: 2048
>>>>>Begin Processed Spectral Data<<<<<
178.53	0.000
178.91	-28.571
179.29	-600.000
179.67	-200.000
180.04	142.857
180.42	-20.000
180.80	160.000
181.18	-200.000
181.56	300.000
181.94	-0.000
182.31	75.000
182.69	-33.333
183.07	300.000
183.45	250.000
183.83	33.333
184.20	0.000
184.58	-100.000
184.96	-275.000
185.34	-55.556
185.72	-60.000
186.09	144.444
186.47	50.000
186.85	80.000
187.23	-133.333
187.61	-500.000
187.98	140.000
188.36	25.000
188.74	-125.000
189.12	-266.667
189.49	56.250
189.87	-75.000
190.25	66.667
190.63	40.000
191.00	-44.444
191.38	0.000
191.76	-75.000
192.14	-100.000
192.51	150.000
192.89	100.000
193.27	0.000
193.65	-57.143
194.02	-600.000
194.40	-85.714
194.78	157.143
195.15	0.000
195.53	-36.364
195.91	0.000
196.29	-50.000
196.66	7.692
197.04	-900.000
197.42	-42.857
197.79	0.000
198.17	-62.500
198.55	0.000
198.92	0.000
199.30	-175.000
199.68	-9.091
200.05	28.571
200.43	-500.000
200.81	85.714
201.18	0.000
201.56	177.778
201.94	0.000
202.31	100.000
202.69	-155.556
203.07	200.000
203.44	-11.111
203.82	0.000
204.19	33.333
204.57	16.667
204.95	-62.500
205.32	-700.000
205.70	50.000
206.08	-166.667
206.45	16.667
206.83	400.000
207.20	-150.000
207.58	-120.000
207.96	-50.000
208.33	183.333
208.71	16.667
209.08	66.667
209.46	0.000
209.84	133.333
210.21	-150.000
210.59	-200.000
210.96	266.667
211.34	75.000
211.71	-75.000
212.09	-800.000
212.46	0.000
212.84	650.000
213.22	-300.000
213.59	-150.000
213.97	-20.000
214.34	-66.667
214.72	183.333
215.09	-75.000
215.47	0.000
215.84	-114.286
216.22	250.000
216.59	-60.000
216.97	-60.000
217.34	-250.000
217.72	-12.500
218.09	-200.000
218.47	-250.000
218.84	0.000
219.22	160.000
219.59	0.000
219.97	5.000
220.34	-0.000
220.72	-44.444
221.09	84.615
221.47	133.333
221.84	10.000
222.22	-114.286
222.59	0.000
222.97	12.500
223.34	-240.000
223.72	400.000
224.09	-250.000
224.46	-125.000
224.84	140.000
225.21	-57.143
225.59	-300.000
225.96	-200.000
226.34	30.769
226.71	300.000
227.08	-200.000
227.46	26.667
227.83	50.000
228.21	15.789
228.58	75.000
228.95	350.000
229.33	133.333
229.70	-100.000
230.08	10.526
230.45	120.000
230.82	133.333
231.20	-7.143
231.57	0.000
231.95	-45.455
232.32	9.091
232.69	25.000
233.07	-200.000
233.44	17.647
233.81	-50.000
234.19	11.111
234.56	0.000
234.93	48.276
235.31	-21.053
235.68	5.556
236.05	-45.000
236.43	0.000
236.80	28.000
237.17	-7.407
237.55	12.121
237.92	-160.000
238.29	-22.581
238.67	-6.818
239.04	-5.556
239.41	-2.381
239.79	-17.391
240.16	-7.407
240.53	17.391
240.91	-3.922
241.28	-6.557
241.65	0.000
242.02	16.216
242.40	-4.615
242.77	-2.667
243.14	0.000
243.51	-10.526
243.89	-15.385
244.26	1.980
244.63	-5.882
245.00	-3.738
245.38	-0.877
245.75	-3.540
246.12	3.968
246.49	-10.853
246.87	1.429
247.24	4.636
247.61	-3.947
247.98	0.000
248.36	1.852
248.73	-14.110
249.10	0.000
249.47	5.473
249.84	3.665
250.22	-4.145
250.59	2.222
250.96	2.727
251.33	-2.551
251.70	5.128
252.08	0.833
252.45	5.738
252.82	0.000
253.19	-1.172
253.56	-0.380
253.94	-2.308
254.31	-1.894
254.68	1.748
255.05	2.280
255.42	0.680
255.79	-0.971
256.16	-1.987
256.54	-1.987
256.91	-1.967
257.28	-3.934
257.65	-3.822
258.02	-1.770
258.39	4.274
258.76	3.976
259.14	1.437
259.51	0.000
259.88	-0.283
260.25	0.278
260.62	2.466
260.99	1.093
261.36	-0.536
261.73	-1.061
262.10	-1.374
262.47	-0.804
262.85	4.798
263.22	-2.338
263.59	-1.842
263.96	0.512
264.33	0.256
264.70	0.247
265.07	3.341
265.44	2.948
265.81	-0.231
266.18	0.907
266.55	3.348
266.92	-3.189
267.29	1.094
267.66	0.443
268.03	2.183
268.40	1.253
268.77	-2.050
269.14	-2.643
269.51	0.000
269.88	2.254
270.25	0.000
270.62	1.899
270.99	3.232
271.36	3.960
271.73	-0.589
272.10	2.004
272.47	1.002
272.84	1.004
273.21	0.802
273.58	-0.605
273.95	-0.577
274.32	0.000
274.69	0.000
275.06	1.099
275.43	-0.370
275.80	2.646
276.17	-0.370
276.54	-1.119
276.91	-0.537
277.28	1.447
277.65	-0.539
278.02	2.206
278.39	0.000
278.76	-1.933
279.13	1.418
279.50	1.546
279.87	0.358
280.23	-2.641
280.60	1.186
280.97	1.151
281.34	0.679
281.71	1.861
282.08	0.498
282.45	0.000
282.82	-0.157
283.19	-1.777
283.56	-0.820
283.92	0.300
284.29	1.896
284.66	0.657
285.03	-0.801
285.40	0.773
285.77	1.084
286.14	0.153
286.51	0.000
286.87	0.790
287.24	1.205
287.61	-0.747
287.98	-0.604
288.35	0.148
288.72	0.888
289.08	1.464
289.45	0.000
289.82	1.054
290.19	1.006
290.56	1.972
290.93	0.285
291.29	0.275
291.66	0.689
292.03	0.543
292.40	1.905
292.77	0.404
293.13	2.165
293.50	0.131
293.87	0.134
294.24	1.467
294.60	1.264
294.97	-0.537
295.34	3.073
295.71	0.883
296.08	0.904
296.44	1.348
296.81	1.340
297.18	0.872
297.55	0.825
297.91	1.661
298.28	0.000
298.65	1.546
299.02	0.590
299.38	2.174
299.75	2.336
300.12	1.505
300.48	0.576
300.85	2.812
301.22	2.125
301.59	1.142
301.95	1.582
302.32	2.667
302.69	2.519
303.05	2.067
303.42	2.217
303.79	0.833
304.15	1.893
304.52	0.846
304.89	2.513
305.25	1.449
305.62	1.881
305.99	2.268
306.35	0.806
306.72	1.655
307.09	1.523
307.45	2.899
307.82	2.220
308.19	1.715
308.55	3.086
308.92	2.337
309.29	3.831
309.65	1.072
310.02	1.782
310.38	2.264
310.75	1.942
311.12	3.931
311.48	2.346
311.85	2.659
312.22	3.226
312.58	3.850
312.95	2.103
313.31	2.620
313.68	3.571
314.05	4.968
314.41	4.372
314.78	3.996
315.14	3.539
315.51	3.693
315.87	4.680
316.24	3.562
316.61	4.352
316.97	4.344
317.34	3.351
317.70	4.803
318.07	3.880
318.43	5.102
318.80	5.435
319.16	4.721
319.53	4.199
319.89	4.820
320.26	5.516
320.62	4.610
320.99	4.801
321.35	4.251
321.72	5.860
322.08	5.410
322.45	5.691
322.81	5.054
323.18	4.956
323.54	5.517
323.91	5.605
324.27	5.336
324.64	6.885
325.00	5.638
325.37	6.470
325.73	5.868
326.10	5.596
326.46	6.922
326.83	6.725
327.19	6.614
327.56	6.166
327.92	6.216
328.29	5.887
328.65	6.784
329.01	5.838
329.38	7.329
329.74	6.678
330.11	5.908
330.47	6.066
330.84	5.426
331.20	6.750
331.56	5.546
331.93	6.444
332.29	5.254
332.66	6.977
333.02	6.198
333.38	6.460
333.75	6.313
334.11	6.672
334.48	6.848
334.84	7.392
335.20	5.458
335.57	6.577
335.93	6.777
336.29	5.491
336.66	5.214
337.02	5.602
337.38	7.398
337.75	6.612
338.11	5.719
338.47	6.782
338.84	5.753
339.20	5.476
339.56	6.260
339.93	5.665
340.29	6.602
340.65	6.002
341.02	6.943
341.38	7.437
341.74	4.923
342.11	6.275
342.47	5.083
342.83	6.522
343.20	6.051
343.56	5.854
343.92	5.364
344.28	6.172
344.65	6.667
345.01	6.708
345.37	5.754
345.73	5.456
346.10	6.552
346.46	4.984
346.82	6.592
347.19	6.341
347.55	6.677
347.91	5.944
348.27	5.766
348.63	6.169
349.00	6.413
349.36	6.394
349.72	6.622
350.08	5.869
350.45	4.487
350.81	5.732
351.17	5.789
351.53	5.914
351.89	6.074
352.26	5.672
352.62	5.597
352.98	5.420
353.34	5.302
353.70	6.009
354.07	7.004
354.43	5.695
354.79	6.208
355.15	5.740
355.51	6.213
355.87	5.684
356.24	5.627
356.60	5.691
356.96	4.596
357.32	5.130
357.68	5.783
358.04	5.464
358.40	5.597
358.77	5.848
359.13	4.431
359.49	4.312
359.85	6.381
360.21	5.811
360.57	5.025
360.93	6.206
361.29	6.035
361.66	4.924
362.02	6.402
362.38	5.060
362.74	5.866
363.10	4.814
363.46	5.540
363.82	5.114
364.18	5.841
364.54	4.979
364.90	5.351
365.26	4.621
365.62	5.600
365.98	5.106
366.35	5.570
366.71	6.259
367.07	5.074
367.43	6.500
367.79	5.839
368.15	5.953
368.51	5.616
368.87	5.421
369.23	6.067
369.59	5.669
369.95	5.612
370.31	6.685
370.67	5.777
371.03	5.402
371.39	4.903
371.75	5.502
372.11	5.759
372.47	5.619
372.83	6.610
373.19	6.271
373.55	5.081
373.91	5.930
374.27	6.080
374.63	5.683
374.99	5.371
375.35	6.169
375.71	6.194
376.07	5.552
376.42	6.423
376.78	6.339
377.14	6.488
377.50	6.009
377.86	5.727
378.22	6.826
378.58	5.767
378.94	5.869
379.30	6.210
379.66	5.761
380.02	6.636
380.38	5.876
380.74	6.085
381.09	5.633
381.45	6.420
381.81	7.377
382.17	6.770
382.53	6.257
382.89	6.433
383.25	7.034
383.61	5.266
383.97	5.889
384.32	6.519
384.68	5.916
385.04	6.420
385.40	7.130
385.76	7.034
386.12	6.164
386.48	6.882
386.83	6.973
387.19	6.025
387.55	6.221
387.91	6.393
388.27	6.755
388.62	6.987
388.98	6.543
389.34	6.953
389.70	6.450
390.06	7.282
390.42	5.964
390.77	6.924
391.13	7.042
391.49	7.065
391.85	6.061
392.20	6.821
392.56	7.324
392.92	7.197
393.28	7.076
393.64	6.816
393.99	7.147
394.35	6.776
394.71	7.006
395.07	6.287
395.42	7.139
395.78	7.434
396.14	7.427
396.50	6.354
396.85	7.394
397.21	6.864
397.57	7.244
397.92	7.388
398.28	6.247
398.64	6.865
399.00	6.335
399.35	7.068
399.71	7.065
400.07	7.412
400.42	7.101
400.78	6.829
401.14	6.545
401.49	7.504
401.85	6.512
402.21	7.706
402.57	7.394
402.92	7.388
403.28	6.499
403.63	6.563
403.99	7.067
404.35	7.277
404.70	6.969
405.06	7.120
405.42	7.026
405.77	7.688
406.13	7.185
406.49	6.813
406.84	7.812
407.20	6.819
407.55	7.087
407.91	6.914
408.27	7.303
408.62	7.621
408.98	8.009
409.34	6.979
409.69	7.973
410.05	7.972
410.40	6.323
410.76	7.403
411.11	7.890
411.47	7.555
411.83	7.172
412.18	7.349
412.54	7.825
412.89	7.858
413.25	7.901
413.60	7.007
413.96	8.625
414.31	7.422
414.67	8.110
415.03	7.138
415.38	6.368
415.74	7.758
416.09	7.465
416.45	7.952
416.80	7.344
417.16	8.046
417.51	7.908
417.87	8.093
418.22	8.204
418.58	7.373
418.93	8.556
419.29	6.905
419.64	6.843
420.00	7.240
420.35	7.805
420.71	7.467
421.06	6.613
421.42	7.913
421.77	7.539
422.12	7.717
422.48	7.783
422.83	7.229
423.19	7.851
423.54	8.020
423.90	7.731
424.25	7.253
424.61	7.176
424.96	7.743
425.31	8.599
425.67	7.300
426.02	7.084
426.38	7.750
426.73	7.422
427.09	8.708
427.44	7.209
427.79	7.518
428.15	8.162
428.50	7.921
428.85	7.463
429.21	8.138
429.56	7.799
429.92	7.961
430.27	7.759
430.62	7.865
430.98	8.018
431.33	7.527
431.68	7.232
432.04	8.126
432.39	7.874
432.74	7.763
433.10	7.409
433.45	7.302
433.80	7.833
434.16	7.748
434.51	7.040
434.86	7.709
435.22	7.439
435.57	7.960
435.92	7.234
436.28	7.509
436.63	8.465
436.98	7.729
437.34	7.384
437.69	7.980
438.04	7.615
438.39	7.180
438.75	7.416
439.10	8.721
439.45	7.937
439.81	8.079
440.16	7.346
440.51	8.027
440.86	8.004
441.22	8.199
441.57	7.862
441.92	8.293
442.27	7.475
442.63	7.650
442.98	7.791
443.33	8.206
443.68	8.722
444.03	8.702
444.39	8.044
444.74	7.912
445.09	7.805
445.44	7.429
445.79	7.950
446.15	8.016
446.50	8.424
446.85	7.782
447.20	8.124
447.55	8.107
447.91	7.696
448.26	7.611
448.61	7.705
448.96	9.013
449.31	7.847
449.66	7.516
450.02	7.806
450.37	8.737
450.72	8.288
451.07	7.859
451.42	7.972
451.77	7.727
452.12	8.409
452.47	7.605
452.83	8.559
453.18	7.998
453.53	7.352
453.88	7.896
454.23	8.079
454.58	8.009
454.93	7.403
455.28	8.429
455.63	8.698
455.98	7.709
456.34	7.892
456.69	8.230
457.04	7.329
457.39	8.149
457.74	7.662
458.09	7.414
458.44	8.297
458.79	7.581
459.14	8.652
459.49	8.036
459.84	7.555
460.19	7.551
460.54	7.893
460.89	7.994
461.24	7.931
461.59	7.914
461.94	7.074
462.29	8.231
462.64	7.966
462.99	7.470
463.34	7.852
463.69	8.148
464.04	8.060
464.39	7.904
464.74	8.096
465.09	7.612
465.44	8.423
465.79	8.673
466.14	7.660
466.49	8.526
466.84	7.273
467.19	8.266
467.54	7.109
467.89	7.586
468.24	8.698
468.59	6.891
468.94	7.692
469.29	7.618
469.64	6.993
469.99	7.138
470.34	7.611
470.68	7.997
471.03	8.055
471.38	8.502
471.73	7.412
472.08	8.376
472.43	7.887
472.78	8.501
473.13	7.775
473.48	8.399
473.83	8.358
474.17	8.030
474.52	7.998
474.87	8.583
475.22	8.732
475.57	8.463
475.92	7.815
476.27	8.200
476.61	8.671
476.96	7.404
477.31	8.812
477.66	8.552
478.01	7.778
478.36	8.275
478.70	7.389
479.05	8.129
479.40	7.897
479.75	8.213
480.10	8.953
480.45	7.748
480.79	7.846
481.14	7.996
481.49	7.769
481.84	8.268
482.19	7.957
482.53	7.871
482.88	8.019
483.23	7.514
483.58	7.555
483.92	7.668
484.27	7.155
484.62	7.508
484.97	7.659
485.31	7.216
485.66	7.318
486.01	7.775
486.36	7.699
486.70	8.253
487.05	8.281
487.40	7.871
487.75	7.608
488.09	7.608
488.44	7.830
488.79	7.892
489.13	8.074
489.48	7.417
489.83	6.962
490.17	7.047
490.52	8.005
490.87	7.445
491.22	7.539
491.56	7.551
491.91	8.024
492.26	7.572
492.60	7.827
492.95	7.591
493.30	7.665
493.64	7.884
493.99	7.500
494.34	7.230
494.68	7.366
495.03	7.313
495.37	7.679
495.72	6.803
496.07	6.968
496.41	6.993
496.76	7.423
497.11	7.389
497.45	7.380
497.80	7.685
498.14	7.710
498.49	8.042
498.84	7.587
499.18	7.917
499.53	7.758
499.87	7.692
500.22	6.589
500.56	7.063
500.91	8.009
501.26	7.273
501.60	6.407
501.95	7.034
502.29	7.635
502.64	7.608
502.98	7.506
503.33	7.516
503.67	7.370
504.02	6.918
504.36	7.685
504.71	7.120
505.06	7.594
505.40	7.267
505.75	7.423
506.09	7.551
506.44	7.846
506.78	7.844
507.13	7.699
507.47	7.342
507.82	7.670
508.16	6.788
508.51	7.079
508.85	7.794
509.19	7.579
509.54	7.397
509.88	6.654
510.23	7.431
510.57	8.072
510.92	7.402
511.26	7.456
511.61	7.050
511.95	7.272
512.30	7.386
512.64	7.196
512.98	7.754
513.33	7.208
513.67	8.006
514.02	7.358
514.36	7.315
514.70	6.406
515.05	7.195
515.39	7.297
515.74	7.688
516.08	7.290
516.42	7.797
516.77	7.624
517.11	7.169
517.46	7.317
517.80	8.177
518.14	7.889
518.49	7.755
518.83	7.344
519.17	6.839
519.52	7.390
519.86	7.392
520.20	7.774
520.55	7.393
520.89	7.883
521.23	7.091
521.58	7.119
521.92	6.912
522.26	7.216
522.61	7.234
522.95	7.093
523.29	6.954
523.64	7.287
523.98	7.188
524.32	7.335
524.66	7.228
525.01	7.078
525.35	6.663
525.69	6.961
526.04	7.348
526.38	7.241
526.72	7.382
527.06	7.097
527.41	6.764
527.75	7.304
528.09	7.261
528.43	7.697
528.78	7.110
529.12	6.995
529.46	7.589
529.80	7.208
530.15	7.652
530.49	6.762
530.83	7.025
531.17	6.631
531.51	7.581
531.86	6.911
532.20	7.927
532.54	7.600
532.88	6.545
533.22	7.543
533.57	7.155
533.91	7.744
534.25	7.066
534.59	7.414
534.93	6.678
535.27	6.873
535.62	8.016
535.96	7.554
536.30	7.227
536.64	7.147
536.98	7.196
537.32	7.099
537.66	6.675
538.01	6.888
538.35	6.577
538.69	6.851
539.03	6.438
539.37	7.303
539.71	7.267
540.05	6.894
540.39	6.663
540.73	6.618
541.07	6.683
541.42	6.320
541.76	6.821
542.10	6.634
542.44	6.029
542.78	7.299
543.12	7.032
543.46	6.716
543.80	5.875
544.14	6.284
544.48	6.087
544.82	7.121
545.16	6.559
545.50	6.711
545.84	6.675
546.18	6.914
546.52	6.497
546.86	6.415
547.20	5.916
547.54	6.679
547.88	6.028
548.22	6.433
548.56	6.905
548.90	6.328
549.24	7.234
549.58	6.435
549.92	5.995
550.26	6.537
550.60	6.573
550.94	6.210
551.28	6.865
551.62	6.267
551.96	5.955
552.30	7.011
552.64	7.032
552.98	5.989
553.32	6.109
553.66	6.752
554.00	5.864
554.34	6.371
554.68	6.262
555.02	6.570
555.36	5.786
555.69	6.150
556.03	5.864
556.37	7.259
556.71	5.644
557.05	6.262
557.39	4.910
557.73	6.209
558.07	5.894
558.41	6.512
558.75	5.950
559.08	5.706
559.42	4.733
559.76	6.038
560.10	6.095
560.44	5.607
560.78	6.625
561.12	6.158
561.45	5.718
561.79	6.166
562.13	6.531
562.47	5.487
562.81	5.759
563.15	5.934
563.48	5.780
563.82	5.925
564.16	5.512
564.50	5.602
564.84	5.664
565.17	6.294
565.51	5.696
565.85	6.176
566.19	4.839
566.52	5.559
566.86	5.603
567.20	5.927
567.54	5.629
567.88	5.199
568.21	5.583
568.55	5.324
568.89	5.810
569.23	6.295
569.56	5.705
569.90	6.058
570.24	5.700
570.57	5.484
570.91	5.358
571.25	5.785
571.59	5.817
571.92	5.304
572.26	5.823
572.60	5.487
572.93	5.594
573.27	5.451
573.61	5.823
573.95	5.827
574.28	6.097
574.62	5.184
574.96	5.470
575.29	5.376
575.63	5.544
575.97	5.557
576.30	5.231
576.64	5.202
576.98	5.490
577.31	5.694
577.65	5.283
577.98	5.196
578.32	5.166
578.66	5.334
578.99	5.284
579.33	5.247
579.67	5.417
580.00	5.102
580.34	5.585
580.67	5.185
581.01	5.106
581.35	5.572
581.68	5.235
582.02	5.423
582.35	5.377
582.69	5.234
583.02	5.214
583.36	5.381
583.70	5.022
584.03	5.400
584.37	5.159
584.70	5.306
585.04	5.208
585.37	5.082
585.71	5.351
586.04	5.196
586.38	5.130
586.72	4.738
587.05	4.682
587.39	4.837
587.72	4.904
588.06	5.343
588.39	4.954
588.73	4.921
589.06	4.910
589.40	5.009
589.73	5.013
590.07	5.040
590.40	4.902
590.73	4.878
591.07	5.212
591.40	4.510
591.74	4.769
592.07	5.644
592.41	4.614
592.74	5.041
593.08	5.191
593.41	5.162
593.75	4.741
594.08	5.089
594.41	4.968
594.75	4.417
595.08	4.744
595.42	4.870
595.75	4.714
596.09	5.252
596.42	4.729
596.75	5.095
597.09	5.051
597.42	4.370
597.75	5.057
598.09	4.841
598.42	5.107
598.76	3.898
599.09	4.735
599.42	5.364
599.76	4.853
600.09	4.972
600.42	5.072
600.76	4.425
601.09	4.580
601.42	4.806
601.76	4.828
602.09	4.646
602.42	4.362
602.76	4.945
603.09	4.332
603.42	4.552
603.76	4.545
604.09	4.755
604.42	4.954
604.76	4.528
605.09	4.547
605.42	4.466
605.75	4.500
606.09	4.405
606.42	4.414
606.75	3.973
607.09	4.301
607.42	4.162
607.75	4.416
608.08	4.736
608.42	4.434
608.75	4.104
609.08	4.457
609.41	4.367
609.75	4.643
610.08	5.013
610.41	4.206
610.74	4.202
611.07	4.663
611.41	4.529
611.74	4.619
612.07	4.488
612.40	3.612
612.73	4.156
613.07	4.254
613.40	4.572
613.73	4.863
614.06	3.974
614.39	4.470
614.72	4.124
615.06	4.042
615.39	4.495
615.72	4.739
616.05	4.177
616.38	4.238
616.71	5.381
617.05	3.940
617.38	4.762
617.71	4.158
618.04	4.263
618.37	4.699
618.70	4.072
619.03	4.421
619.36	4.192
619.69	4.356
620.03	3.766
620.36	4.049
620.69	3.886
621.02	4.462
621.35	3.919
621.68	4.338
622.01	3.915
622.34	3.766
622.67	3.986
623.00	2.969
623.33	4.180
623.66	4.086
623.99	3.555
624.32	4.418
624.65	3.218
624.99	4.161
625.32	4.637
625.65	4.316
625.98	3.797
626.31	3.969
626.64	4.542
626.97	3.601
627.30	3.189
627.63	4.351
627.96	4.730
628.29	4.591
628.62	3.359
628.95	2.980
629.28	2.804
629.61	4.293
629.94	2.762
630.26	3.559
630.59	3.454
630.92	2.424
631.25	3.936
631.58	3.013
631.91	2.718
632.24	3.074
632.57	4.459
632.90	3.511
633.23	4.184
633.56	3.673
633.89	2.376
634.22	3.534
634.55	4.280
634.88	3.571
635.20	4.306
635.53	4.294
635.86	4.009
636.19	5.302
636.52	3.797
636.85	4.086
637.18	3.222
637.51	4.194
637.83	4.762
638.16	3.341
638.49	1.408
638.82	3.946
639.15	3.666
639.48	4.619
639.81	3.695
640.13	3.887
640.46	2.667
640.79	2.819
641.12	3.478
641.45	3.137
641.77	4.878
642.10	3.675
642.43	5.186
642.76	4.065
643.09	3.699
643.41	3.782
643.74	4.690
644.07	4.966
644.40	3.536
644.73	2.903
645.05	3.084
645.38	4.029
645.71	3.079
646.04	4.017
646.36	2.482
646.69	2.761
647.02	4.434
647.35	4.580
647.67	3.060
648.00	2.707
648.33	4.204
648.66	4.137
648.98	2.313
649.31	3.112
649.64	4.382
649.96	3.714
650.29	1.113
650.62	1.556
650.94	2.703
651.27	2.246
651.60	2.924
651.92	2.584
652.25	3.184
652.58	3.989
652.90	2.471
653.23	5.070
653.56	3.994
653.88	5.618
654.21	3.944
654.54	1.590
654.86	4.249
655.19	2.886
655.52	3.591
655.84	3.960
656.17	4.419
656.49	6.375
656.82	6.872
657.15	5.313
657.47	4.147
657.80	3.045
658.13	2.332
658.45	3.094
658.78	3.790
659.10	3.162
659.43	3.262
659.75	2.716
660.08	2.689
660.41	3.474
660.73	1.596
661.06	2.056
661.38	2.711
661.71	3.103
662.03	3.704
662.36	4.651
662.68	2.627
663.01	4.071
663.33	4.348
663.66	6.044
663.98	3.846
664.31	3.565
664.63	2.119
664.96	4.356
665.28	0.544
665.61	4.371
665.93	1.964
666.26	3.405
666.58	2.030
666.91	4.860
667.23	3.810
667.56	3.353
667.88	1.800
668.21	0.781
668.53	1.351
668.86	4.322
669.18	2.444
669.50	3.181
669.83	0.200
670.15	1.969
670.48	3.175
670.80	1.912
671.13	2.457
671.45	4.134
671.77	2.637
672.10	2.167
672.42	3.560
672.75	1.843
673.07	1.791
673.39	1.695
673.72	3.020
674.04	3.793
674.37	3.220
674.69	3.704
675.01	1.524
675.34	2.290
675.66	3.184
675.98	4.104
676.31	3.516
676.63	4.563
676.95	4.215
677.28	4.234
677.60	0.984
677.92	2.111
678.25	3.473
678.57	5.516
678.89	4.096
679.22	0.871
679.54	2.393
679.86	0.847
680.18	1.990
680.51	2.673
680.83	3.928
681.15	0.690
681.48	5.009
681.80	3.282
682.12	1.224
682.44	3.339
682.77	3.901
683.09	3.788
683.41	2.713
683.73	3.416
684.06	1.476
684.38	1.968
684.70	1.975
685.02	2.582
685.34	1.498
685.67	0.789
685.99	2.147
686.31	2.907
686.63	2.054
686.96	3.312
687.28	2.280
687.60	1.178
687.92	2.412
688.24	3.172
688.56	0.690
688.89	3.085
689.21	3.327
689.53	1.961
689.85	2.761
690.17	2.037
690.49	4.183
690.82	2.574
691.14	0.202
691.46	4.015
691.78	3.315
692.10	1.835
692.42	3.393
692.74	3.811
693.06	1.296
693.39	3.036
693.71	-0.188
694.03	2.230
694.35	2.286
694.67	3.285
694.99	0.426
695.31	1.766
695.63	2.381
695.95	1.863
696.27	4.615
696.59	3.097
696.91	0.901
697.23	4.396
697.56	0.815
697.88	1.894
698.20	3.013
698.52	4.545
698.84	2.495
699.16	4.082
699.48	2.510
699.80	1.277
700.12	4.148
700.44	1.152
700.76	3.800
701.08	5.569
701.40	-0.259
701.72	3.483
702.04	0.802
702.36	-0.262
702.68	1.956
703.00	1.956
703.32	2.463
703.64	2.445
703.96	2.625
704.28	1.720
704.60	4.810
704.91	2.041
705.23	3.562
705.55	3.900
705.87	2.424
706.19	2.147
706.51	-0.904
706.83	0.576
707.15	-0.794
707.47	1.402
707.79	3.057
708.11	-0.847
708.43	0.645
708.74	-0.893
709.06	0.696
709.38	4.695
709.70	3.474
710.02	3.359
710.34	3.191
710.66	1.117
710.98	2.732
711.29	1.923
711.61	1.695
711.93	3.134
712.25	4.324
712.57	4.720
712.89	4.118
713.20	-1.775
713.52	2.312
713.84	2.786
714.16	4.211
714.48	3.866
714.80	3.117
715.11	2.887
715.43	1.061
715.75	1.842
716.07	0.000
716.39	2.732
716.70	1.807
717.02	1.967
717.34	-1.045
717.66	0.000
717.97	1.027
718.29	-2.405
718.61	0.000
718.93	1.618
719.24	2.174
719.56	0.307
719.88	3.303
720.20	-0.645
720.51	2.174
720.83	1.563
721.15	0.658
721.46	-2.397
721.78	0.667
722.10	1.294
722.42	-0.671
722.73	0.968
723.05	4.561
723.37	3.125
723.68	3.226
724.00	2.888
724.32	-1.408
724.63	-0.699
724.95	5.319
725.27	0.000
725.58	-3.180
725.90	0.690
726.22	4.702
726.53	4.221
726.85	0.943
727.16	5.740
727.48	7.034
727.80	2.318
728.11	0.353
728.43	2.357
728.74	2.676
729.06	2.318
729.38	4.221
729.69	1.007
730.01	3.869
730.32	1.212
730.64	1.887
730.96	0.311
731.27	5.028
731.59	1.648
731.90	1.299
732.22	0.781
732.53	-0.829
732.85	1.429
733.16	-0.587
733.48	-3.354
733.80	-0.557
734.11	2.564
734.43	2.162
734.74	1.266
735.06	2.261
735.37	3.784
735.69	0.541
736.00	2.825
736.32	3.774
736.63	2.500
736.95	4.885
737.26	-0.909
737.58	0.000
737.89	2.353
738.21	2.446
738.52	0.328
738.83	2.730
739.15	2.128
739.46	1.020
739.78	2.147
740.09	0.000
740.41	3.790
740.72	4.000
741.04	4.854
741.35	4.211
741.66	0.000
741.98	4.098
742.29	2.510
742.61	4.386
742.92	0.000
743.23	3.249
743.55	4.651
743.86	1.600
744.18	-2.893
744.49	-1.688
744.80	3.704
745.12	0.422
745.43	-0.813
745.74	-2.586
746.06	0.000
746.37	-0.844
746.68	4.472
747.00	-0.417
747.31	-0.429
747.62	1.923
747.94	1.215
748.25	-1.606
748.56	1.224
748.88	-0.427
749.19	3.879
749.50	2.597
749.82	-2.008
750.13	3.559
750.44	-1.667
750.75	2.769
751.07	3.692
751.38	0.315
751.69	2.556
752.01	1.618
752.32	2.614
752.63	2.381
752.94	-1.038
753.26	-0.372
753.57	-4.074
753.88	-0.375
754.19	0.643
754.51	4.823
754.82	2.894
755.13	2.623
755.44	1.706
755.75	1.974
756.07	4.776
756.38	3.459
756.69	4.518
757.00	1.662
757.31	1.639
757.63	-1.023
757.94	2.113
758.25	3.160
758.56	2.832
758.87	5.227
759.18	4.267
759.50	3.399
759.81	1.401
760.12	2.965
760.43	4.167
760.74	3.695
761.05	0.750
761.36	2.651
761.67	2.284
761.99	1.892
762.30	3.049
762.61	1.650
762.92	1.119
763.23	2.622
763.54	1.799
763.85	1.718
764.16	3.367
764.47	-3.521
764.78	2.875
765.10	3.226
765.41	5.385
765.72	0.000
766.03	4.237
766.34	2.194
766.65	-2.091
766.96	-0.398
767.27	1.382
767.58	0.498
767.89	3.365
768.20	0.469
768.51	0.000
768.82	4.016
769.13	4.545
769.44	-4.615
769.75	5.054
770.06	3.462
770.37	7.480
770.68	0.426
770.99	-1.619
771.30	6.667
771.61	-0.380
771.92	2.222
772.23	5.668
772.54	-7.407
772.85	4.147
773.16	5.238
773.47	2.116
773.78	1.081
774.09	3.409
774.39	5.000
774.70	2.186
775.01	-1.829
775.32	3.529
775.63	6.135
775.94	-3.185
776.25	0.000
776.56	4.487
776.87	8.844
777.18	2.759
777.48	1.399
777.79	2.027
778.10	-0.735
778.41	3.472
778.72	7.586
779.03	1.235
779.34	3.030
779.65	2.591
779.95	6.111
780.26	5.114
780.57	-1.290
780.88	8.696
781.19	9.032
781.50	7.059
781.80	3.763
782.11	5.820
782.42	-1.515
782.73	-4.192
783.04	3.911
783.34	-1.212
783.65	-5.229
783.96	4.348
784.27	2.976
784.57	0.000
784.88	-2.143
785.19	5.512
785.50	2.362
785.81	5.263
786.11	2.308
786.42	-2.878
786.73	-2.878
787.04	5.263
787.34	-4.098
787.65	-4.000
787.96	-2.239
788.26	1.399
788.57	4.895
788.88	7.895
789.19	9.804
789.49	-0.685
789.80	1.418
790.11	2.362
790.41	-0.781
790.72	5.932
791.03	-1.942
791.33	2.609
791.64	7.895
791.95	0.893
792.25	-6.667
792.56	4.464
792.87	0.000
793.17	2.679
793.48	-9.375
793.79	-9.639
794.09	-2.752
794.40	0.917
794.70	6.803
795.01	2.597
795.32	1.370
795.62	4.930
795.93	4.545
796.23	6.557
796.54	-0.893
796.85	2.128
797.15	-3.261
797.46	-15.068
797.76	-7.500
798.07	-9.783
798.37	-5.155
798.68	-5.195
798.99	-2.299
799.29	-1.124
799.60	6.383
799.90	1.205
800.21	-1.538
800.51	-11.940
800.82	-8.824
801.12	-17.808
801.43	-19.118
801.73	-11.864
802.04	-9.091
802.34	-10.000
802.65	-3.390
802.95	-2.985
803.26	-10.169
803.56	-4.110
803.87	8.571
804.17	4.110
804.48	-24.561
804.78	6.944
805.09	-22.414
805.39	6.757
805.70	-2.817
806.00	13.415
806.30	-9.639
806.61	-4.110
806.91	7.692
807.22	-4.444
807.52	-10.345
807.83	0.000
808.13	3.614
808.43	4.494
808.74	0.000
809.04	-10.294
809.35	0.000
809.65	11.429
809.95	-8.219
810.26	-15.789
810.56	-13.793
810.86	-2.941
811.17	-7.018
811.47	-14.754
811.77	-24.444
812.08	-10.169
812.38	11.667
812.69	3.448
812.99	-18.868
813.29	-41.026
813.59	-4.000
813.90	7.018
814.20	1.818
814.50	18.310
814.81	6.410
815.11	-6.557
815.41	-1.493
815.72	6.897
816.02	-14.286
816.32	-2.222
816.62	-9.091
816.93	-24.444
817.23	12.963
817.53	12.766
817.84	33.333
818.14	-50.000
818.44	8.163
818.74	2.222
819.04	-38.462
819.35	-51.429
819.65	-38.462
819.95	1.887
820.25	0.000
820.56	2.381
820.86	-15.625
821.16	-10.256
821.46	-34.884
821.76	-26.000
822.07	5.357
822.37	-17.391
822.67	-2.128
822.97	-8.108
823.27	20.000
823.57	24.490
823.88	20.000
824.18	10.000
824.48	-10.000
824.78	20.000
825.08	3.030
825.38	11.111
825.69	-4.255
825.99	-5.556
826.29	-25.714
826.59	2.564
826.89	-11.628
827.19	0.000
827.49	29.412
827.79	14.583
828.09	-27.027
828.39	-46.667
828.70	-4.878
829.00	-13.953
829.30	-21.429
829.60	-5.882
829.90	-6.522
830.20	-17.143
830.50	-27.586
830.80	-38.889
831.10	-11.538
831.40	5.882
831.70	9.524
832.00	32.258
832.30	-111.765
832.60	-58.333
832.90	-53.846
833.20	5.263
833.50	0.000
833.80	-26.316
834.10	-71.429
834.40	5.556
834.70	15.625
835.00	-14.286
835.30	2.941
835.60	-26.667
835.90	20.000
836.20	-59.091
836.50	-8.000
836.80	-30.303
837.10	3.704
837.40	-7.407
837.70	-75.000
838.00	25.000
838.30	4.348
838.60	3.448
838.90	7.143
839.19	-82.609
839.49	-108.333
839.79	-8.696
840.09	-68.750
840.39	0.000
840.69	3.226
840.99	7.143
841.29	40.000
841.59	21.053
841.88	25.641
842.18	-50.000
842.48	-30.000
842.78	-10.000
843.08	43.333
843.38	12.903
843.68	-38.889
843.97	29.412
844.27	-37.500
844.57	-26.316
844.87	-70.000
845.17	-33.333
845.47	-23.810
845.76	-9.524
846.06	0.000
846.36	-94.118
846.66	3.846
846.96	-26.667
847.25	-35.294
847.55	26.087
847.85	-10.000
848.15	17.647
848.44	-45.455
848.74	28.571
849.04	-16.667
849.34	-62.500
849.63	21.739
849.93	1050.000
850.23	-13.333
850.53	38.462
850.82	-63.636
851.12	50.000
851.42	-72.727
851.71	7.692
852.01	-20.000
852.31	-15.385
852.61	15.789
852.90	-41.667
853.20	-27.778
853.50	-55.556
853.79	-57.143
854.09	13.636
854.39	-33.333
854.68	-25.806
854.98	-42.308
855.28	-38.889
855.57	0.000
855.87	56.000
856.17	18.182
856.46	-11.111
856.76	-66.667
857.05	-13.043
857.35	-37.500
857.65	-46.154
857.94	4.762
858.24	22.222
858.53	43.478
858.83	82.353
859.13	17.647
859.42	41.176
859.72	-28.571
860.01	-10.000
860.31	11.111
860.60	-30.000
860.90	-26.667
861.20	-66.667
861.49	-53.846
861.79	16.667
862.08	-46.154
862.38	15.625
862.67	47.059
862.97	37.500
863.26	-88.889
863.56	20.000
863.85	-27.273
864.15	-11.111
864.44	-300.000
864.74	-14.286
865.03	-68.750
865.33	-200.000
865.62	-6.452
865.92	-13.636
866.21	13.043
866.51	7.143
866.80	-180.000
867.10	25.000
867.39	-66.667
867.69	1000.000
867.98	-28.571
868.27	35.294
868.57	-1400.000
868.86	-10.000
869.16	-14.286
869.45	-16.667
869.75	27.273
870.04	14.286
870.33	-66.667
870.63	-171.429
870.92	-100.000
871.22	-137.500
871.51	-136.364
871.80	-500.000
872.10	-550.000
>>>>>End Processed Spectral Data<<<<<
