SpectraSuite Data File
++++++++++++++++++++++++++++++++++++
Date: Thu May 14 16:41:53 PDT 2015
User: schluterlab
Dark Spectrum Present: Yes
Reference Spectrum Present: Yes
Number of Sampled Component Spectra: 1
Spectrometers: USB2E3373
Integration Time (usec): 3000 (USB2E3373)
Spectra Averaged: 3 (USB2E3373)
Boxcar Smoothing: 0 (USB2E3373)
Correct for Electrical Dark: No (USB2E3373)
Strobe/Lamp Enabled: No (USB2E3373)
Correct for Detector Non-linearity: No (USB2E3373)
Correct for Stray Light: No (USB2E3373)
Number of Pixels in Processed Spectrum: 2048
>>>>>Begin Processed Spectral Data<<<<<
178.53	0.000
178.91	-0.000
179.29	-600.000
179.67	-700.000
180.04	178.571
180.42	90.000
180.80	-40.000
181.18	1000.000
181.56	600.000
181.94	100.000
182.31	-125.000
182.69	166.667
183.07	150.000
183.45	75.000
183.83	16.667
184.20	-133.333
184.58	600.000
184.96	-75.000
185.34	0.000
185.72	180.000
186.09	88.889
186.47	350.000
186.85	200.000
187.23	-22.222
187.61	-900.000
187.98	60.000
188.36	275.000
188.74	-50.000
189.12	-100.000
189.49	12.500
189.87	-37.500
190.25	11.111
190.63	60.000
191.00	-133.333
191.38	0.000
191.76	-75.000
192.14	166.667
192.51	300.000
192.89	83.333
193.27	0.000
193.65	0.000
194.02	-1100.000
194.40	28.571
194.78	28.571
195.15	0.000
195.53	36.364
195.91	0.000
196.29	75.000
196.66	-61.538
197.04	-1000.000
197.42	-85.714
197.79	-100.000
198.17	37.500
198.55	-28.571
198.92	-33.333
199.30	-112.500
199.68	36.364
200.05	92.857
200.43	-400.000
200.81	142.857
201.18	0.000
201.56	166.667
201.94	0.000
202.31	233.333
202.69	0.000
203.07	-0.000
203.44	88.889
203.82	50.000
204.19	-58.333
204.57	-50.000
204.95	-25.000
205.32	-500.000
205.70	-100.000
206.08	133.333
206.45	166.667
206.83	180.000
207.20	-283.333
207.58	-400.000
207.96	-100.000
208.33	166.667
208.71	75.000
209.08	33.333
209.46	0.000
209.84	183.333
210.21	50.000
210.59	250.000
210.96	100.000
211.34	125.000
211.71	12.500
212.09	-400.000
212.46	0.000
212.84	400.000
213.22	-180.000
213.59	-75.000
213.97	40.000
214.34	33.333
214.72	66.667
215.09	50.000
215.47	0.000
215.84	-0.000
216.22	400.000
216.59	120.000
216.97	-60.000
217.34	-125.000
217.72	-112.500
218.09	-100.000
218.47	-125.000
218.84	0.000
219.22	120.000
219.59	-29.412
219.97	55.000
220.34	400.000
220.72	22.222
221.09	53.846
221.47	-333.333
221.84	-60.000
222.22	-71.429
222.59	0.000
222.97	50.000
223.34	0.000
223.72	-700.000
224.09	-50.000
224.46	-125.000
224.84	-20.000
225.21	-42.857
225.59	0.000
225.96	-175.000
226.34	30.769
226.71	233.333
227.08	-150.000
227.46	0.000
227.83	-350.000
228.21	63.158
228.58	100.000
228.95	200.000
229.33	33.333
229.70	30.000
230.08	57.895
230.45	90.000
230.82	-33.333
231.20	-7.143
231.57	0.000
231.95	118.182
232.32	45.455
232.69	15.000
233.07	-75.000
233.44	5.882
233.81	10.000
234.19	11.111
234.56	-9.091
234.93	20.690
235.31	26.316
235.68	5.556
236.05	-25.000
236.43	46.154
236.80	32.000
237.17	0.000
237.55	12.121
237.92	-40.000
238.29	25.806
238.67	-15.909
239.04	27.778
239.41	2.381
239.79	4.348
240.16	-7.407
240.53	-23.913
240.91	-13.725
241.28	-3.279
241.65	11.940
242.02	5.405
242.40	-16.923
242.77	-8.000
243.14	-6.098
243.51	-22.368
243.89	-19.231
244.26	2.970
244.63	5.882
245.00	-0.935
245.38	-2.632
245.75	-13.274
246.12	-0.794
246.49	0.000
246.87	6.429
247.24	0.662
247.61	2.632
247.98	3.356
248.36	-3.704
248.73	-11.043
249.10	1.639
249.47	3.483
249.84	6.806
250.22	-6.218
250.59	1.111
250.96	1.818
251.33	-5.102
251.70	4.274
252.08	-0.833
252.45	0.410
252.82	0.000
253.19	-4.687
253.56	-0.760
253.94	-2.308
254.31	1.515
254.68	4.545
255.05	3.909
255.42	-2.041
255.79	0.000
256.16	-0.662
256.54	-4.636
256.91	-3.934
257.28	-2.295
257.65	-2.548
258.02	-5.015
258.39	-1.709
258.76	3.058
259.14	3.736
259.51	-0.576
259.88	-2.833
260.25	-0.278
260.62	4.384
260.99	-1.366
261.36	1.072
261.73	-2.653
262.10	-2.747
262.47	1.072
262.85	3.030
263.22	-1.818
263.59	-4.211
263.96	2.558
264.33	-1.279
264.70	-0.247
265.07	0.000
265.44	2.494
265.81	-1.389
266.18	0.680
266.55	-0.893
266.92	-1.139
267.29	-0.219
267.66	-1.996
268.03	1.092
268.40	1.879
268.77	-1.139
269.14	-1.101
269.51	0.439
269.88	0.615
270.25	0.402
270.62	-0.844
270.99	2.424
271.36	1.584
271.73	0.196
272.10	1.603
272.47	0.000
272.84	-0.402
273.21	1.603
273.58	-0.403
273.95	0.962
274.32	-1.901
274.69	1.354
275.06	1.099
275.43	-2.588
275.80	1.058
276.17	-1.296
276.54	-0.560
276.91	-1.431
277.28	-0.362
277.65	0.359
278.02	-0.551
278.39	-1.630
278.76	-0.176
279.13	-0.355
279.50	0.859
279.87	1.252
280.23	-1.761
280.60	1.525
280.97	1.480
281.34	-1.528
281.71	1.692
282.08	0.831
282.45	-1.637
282.82	0.314
283.19	-1.131
283.56	-0.656
283.92	0.601
284.29	1.738
284.66	0.000
285.03	-1.763
285.40	1.546
285.77	-0.619
286.14	0.458
286.51	0.000
286.87	0.000
287.24	0.151
287.61	0.000
287.98	0.302
288.35	-0.592
288.72	-0.740
289.08	0.439
289.45	-0.888
289.82	0.000
290.19	0.575
290.56	0.986
290.93	-0.143
291.29	0.138
291.66	-0.551
292.03	-0.543
292.40	0.952
292.77	0.000
293.13	0.677
293.50	-0.788
293.87	-1.879
294.24	0.133
294.60	0.506
294.97	-1.074
295.34	1.024
295.71	0.504
296.08	-0.517
296.44	1.103
296.81	0.122
297.18	0.249
297.55	0.472
297.91	1.068
298.28	-0.474
298.65	1.070
299.02	-0.118
299.38	0.915
299.75	0.350
300.12	-0.463
300.48	-0.115
300.85	0.000
301.22	0.224
301.59	-0.457
301.95	-0.904
302.32	0.444
302.69	0.876
303.05	0.218
303.42	0.111
303.79	0.417
304.15	-0.105
304.52	0.423
304.89	-0.105
305.25	0.518
305.62	0.209
305.99	0.928
306.35	0.706
306.72	0.310
307.09	-0.102
307.45	0.725
307.82	0.404
308.19	0.605
308.55	1.157
308.92	0.584
309.29	1.149
309.65	-0.487
310.02	-0.297
310.38	0.492
310.75	0.485
311.12	-0.096
311.48	0.196
311.85	0.855
312.22	0.095
312.58	0.469
312.95	-0.478
313.31	0.181
313.68	1.099
314.05	0.632
314.41	1.366
314.78	0.545
315.14	0.181
315.51	1.293
315.87	1.440
316.24	0.822
316.61	2.220
316.97	0.543
317.34	0.265
317.70	1.485
318.07	0.794
318.43	0.170
318.80	2.174
319.16	0.172
319.53	-0.171
319.89	0.263
320.26	1.423
320.62	0.177
320.99	1.108
321.35	1.201
321.72	1.581
322.08	0.541
322.45	0.632
322.81	1.083
323.18	-0.177
323.54	0.431
323.91	1.335
324.27	1.119
324.64	0.756
325.00	0.498
325.37	1.310
325.73	1.405
326.10	1.379
326.46	1.710
326.83	2.082
327.19	1.654
327.56	1.818
327.92	0.079
328.29	0.968
328.65	1.256
329.01	1.100
329.38	0.842
329.74	0.771
330.11	1.027
330.47	0.337
330.84	1.120
331.20	1.500
331.56	0.867
331.93	1.506
332.29	1.441
332.66	1.412
333.02	1.340
333.38	0.923
333.75	1.178
334.11	1.501
334.48	1.238
334.84	1.699
335.20	0.336
335.57	2.361
335.93	2.314
336.29	0.499
336.66	0.925
337.02	1.338
337.38	1.361
337.75	1.322
338.11	0.589
338.47	1.323
338.84	1.438
339.20	0.000
339.56	1.730
339.93	0.985
340.29	2.013
340.65	1.054
341.02	2.075
341.38	2.425
341.74	0.969
342.11	1.207
342.47	0.397
342.83	1.852
343.20	1.145
343.56	0.561
343.92	1.601
344.28	1.328
344.65	1.938
345.01	0.780
345.37	1.633
345.73	0.624
346.10	1.638
346.46	1.108
346.82	1.873
347.19	1.681
347.55	2.200
347.91	1.263
348.27	1.138
348.63	2.056
349.00	1.119
349.36	2.305
349.72	1.711
350.08	1.932
350.45	1.065
350.81	1.056
351.17	0.977
351.53	1.440
351.89	1.443
352.26	1.418
352.62	1.045
352.98	1.221
353.34	1.344
353.70	0.616
354.07	1.416
354.43	0.380
354.79	1.197
355.15	1.251
355.51	1.535
355.87	0.972
356.24	1.445
356.60	1.626
356.96	0.519
357.32	0.743
357.68	0.512
358.04	0.449
358.40	0.672
358.77	0.950
359.13	0.517
359.49	-0.074
359.85	0.580
360.21	1.291
360.57	0.574
360.93	0.635
361.29	1.404
361.66	1.014
362.02	1.949
362.38	0.914
362.74	0.768
363.10	1.238
363.46	0.900
363.82	0.639
364.18	0.352
364.54	1.037
364.90	0.602
365.26	0.690
365.62	1.733
365.98	0.613
366.35	1.611
366.71	1.429
367.07	0.406
367.43	1.313
367.79	1.194
368.15	1.739
368.51	1.286
368.87	1.045
369.23	0.267
369.59	0.546
369.95	1.487
370.31	1.621
370.67	0.481
371.03	0.970
371.39	0.604
371.75	1.169
372.11	1.220
372.47	1.151
372.83	1.832
373.19	1.134
373.55	1.287
373.91	1.227
374.27	1.617
374.63	0.744
374.99	0.729
375.35	1.948
375.71	0.387
376.07	1.033
376.42	0.756
376.78	0.870
377.14	1.310
377.50	0.569
377.86	1.786
378.22	0.898
378.58	1.011
378.94	0.822
379.30	0.644
379.66	1.058
380.02	0.115
380.38	1.152
380.74	0.620
381.09	0.581
381.45	1.420
381.81	1.112
382.17	1.188
382.53	1.170
382.89	1.411
383.25	0.410
383.61	0.000
383.97	1.296
384.32	1.017
384.68	0.000
385.04	1.793
385.40	1.061
385.76	0.703
386.12	0.718
386.48	1.529
386.83	1.609
387.19	0.637
387.55	0.293
387.91	0.856
388.27	1.155
388.62	1.317
388.98	1.072
389.34	2.004
389.70	1.046
390.06	1.007
390.42	0.904
390.77	1.385
391.13	0.587
391.49	0.966
391.85	-0.121
392.20	0.890
392.56	1.890
392.92	1.745
393.28	1.271
393.64	1.006
393.99	1.743
394.35	1.577
394.71	1.078
395.07	0.060
395.42	1.428
395.78	2.011
396.14	1.545
396.50	0.713
396.85	1.491
397.21	1.183
397.57	1.355
397.92	1.489
398.28	0.543
398.64	0.515
399.00	0.681
399.35	1.257
399.71	0.870
400.07	1.123
400.42	1.397
400.78	0.694
401.14	0.968
401.49	1.194
401.85	0.872
402.21	1.101
402.57	1.350
402.92	1.241
403.28	0.820
403.63	0.358
403.99	0.416
404.35	0.796
404.70	1.643
405.06	1.087
405.42	1.288
405.77	1.254
406.13	0.972
406.49	1.070
406.84	0.942
407.20	0.783
407.55	0.545
407.91	1.320
408.27	0.942
408.62	1.454
408.98	0.871
409.34	0.411
409.69	0.865
410.05	1.524
410.40	1.450
410.76	0.785
411.11	1.110
411.47	1.536
411.83	1.411
412.18	1.084
412.54	1.600
412.89	1.281
413.25	1.129
413.60	0.919
413.96	1.457
414.31	1.360
414.67	1.431
415.03	0.677
415.38	0.946
415.74	0.794
416.09	1.295
416.45	1.440
416.80	1.469
417.16	1.277
417.51	1.370
417.87	1.655
418.22	1.198
418.58	0.929
418.93	1.688
419.29	0.801
419.64	1.140
420.00	0.831
420.35	1.460
420.71	1.206
421.06	0.518
421.42	0.745
421.77	1.239
422.12	1.374
422.48	0.768
422.83	1.150
423.19	0.849
423.54	1.327
423.90	1.049
424.25	1.120
424.61	0.057
424.96	1.208
425.31	1.805
425.67	1.288
426.02	0.775
426.38	1.320
426.73	1.116
427.09	2.076
427.44	0.655
427.79	1.161
428.15	0.970
428.50	1.461
428.85	1.206
429.21	1.915
429.56	0.938
429.92	1.130
430.27	1.542
430.62	0.977
430.98	0.639
431.33	0.684
431.68	1.149
432.04	1.574
432.39	1.339
432.74	1.370
433.10	1.406
433.45	0.613
433.80	1.556
434.16	1.343
434.51	1.542
434.86	0.869
435.22	1.382
435.57	2.005
435.92	1.391
436.28	1.479
436.63	0.710
436.98	1.771
437.34	1.240
437.69	1.101
438.04	1.745
438.39	1.493
438.75	0.719
439.10	1.744
439.45	1.062
439.81	1.130
440.16	0.751
440.51	1.226
440.86	1.112
441.22	1.983
441.57	1.520
441.92	1.455
442.27	2.121
442.63	1.788
442.98	1.441
443.33	1.736
443.68	2.032
444.03	1.929
444.39	1.942
444.74	2.042
445.09	1.419
445.44	1.581
445.79	1.772
446.15	1.644
446.50	1.499
446.85	1.800
447.20	0.870
447.55	1.831
447.91	1.361
448.26	1.268
448.61	2.338
448.96	2.521
449.31	1.166
449.66	0.926
450.02	2.057
450.37	2.397
450.72	1.507
451.07	2.050
451.42	2.022
451.77	1.556
452.12	1.749
452.47	1.248
452.83	1.408
453.18	1.868
453.53	1.436
453.88	1.933
454.23	1.864
454.58	1.857
454.93	2.002
455.28	2.468
455.63	2.388
455.98	1.732
456.34	2.061
456.69	1.940
457.04	1.418
457.39	1.663
457.74	1.846
458.09	1.483
458.44	2.101
458.79	1.650
459.14	2.307
459.49	1.698
459.84	2.151
460.19	1.832
460.54	1.647
460.89	1.959
461.24	1.379
461.59	2.435
461.94	1.198
462.29	2.128
462.64	1.871
462.99	1.883
463.34	1.817
463.69	1.876
464.04	2.613
464.39	2.018
464.74	2.052
465.09	1.903
465.44	1.985
465.79	2.433
466.14	1.720
466.49	2.158
466.84	1.708
467.19	2.197
467.54	1.880
467.89	2.069
468.24	2.161
468.59	1.332
468.94	1.515
469.29	2.220
469.64	2.034
469.99	1.083
470.34	1.918
470.68	1.982
471.03	2.358
471.38	2.027
471.73	1.886
472.08	1.650
472.43	1.927
472.78	1.952
473.13	1.770
473.48	2.477
473.83	1.857
474.17	2.462
474.52	1.984
474.87	2.935
475.22	2.085
475.57	2.025
475.92	2.439
476.27	2.023
476.61	2.285
476.96	1.512
477.31	2.723
477.66	2.361
478.01	1.830
478.36	2.044
478.70	2.020
479.05	2.607
479.40	2.073
479.75	2.305
480.10	1.942
480.45	2.598
480.79	2.404
481.14	2.344
481.49	2.135
481.84	2.611
482.19	2.151
482.53	2.274
482.88	2.082
483.23	2.134
483.58	1.703
483.92	1.596
484.27	2.075
484.62	1.320
484.97	2.411
485.31	2.042
485.66	2.565
486.01	2.290
486.36	2.311
486.70	2.681
487.05	2.080
487.40	2.345
487.75	2.570
488.09	2.395
488.44	1.942
488.79	2.428
489.13	2.064
489.48	1.903
489.83	2.012
490.17	1.661
490.52	2.094
490.87	2.327
491.22	1.863
491.56	2.517
491.91	2.093
492.26	2.466
492.60	2.667
492.95	2.589
493.30	2.600
493.64	2.409
493.99	2.500
494.34	2.003
494.68	2.184
495.03	2.511
495.37	2.441
495.72	1.905
496.07	2.542
496.41	2.274
496.76	2.210
497.11	2.123
497.45	2.331
497.80	2.621
498.14	2.404
498.49	2.298
498.84	2.742
499.18	2.204
499.53	2.422
499.87	2.549
500.22	1.692
500.56	2.204
500.91	2.151
501.26	3.000
501.60	2.298
501.95	2.171
502.29	2.369
502.64	2.580
502.98	2.632
503.33	2.549
503.67	1.962
504.02	2.583
504.36	2.770
504.71	2.526
505.06	2.365
505.40	2.651
505.75	2.641
506.09	2.762
506.44	2.693
506.78	2.202
507.13	2.582
507.47	2.463
507.82	2.557
508.16	1.912
508.51	2.438
508.85	2.456
509.19	2.226
509.54	2.834
509.88	2.186
510.23	2.817
510.57	2.755
510.92	2.612
511.26	2.213
511.61	1.738
511.95	2.538
512.30	2.757
512.64	2.599
512.98	2.701
513.33	2.722
513.67	2.193
514.02	2.708
514.36	3.223
514.70	2.656
515.05	2.294
515.39	3.202
515.74	2.121
516.08	2.483
516.42	2.930
516.77	2.997
517.11	2.269
517.46	2.174
517.80	3.153
518.14	3.700
518.49	2.983
518.83	3.246
519.17	2.531
519.52	3.302
519.86	2.904
520.20	3.355
520.55	2.903
520.89	2.928
521.23	3.183
521.58	2.938
521.92	3.003
522.26	2.749
522.61	2.315
522.95	2.307
523.29	2.874
523.64	2.859
523.98	2.852
524.32	3.381
524.66	2.960
525.01	2.775
525.35	2.929
525.69	2.784
526.04	2.526
526.38	2.989
526.72	3.172
527.06	1.994
527.41	3.499
527.75	3.563
528.09	3.247
528.43	2.901
528.78	2.832
529.12	3.096
529.46	3.092
529.80	3.204
530.15	3.362
530.49	2.610
530.83	3.247
531.17	2.509
531.51	3.189
531.86	3.125
532.20	2.744
532.54	2.573
532.88	2.788
533.22	2.887
533.57	3.058
533.91	3.479
534.25	3.222
534.59	3.046
534.93	3.282
535.27	3.380
535.62	3.638
535.96	2.731
536.30	3.114
536.64	3.724
536.98	3.506
537.32	3.025
537.66	3.369
538.01	3.202
538.35	2.741
538.69	2.704
539.03	3.004
539.37	3.180
539.71	2.643
540.05	3.477
540.39	2.506
540.73	2.914
541.07	3.311
541.42	3.957
541.76	3.559
542.10	2.895
542.44	3.410
542.78	3.224
543.12	3.397
543.46	2.930
543.80	2.518
544.14	3.172
544.48	4.078
544.82	3.471
545.16	3.220
545.50	2.996
545.84	3.123
546.18	4.198
546.52	3.694
546.86	3.208
547.20	3.880
547.54	3.433
547.88	2.954
548.22	3.743
548.56	2.926
548.90	3.224
549.24	3.647
549.58	2.965
549.92	3.699
550.26	3.689
550.60	3.510
550.94	3.428
551.28	3.234
551.62	3.774
551.96	3.430
552.30	3.059
552.64	4.356
552.98	3.556
553.32	3.215
553.66	3.215
554.00	3.909
554.34	2.574
554.68	3.551
555.02	3.285
555.36	4.076
555.69	3.267
556.03	3.279
556.37	3.504
556.71	3.234
557.05	3.834
557.39	3.716
557.73	3.699
558.07	3.245
558.41	3.588
558.75	3.448
559.08	3.758
559.42	3.361
559.76	4.003
560.10	3.550
560.44	3.628
560.78	3.875
561.12	3.633
561.45	4.136
561.79	4.151
562.13	4.251
562.47	3.083
562.81	3.038
563.15	4.040
563.48	3.853
563.82	3.688
564.16	3.028
564.50	3.397
564.84	3.481
565.17	3.412
565.51	3.913
565.85	3.147
566.19	3.514
566.52	3.101
566.86	3.735
567.20	3.480
567.54	3.505
567.88	3.670
568.21	4.101
568.55	3.741
568.89	3.404
569.23	4.436
569.56	3.947
569.90	4.241
570.24	3.777
570.57	3.400
570.91	3.674
571.25	3.847
571.59	3.785
571.92	3.731
572.26	3.732
572.60	3.658
572.93	3.980
573.27	3.849
573.61	3.944
573.95	3.982
574.28	4.088
574.62	3.615
574.96	3.992
575.29	3.944
575.63	3.788
575.97	4.120
576.30	4.022
576.64	3.722
576.98	3.872
577.31	4.052
577.65	3.735
577.98	4.179
578.32	3.806
578.66	3.882
578.99	3.522
579.33	3.624
579.67	3.762
580.00	3.889
580.34	3.905
580.67	3.641
581.01	3.959
581.35	4.033
581.68	4.099
582.02	4.023
582.35	3.963
582.69	3.815
583.02	4.055
583.36	3.779
583.70	3.613
584.03	3.672
584.37	3.876
584.70	3.643
585.04	3.906
585.37	4.021
585.71	4.078
586.04	3.985
586.38	3.877
586.72	3.836
587.05	3.019
587.39	3.690
587.72	3.947
588.06	4.086
588.39	3.908
588.73	3.730
589.06	4.176
589.40	3.380
589.73	3.631
590.07	4.078
590.40	4.057
590.73	3.782
591.07	4.095
591.40	3.344
591.74	3.537
592.07	4.141
592.41	3.707
592.74	3.976
593.08	3.981
593.41	4.579
593.75	4.080
594.08	4.241
594.41	4.071
594.75	3.952
595.08	4.038
595.42	3.799
595.75	4.004
596.09	3.965
596.42	3.368
596.75	4.400
597.09	4.121
597.42	4.013
597.75	3.724
598.09	3.929
598.42	4.101
598.76	3.745
599.09	4.023
599.42	4.157
599.76	3.632
600.09	4.238
600.42	4.104
600.76	4.194
601.09	4.149
601.42	4.051
601.76	4.000
602.09	3.931
602.42	4.071
602.76	4.170
603.09	4.075
603.42	4.227
603.76	3.911
604.09	4.365
604.42	4.514
604.76	3.539
605.09	4.388
605.42	3.309
605.75	3.692
606.09	3.807
606.42	4.050
606.75	3.523
607.09	3.840
607.42	4.586
607.75	4.299
608.08	3.512
608.42	4.071
608.75	4.353
609.08	3.608
609.41	3.749
609.75	3.929
610.08	4.617
610.41	4.163
610.74	4.328
611.07	3.774
611.41	4.350
611.74	3.972
612.07	4.208
612.40	3.707
612.73	3.325
613.07	3.814
613.40	4.235
613.73	3.852
614.06	3.876
614.39	3.256
614.72	3.833
615.06	3.657
615.39	3.673
615.72	4.028
616.05	3.740
616.38	3.935
616.71	4.023
617.05	3.248
617.38	4.066
617.71	4.158
618.04	3.994
618.37	3.989
618.70	3.959
619.03	3.584
619.36	4.501
619.69	4.228
620.03	4.080
620.36	3.436
620.69	3.701
621.02	4.003
621.35	3.991
621.68	4.121
622.01	4.199
622.34	3.487
622.67	4.399
623.00	2.632
623.33	4.048
623.66	4.021
623.99	3.094
624.32	4.483
624.65	3.475
624.99	3.446
625.32	4.442
625.65	3.641
625.98	4.000
626.31	3.473
626.64	3.956
626.97	4.201
627.30	3.113
627.63	3.226
627.96	4.955
628.29	3.735
628.62	2.771
628.95	3.856
629.28	3.229
629.61	4.293
629.94	3.096
630.26	3.220
630.59	3.972
630.92	2.857
631.25	4.114
631.58	4.049
631.91	3.468
632.24	3.746
632.57	4.364
632.90	3.410
633.23	3.061
633.56	3.673
633.89	2.686
634.22	4.054
634.55	3.862
634.88	3.571
635.20	4.521
635.53	3.616
635.86	4.009
636.19	4.878
636.52	4.325
636.85	4.290
637.18	3.534
637.51	3.548
637.83	4.319
638.16	4.263
638.49	2.700
638.82	4.171
639.15	2.520
639.48	4.734
639.81	4.965
640.13	4.711
640.46	1.939
640.79	2.696
641.12	2.857
641.45	3.011
641.77	5.777
642.10	3.806
642.43	4.654
642.76	4.472
643.09	4.658
643.41	1.821
643.74	4.690
644.07	5.241
644.40	3.536
644.73	3.483
645.05	4.112
645.38	5.755
645.71	3.226
646.04	5.308
646.36	3.650
646.69	4.294
647.02	3.517
647.35	4.275
647.67	2.738
648.00	3.344
648.33	4.505
648.66	4.137
648.98	3.946
649.31	2.706
649.64	3.586
649.96	4.775
650.29	3.616
650.62	4.950
650.94	1.502
651.27	2.994
651.60	3.363
651.92	4.103
652.25	2.894
652.58	2.063
652.90	1.453
653.23	2.958
653.56	2.853
653.88	5.056
654.21	3.521
654.54	3.324
654.86	3.824
655.19	3.011
655.52	5.028
655.84	4.371
656.17	5.361
656.49	7.393
656.82	7.873
657.15	5.729
657.47	4.181
657.80	3.062
658.13	2.324
658.45	2.794
658.78	3.438
659.10	3.091
659.43	2.693
659.75	3.121
660.08	2.745
660.41	2.647
660.73	3.649
661.06	2.203
661.38	3.668
661.71	2.586
662.03	2.646
662.36	3.578
662.68	3.752
663.01	4.779
663.33	4.726
663.66	5.861
663.98	3.654
664.31	2.439
664.63	1.349
664.96	3.448
665.28	3.630
665.61	5.070
665.93	1.964
666.26	3.943
666.58	3.506
666.91	3.551
667.23	4.762
667.56	2.564
667.88	3.800
668.21	1.367
668.53	1.737
668.86	3.536
669.18	3.259
669.50	1.789
669.83	0.600
670.15	2.756
670.48	3.770
670.80	2.677
671.13	3.025
671.45	2.165
671.77	3.955
672.10	1.667
672.42	3.560
672.75	1.690
673.07	3.731
673.39	2.157
673.72	4.195
674.04	1.897
674.37	0.894
674.69	4.409
675.01	2.286
675.34	2.481
675.66	3.371
675.98	2.612
676.31	2.930
676.63	6.654
676.95	4.598
677.28	2.218
677.60	1.378
677.92	4.415
678.25	3.108
678.57	4.982
678.89	5.973
679.22	2.439
679.54	3.761
679.86	1.864
680.18	2.653
680.51	3.459
680.83	4.092
681.15	2.931
681.48	5.354
681.80	4.491
682.12	2.972
682.44	2.671
682.77	1.773
683.09	3.598
683.41	3.295
683.73	2.846
684.06	4.428
684.38	0.716
684.70	3.052
685.02	4.131
685.34	2.496
685.67	2.208
685.99	2.761
686.31	2.471
686.63	1.422
686.96	4.259
687.28	4.886
687.60	1.515
687.92	2.412
688.24	4.508
688.56	2.414
688.89	4.174
689.21	2.740
689.53	2.157
689.85	3.550
690.17	2.593
690.49	1.992
690.82	3.168
691.14	1.822
691.46	2.486
691.78	4.788
692.10	3.119
692.42	0.893
692.74	1.633
693.06	0.926
693.39	3.985
693.71	3.571
694.03	4.275
694.35	4.381
694.67	2.875
694.99	1.915
695.31	1.987
695.63	2.814
695.95	2.899
696.27	2.857
696.59	3.761
696.91	2.252
697.23	6.154
697.56	1.222
697.88	2.273
698.20	3.955
698.52	4.735
698.84	2.287
699.16	3.673
699.48	0.000
699.80	3.191
700.12	1.092
700.44	2.304
700.76	3.325
701.08	5.327
701.40	1.813
701.72	3.980
702.04	4.545
702.36	1.571
702.68	2.200
703.00	3.178
703.32	0.000
703.64	2.445
703.96	3.819
704.28	1.474
704.60	4.304
704.91	2.551
705.23	3.288
705.55	3.064
705.87	3.636
706.19	3.067
706.51	-2.711
706.83	0.576
707.15	1.587
707.47	1.869
707.79	2.838
708.11	2.119
708.43	2.151
708.74	-0.670
709.06	3.248
709.38	2.347
709.70	6.700
710.02	4.910
710.34	2.394
710.66	0.000
710.98	3.552
711.29	0.275
711.61	2.825
711.93	3.419
712.25	0.811
712.57	5.605
712.89	3.235
713.20	4.142
713.52	4.046
713.84	1.393
714.16	5.263
714.48	2.062
714.80	4.156
715.11	2.887
715.43	4.509
715.75	3.947
716.07	2.486
716.39	5.738
716.70	1.807
717.02	0.328
717.34	3.833
717.66	1.678
717.97	3.425
718.29	1.718
718.61	-0.329
718.93	0.971
719.24	2.795
719.56	3.988
719.88	2.102
720.20	2.258
720.51	0.932
720.83	1.250
721.15	2.303
721.46	0.000
721.78	1.667
722.10	0.647
722.42	-0.336
722.73	0.645
723.05	0.000
723.37	0.347
723.68	5.376
724.00	0.722
724.32	-2.113
724.63	1.748
724.95	6.383
725.27	3.136
725.58	-0.353
725.90	3.103
726.22	4.702
726.53	4.221
726.85	2.201
727.16	2.719
727.48	5.505
727.80	3.311
728.11	-0.353
728.43	3.030
728.74	1.003
729.06	4.305
729.38	2.597
729.69	2.685
730.01	2.976
730.32	1.818
730.64	2.516
730.96	-1.242
731.27	6.425
731.59	4.396
731.90	2.597
732.22	3.125
732.53	0.829
732.85	4.000
733.16	3.812
733.48	0.610
733.80	4.178
734.11	2.849
734.43	2.432
734.74	7.595
735.06	0.754
735.37	3.243
735.69	3.243
736.00	4.237
736.32	4.582
736.63	2.500
736.95	2.011
737.26	2.424
737.58	-1.818
737.89	5.294
738.21	0.306
738.52	0.984
738.83	5.119
739.15	-2.482
739.46	3.741
739.78	0.920
740.09	2.865
740.41	5.831
740.72	-1.000
741.04	1.942
741.35	3.509
741.66	5.098
741.98	4.918
742.29	-3.766
742.61	1.316
742.92	3.077
743.23	4.693
743.55	5.426
743.86	2.000
744.18	-2.479
744.49	-1.266
744.80	4.527
745.12	6.329
745.43	8.130
745.74	1.293
746.06	2.542
746.37	5.063
746.68	6.911
747.00	-0.417
747.31	0.429
747.62	3.077
747.94	-0.405
748.25	0.000
748.56	-0.408
748.88	2.564
749.19	6.034
749.50	-1.299
749.82	0.000
750.13	6.050
750.44	0.667
750.75	0.308
751.07	2.769
751.38	2.839
751.69	3.195
752.01	3.236
752.32	4.248
752.63	0.340
752.94	4.152
753.26	-1.487
753.57	0.000
753.88	0.375
754.19	4.180
754.51	3.215
754.82	1.608
755.13	4.590
755.44	0.683
755.75	3.618
756.07	5.075
756.38	0.000
756.69	2.711
757.00	0.831
757.31	-0.273
757.63	1.279
757.94	1.174
758.25	0.677
758.56	1.307
758.87	3.409
759.18	2.133
759.50	4.533
759.81	6.443
760.12	3.235
760.43	3.125
760.74	3.941
761.05	0.500
761.36	-1.928
761.67	1.777
761.99	2.432
762.30	0.915
762.61	0.330
762.92	-2.239
763.23	4.120
763.54	4.317
763.85	3.093
764.16	3.030
764.47	0.704
764.78	4.153
765.10	2.346
765.41	5.897
765.72	1.587
766.03	5.367
766.34	-1.254
766.65	2.091
766.96	-1.992
767.27	-0.461
767.58	0.498
767.89	8.654
768.20	4.225
768.51	-0.926
768.82	4.016
769.13	1.515
769.44	-3.462
769.75	1.805
770.06	0.769
770.37	3.543
770.68	-1.277
770.99	-3.644
771.30	5.556
771.61	2.662
771.92	1.111
772.23	3.644
772.54	-2.778
772.85	7.834
773.16	7.143
773.47	0.000
773.78	-4.865
774.09	-1.705
774.39	9.500
774.70	7.650
775.01	-7.317
775.32	-1.765
775.63	3.067
775.94	-5.732
776.25	3.871
776.56	4.487
776.87	4.082
777.18	2.069
777.48	-2.098
777.79	8.108
778.10	-2.941
778.41	5.556
778.72	-2.759
779.03	0.000
779.34	2.424
779.65	4.145
779.95	3.889
780.26	-1.136
780.57	1.290
780.88	5.797
781.19	5.806
781.50	8.235
781.80	7.527
782.11	6.878
782.42	-4.040
782.73	2.994
783.04	6.145
783.34	2.424
783.65	-1.307
783.96	-2.484
784.27	-3.571
784.57	-0.662
784.88	-2.143
785.19	2.362
785.50	3.937
785.81	3.759
786.11	3.077
786.42	-5.755
786.73	-3.597
787.04	3.759
787.34	-0.820
787.65	-0.800
787.96	2.239
788.26	6.294
788.57	11.189
788.88	1.316
789.19	10.458
789.49	0.685
789.80	4.965
790.11	5.512
790.41	0.000
790.72	1.695
791.03	-8.738
791.33	4.348
791.64	14.912
791.95	8.036
792.25	4.762
792.56	11.607
792.87	-4.167
793.17	3.571
793.48	1.042
793.79	-3.614
794.09	-5.505
794.40	-2.752
794.70	1.361
795.01	-1.948
795.32	-2.055
795.62	-4.930
795.93	2.273
796.23	7.377
796.54	1.786
796.85	-4.255
797.15	0.000
797.46	-4.110
797.76	-5.000
798.07	7.609
798.37	-7.216
798.68	-7.792
798.99	-10.345
799.29	6.742
799.60	8.511
799.90	7.229
800.21	4.615
800.51	-5.970
800.82	-11.765
801.12	-8.219
801.43	-4.412
801.73	-5.085
802.04	0.000
802.34	3.333
802.65	-13.559
802.95	-7.463
803.26	0.000
803.56	-1.370
803.87	-1.429
804.17	1.370
804.48	-24.561
804.78	-2.778
805.09	1.724
805.39	6.757
805.70	-12.676
806.00	1.220
806.30	-6.024
806.61	-6.849
806.91	1.923
807.22	-6.667
807.52	-10.345
807.83	5.556
808.13	6.024
808.43	-3.371
808.74	0.000
809.04	-5.882
809.35	-4.000
809.65	-4.286
809.95	-4.110
810.26	-10.526
810.56	3.448
810.86	8.824
811.17	-8.772
811.47	-14.754
811.77	-17.778
812.08	5.085
812.38	10.000
812.69	10.345
812.99	-20.755
813.29	-28.205
813.59	10.000
813.90	1.754
814.20	1.818
814.50	8.451
814.81	10.256
815.11	8.197
815.41	8.955
815.72	27.586
816.02	8.929
816.32	24.444
816.62	11.364
816.93	-6.667
817.23	12.963
817.53	0.000
817.84	19.048
818.14	-14.706
818.44	0.000
818.74	-4.444
819.04	-20.513
819.35	-14.286
819.65	-23.077
819.95	24.528
820.25	13.333
820.56	-16.667
820.86	-18.750
821.16	-12.821
821.46	-16.279
821.76	-18.000
822.07	16.071
822.37	-2.174
822.67	-17.021
822.97	-27.027
823.27	7.500
823.57	12.245
823.88	24.444
824.18	27.500
824.48	-16.667
824.78	-28.000
825.08	-6.061
825.38	24.444
825.69	6.383
825.99	-19.444
826.29	-45.714
826.59	-2.564
826.89	13.953
827.19	-10.000
827.49	-23.529
827.79	20.833
828.09	-18.919
828.39	13.333
828.70	-17.073
829.00	13.953
829.30	-25.000
829.60	5.882
829.90	10.870
830.20	-17.143
830.50	-20.690
830.80	-16.667
831.10	-15.385
831.40	-8.824
831.70	-47.619
832.00	12.903
832.30	-105.882
832.60	16.667
832.90	-69.231
833.20	5.263
833.50	-65.000
833.80	-10.526
834.10	-57.143
834.40	11.111
834.70	21.875
835.00	-17.143
835.30	-2.941
835.60	6.667
835.90	-8.000
836.20	-68.182
836.50	-8.000
836.80	-45.455
837.10	-37.037
837.40	3.704
837.70	-75.000
838.00	10.714
838.30	-21.739
838.60	-3.448
838.90	21.429
839.19	-30.435
839.49	-75.000
839.79	0.000
840.09	-6.250
840.39	-20.000
840.69	-9.677
840.99	-46.429
841.29	-6.667
841.59	-52.632
841.88	5.128
842.18	-23.077
842.48	20.000
842.78	-5.000
843.08	30.000
843.38	0.000
843.68	-44.444
843.97	26.471
844.27	-6.250
844.57	-42.105
844.87	-70.000
845.17	-40.000
845.47	23.810
845.76	-38.095
846.06	-44.444
846.36	-5.882
846.66	3.846
846.96	26.667
847.25	-41.176
847.55	4.348
847.85	-35.000
848.15	-23.529
848.44	-63.636
848.74	19.048
849.04	-12.500
849.34	31.250
849.63	43.478
849.93	500.000
850.23	26.667
850.53	23.077
850.82	-81.818
851.12	45.455
851.42	-100.000
851.71	46.154
852.01	-45.000
852.31	-46.154
852.61	-5.263
852.90	0.000
853.20	33.333
853.50	-77.778
853.79	-38.095
854.09	-31.818
854.39	-75.000
854.68	9.677
854.98	-15.385
855.28	16.667
855.57	28.571
855.87	4.000
856.17	-13.636
856.46	-7.407
856.76	-88.889
857.05	26.087
857.35	-25.000
857.65	-15.385
857.94	9.524
858.24	59.259
858.53	13.043
858.83	11.765
859.13	-17.647
859.42	-70.588
859.72	-7.143
860.01	0.000
860.31	-11.111
860.60	-40.000
860.90	46.667
861.20	-22.222
861.49	-7.692
861.79	3.333
862.08	-61.538
862.38	21.875
862.67	52.941
862.97	56.250
863.26	-100.000
863.56	30.000
863.85	-63.636
864.15	-5.556
864.44	-200.000
864.74	35.714
865.03	0.000
865.33	-110.000
865.62	-19.355
865.92	-4.545
866.21	-4.348
866.51	50.000
866.80	-120.000
867.10	25.000
867.39	-58.333
867.69	800.000
867.98	42.857
868.27	-5.882
868.57	-1300.000
868.86	-180.000
869.16	9.524
869.45	16.667
869.75	0.000
870.04	-28.571
870.33	8.333
870.63	-185.714
870.92	-150.000
871.22	-200.000
871.51	0.000
871.80	-400.000
872.10	-100.000
>>>>>End Processed Spectral Data<<<<<
