SpectraSuite Data File
++++++++++++++++++++++++++++++++++++
Date: Tue May 12 19:52:33 PDT 2015
User: schluterlab
Dark Spectrum Present: Yes
Reference Spectrum Present: Yes
Number of Sampled Component Spectra: 1
Spectrometers: USB2E3373
Integration Time (usec): 3000 (USB2E3373)
Spectra Averaged: 3 (USB2E3373)
Boxcar Smoothing: 0 (USB2E3373)
Correct for Electrical Dark: No (USB2E3373)
Strobe/Lamp Enabled: No (USB2E3373)
Correct for Detector Non-linearity: No (USB2E3373)
Correct for Stray Light: No (USB2E3373)
Number of Pixels in Processed Spectrum: 2048
>>>>>Begin Processed Spectral Data<<<<<
178.53	0.000
178.91	-80.000
179.29	-200.000
179.67	633.333
180.04	0.000
180.42	-300.000
180.80	-733.333
181.18	1350.000
181.56	-900.000
181.94	383.333
182.31	2700.000
182.69	-171.429
183.07	0.000
183.45	233.333
183.83	340.000
184.20	383.333
184.58	800.000
184.96	450.000
185.34	-566.667
185.72	-121.429
186.09	-250.000
186.47	-2500.000
186.85	-240.000
187.23	141.667
187.61	-157.143
187.98	-280.000
188.36	800.000
188.74	-325.000
189.12	-144.444
189.49	-210.000
189.87	550.000
190.25	155.556
190.63	933.333
191.00	620.000
191.38	-800.000
191.76	480.000
192.14	-142.857
192.51	-210.000
192.89	-300.000
193.27	-300.000
193.65	-700.000
194.02	-466.667
194.40	1900.000
194.78	-150.000
195.15	-228.571
195.53	600.000
195.91	380.000
196.29	-700.000
196.66	-633.333
197.04	-257.143
197.42	240.000
197.79	-262.500
198.17	-166.667
198.55	-800.000
198.92	-200.000
199.30	1200.000
199.68	-300.000
200.05	-1250.000
200.43	-94.444
200.81	-166.667
201.18	516.667
201.56	-1050.000
201.94	-2600.000
202.31	-108.333
202.69	-177.778
203.07	-25.000
203.44	-575.000
203.82	0.000
204.19	400.000
204.57	-866.667
204.95	281.818
205.32	460.000
205.70	550.000
206.08	-1800.000
206.45	-400.000
206.83	2600.000
207.20	-200.000
207.58	-107.692
207.96	766.667
208.33	1133.333
208.71	933.333
209.08	1200.000
209.46	-77.778
209.84	433.333
210.21	-666.667
210.59	600.000
210.96	288.889
211.34	-475.000
211.71	1650.000
212.09	-380.000
212.46	-262.500
212.84	-300.000
213.22	314.286
213.59	-262.500
213.97	0.000
214.34	-1150.000
214.72	-2700.000
215.09	750.000
215.47	-60.000
215.84	-175.000
216.22	-2200.000
216.59	1800.000
216.97	-125.000
217.34	-250.000
217.72	-27.778
218.09	700.000
218.47	-100.000
218.84	-312.500
219.22	-64.286
219.59	-140.000
219.97	-220.000
220.34	383.333
220.72	190.909
221.09	-1050.000
221.47	0.000
221.84	700.000
222.22	-625.000
222.59	-525.000
222.97	-60.870
223.34	246.667
223.72	314.286
224.09	-266.667
224.46	192.308
224.84	-93.333
225.21	-950.000
225.59	-400.000
225.96	-25.000
226.34	600.000
226.71	270.000
227.08	-123.077
227.46	-228.571
227.83	-100.000
228.21	-1050.000
228.58	200.000
228.95	-36.842
229.33	-68.750
229.70	-266.667
230.08	-255.556
230.45	-933.333
230.82	-2200.000
231.20	-38.095
231.57	-320.000
231.95	-900.000
232.32	177.778
232.69	-1250.000
233.07	-43.750
233.44	-187.500
233.81	-35.484
234.19	-400.000
234.56	-105.556
234.93	-516.667
235.31	-51.852
235.68	-74.074
236.05	-80.769
236.43	-84.211
236.80	-95.455
237.17	-228.571
237.55	-135.000
237.92	-39.535
238.29	-64.516
238.67	-39.286
239.04	-45.714
239.41	-39.216
239.79	-34.000
240.16	-30.000
240.53	-27.586
240.91	-23.288
241.28	-26.761
241.65	-21.875
242.02	-29.825
242.40	-20.000
242.77	-9.474
243.14	-22.353
243.51	-7.527
243.89	-20.952
244.26	-12.037
244.63	-9.184
245.00	-16.964
245.38	-22.689
245.75	-19.492
246.12	-11.719
246.49	-17.600
246.87	-18.852
247.24	-17.606
247.61	-9.272
247.98	-10.112
248.36	-14.465
248.73	-13.068
249.10	-9.444
249.47	-11.979
249.84	-10.152
250.22	-18.750
250.59	-12.921
250.96	-8.636
251.33	-8.962
251.70	-8.257
252.08	-5.628
252.45	-8.163
252.82	-11.814
253.19	-7.393
253.56	-6.667
253.94	-5.285
254.31	-3.957
254.68	-9.375
255.05	-3.974
255.42	-9.091
255.79	-1.656
256.16	-7.986
256.54	-1.515
256.91	-2.564
257.28	-7.792
257.65	-9.836
258.02	-1.802
258.39	-2.115
258.76	-5.505
259.14	-4.706
259.51	-1.690
259.88	-2.882
260.25	-7.102
260.62	-4.494
260.99	-3.621
261.36	-4.310
261.73	-6.667
262.10	-6.267
262.47	-5.234
262.85	-1.028
263.22	-5.914
263.59	-4.290
263.96	-4.439
264.33	-9.164
264.70	-6.880
265.07	-5.419
265.44	-4.684
265.81	-1.446
266.18	-1.405
266.55	-4.524
266.92	-1.562
267.29	-4.889
267.66	-4.545
268.03	-1.720
268.40	-5.034
268.77	-3.118
269.14	-5.462
269.51	-4.977
269.88	-2.137
270.25	-4.219
270.62	-1.471
270.99	-3.158
271.36	-6.402
271.73	-3.542
272.10	-2.282
272.47	-4.400
272.84	-5.520
273.21	-4.802
273.58	-5.102
273.95	-3.386
274.32	-2.321
274.69	-2.740
275.06	-2.627
275.43	-5.600
275.80	-3.824
276.17	-7.312
276.54	-0.380
276.91	-3.455
277.28	-2.128
277.65	-3.592
278.02	-2.652
278.39	-1.633
278.76	-2.980
279.13	-0.894
279.50	-0.181
279.87	-3.396
280.23	-1.821
280.60	-3.887
280.97	-3.691
281.34	-2.373
281.71	-2.842
282.08	-2.683
282.45	-4.233
282.82	-3.872
283.19	-2.694
283.56	-2.901
283.92	-2.212
284.29	-2.876
284.66	-4.248
285.03	-5.489
285.40	-1.833
285.77	-1.149
286.14	-3.803
286.51	-2.412
286.87	-1.945
287.24	-5.609
287.61	-3.704
287.98	-0.782
288.35	-2.481
288.72	-1.835
289.08	-4.403
289.45	-1.560
289.82	-2.950
290.19	-3.939
290.56	-1.447
290.93	-1.920
291.29	-2.128
291.66	-1.264
292.03	-0.430
292.40	-1.439
292.77	-2.915
293.13	-3.084
293.50	-2.342
293.87	-1.942
294.24	-1.685
294.60	-0.956
294.97	-3.324
295.34	-2.192
295.71	-3.883
296.08	-3.279
296.44	-2.108
296.81	-3.364
297.18	-1.035
297.55	-1.759
297.91	-3.046
298.28	-3.708
298.65	-3.234
299.02	-1.850
299.38	-3.444
299.75	-2.703
300.12	-1.319
300.48	-1.408
300.85	-2.689
301.22	-2.404
301.59	-2.798
301.95	-2.195
302.32	-2.673
302.69	-2.735
303.05	-2.715
303.42	-1.570
303.79	-2.921
304.15	-0.566
304.52	-1.006
304.89	-2.706
305.25	-1.720
305.62	-1.023
305.99	-3.247
306.35	-2.013
306.72	-1.961
307.09	-2.829
307.45	-2.805
307.82	-2.028
308.19	-1.760
308.55	-2.215
308.92	-2.013
309.29	-1.778
309.65	-1.548
310.02	-2.306
310.38	-1.812
310.75	-1.844
311.12	-2.340
311.48	-0.822
311.85	-2.533
312.22	-1.550
312.58	-1.511
312.95	-1.437
313.31	-1.967
313.68	-1.688
314.05	-0.397
314.41	-1.179
314.78	-3.116
315.14	-2.449
315.51	-1.986
315.87	-1.465
316.24	-1.780
316.61	-1.845
316.97	-1.961
317.34	-2.010
317.70	-2.054
318.07	-2.314
318.43	-1.701
318.80	-0.729
319.16	-2.144
319.53	-1.415
319.89	-1.610
320.26	-1.082
320.62	-1.841
320.99	-2.041
321.35	-1.186
321.72	-0.404
322.08	-1.386
322.45	-1.183
322.81	-2.266
323.18	-1.534
323.54	-1.611
323.91	-1.898
324.27	-2.122
324.64	-2.343
325.00	-1.638
325.37	-0.719
325.73	-2.372
326.10	-1.751
326.46	-2.539
326.83	-2.199
327.19	-1.135
327.56	-1.680
327.92	-1.997
328.29	-1.434
328.65	-2.072
329.01	-1.193
329.38	-0.735
329.74	-0.186
330.11	-2.050
330.47	-2.514
330.84	-2.256
331.20	-1.479
331.56	-1.792
331.93	-2.013
332.29	-1.758
332.66	-1.718
333.02	-1.486
333.38	-1.471
333.75	-0.732
334.11	-0.723
334.48	-2.057
334.84	-2.911
335.20	-1.791
335.57	-0.636
335.93	-2.140
336.29	-1.005
336.66	-2.641
337.02	0.091
337.38	-2.358
337.75	-1.727
338.11	-1.276
338.47	-1.114
338.84	-0.737
339.20	-1.558
339.56	-1.864
339.93	-1.532
340.29	-0.816
340.65	-1.735
341.02	-2.126
341.38	-1.324
341.74	-1.779
342.11	-0.707
342.47	-1.573
342.83	-1.301
343.20	-1.680
343.56	-1.573
343.92	-0.525
344.28	-2.058
344.65	-1.712
345.01	-1.568
345.37	-1.368
345.73	-2.067
346.10	-2.074
346.46	-2.157
346.82	-1.699
347.19	-1.009
347.55	-1.020
347.91	-1.884
348.27	-1.264
348.63	-1.469
349.00	-0.668
349.36	-1.154
349.72	-1.067
350.08	-0.409
350.45	-1.627
350.81	-1.486
351.17	-2.306
351.53	-1.610
351.89	-2.591
352.26	-1.707
352.62	-1.390
352.98	-1.339
353.34	-1.504
353.70	-2.963
354.07	-0.988
354.43	-1.920
354.79	-1.311
355.15	-1.695
355.51	-1.304
355.87	-1.749
356.24	-0.572
356.60	-1.169
356.96	-0.790
357.32	-1.646
357.68	-1.193
358.04	-1.621
358.40	-0.818
358.77	-1.446
359.13	-0.241
359.49	-2.160
359.85	-0.879
360.21	-1.269
360.57	-1.515
360.93	-1.029
361.29	-1.324
361.66	-1.262
362.02	-1.570
362.38	-0.466
362.74	-0.692
363.10	-1.584
363.46	-1.204
363.82	-0.842
364.18	-0.908
364.54	-1.221
364.90	-2.519
365.26	-1.118
365.62	-1.438
365.98	-0.825
366.35	-1.362
366.71	-1.270
367.07	-0.369
367.43	-1.372
367.79	-1.744
368.15	-1.408
368.51	-1.798
368.87	-1.028
369.23	-1.741
369.59	-1.691
369.95	-0.894
370.31	-2.045
370.67	-0.977
371.03	-1.625
371.39	-0.906
371.75	-0.966
372.11	-0.963
372.47	-1.559
372.83	-0.877
373.19	-0.527
373.55	-0.524
373.91	-1.439
374.27	-0.589
374.63	-1.178
374.99	-1.830
375.35	-1.959
375.71	-1.076
376.07	-0.636
376.42	-0.761
376.78	-1.812
377.14	-1.397
377.50	-1.094
377.86	-1.184
378.22	-0.727
378.58	-0.855
378.94	-0.786
379.30	-0.450
379.66	-0.128
380.02	-1.017
380.38	-1.145
380.74	-0.746
381.09	-1.842
381.45	-0.444
381.81	-1.339
382.17	-0.912
382.53	-1.381
382.89	-0.962
383.25	-1.395
383.61	-1.017
383.97	-0.780
384.32	-0.516
384.68	-0.575
385.04	-1.528
385.40	-0.895
385.76	-1.012
386.12	-0.594
386.48	-0.978
386.83	-1.646
387.19	-1.341
387.55	-1.619
387.91	-0.872
388.27	-1.152
388.62	-1.554
388.98	-0.763
389.34	-2.082
389.70	-1.410
390.06	-1.056
390.42	-0.879
390.77	-1.207
391.13	-0.781
391.49	-1.752
391.85	-1.331
392.20	-1.056
392.56	-1.637
392.92	-1.051
393.28	-0.778
393.64	-1.583
393.99	-1.299
394.35	-1.168
394.71	-1.192
395.07	-0.663
395.42	-1.778
395.78	-1.680
396.14	-1.666
396.50	-0.517
396.85	-0.793
397.21	-0.906
397.57	-1.317
397.92	-0.700
398.28	-1.799
398.64	-1.206
399.00	-0.348
399.35	-1.348
399.71	-1.138
400.07	-0.618
400.42	-0.641
400.78	-0.704
401.14	-1.452
401.49	-1.062
401.85	-0.889
402.21	-0.825
402.57	-1.932
402.92	-1.062
403.28	-0.520
403.63	-0.513
403.99	-0.925
404.35	-1.210
404.70	-1.013
405.06	-0.682
405.42	-1.366
405.77	-0.595
406.13	-1.553
406.49	-1.577
406.84	-0.374
407.20	-1.115
407.55	-0.802
407.91	-1.049
408.27	-1.463
408.62	-1.479
408.98	-0.901
409.34	-0.640
409.69	-1.271
410.05	-0.648
410.40	-1.541
410.76	-1.245
411.11	-1.164
411.47	-0.612
411.83	-1.223
412.18	-0.393
412.54	-0.453
412.89	-1.101
413.25	-1.129
413.60	-1.020
413.96	-1.553
414.31	-1.657
414.67	-0.135
415.03	-1.245
415.38	-1.950
415.74	-0.403
416.09	-1.447
416.45	-1.628
416.80	-1.739
417.16	-1.340
417.51	-1.249
417.87	-1.094
418.22	-0.869
418.58	-1.728
418.93	-0.903
419.29	-1.289
419.64	-0.893
420.00	-0.720
420.35	-1.004
420.71	-0.896
421.06	-0.844
421.42	-0.816
421.77	-0.670
422.12	-0.827
422.48	-0.800
422.83	-0.912
423.19	-0.529
423.54	-1.100
423.90	-0.494
424.25	-1.450
424.61	-0.839
424.96	-1.167
425.31	-0.906
425.67	-1.394
426.02	-1.429
426.38	-1.416
426.73	-0.436
427.09	-1.379
427.44	-1.358
427.79	-0.248
428.15	-1.522
428.50	-0.503
428.85	-0.321
429.21	0.060
429.56	-1.326
429.92	-0.649
430.27	-1.653
430.62	-0.433
430.98	-0.699
431.33	-1.112
431.68	-0.602
432.04	-0.633
432.39	-1.307
432.74	-1.455
433.10	-1.031
433.45	-1.393
433.80	-0.417
434.16	-1.323
434.51	-0.446
434.86	-1.329
435.22	-0.931
435.57	-0.660
435.92	-1.424
436.28	-1.121
436.63	-0.239
436.98	-1.358
437.34	-0.512
437.69	-1.543
438.04	-1.623
438.39	-1.110
438.75	-0.615
439.10	-0.476
439.45	-1.155
439.81	-0.698
440.16	-1.113
440.51	-0.434
440.86	-0.884
441.22	-1.072
441.57	-0.285
441.92	-0.828
442.27	-1.029
442.63	-0.903
442.98	-0.122
443.33	-0.294
443.68	-0.998
444.03	-0.567
444.39	-1.301
444.74	-0.630
445.09	-1.417
445.44	-1.166
445.79	-0.917
446.15	-0.700
446.50	-1.272
446.85	-0.880
447.20	-0.930
447.55	-1.105
447.91	-0.999
448.26	-0.356
448.61	-1.208
448.96	-0.828
449.31	-1.266
449.66	-1.150
450.02	-1.065
450.37	-0.851
450.72	-1.017
451.07	-1.187
451.42	-0.593
451.77	-1.765
452.12	-1.754
452.47	-1.355
452.83	-0.996
453.18	-1.080
453.53	-0.523
453.88	-0.574
454.23	-0.767
454.58	-1.110
454.93	-1.158
455.28	-1.154
455.63	-1.559
455.98	-1.332
456.34	-1.407
456.69	-1.963
457.04	-0.984
457.39	-0.936
457.74	-1.454
458.09	-1.805
458.44	-1.288
458.79	-1.531
459.14	-0.537
459.49	-1.146
459.84	-0.416
460.19	-0.750
460.54	-1.389
460.89	-1.118
461.24	-1.169
461.59	-1.136
461.94	-0.526
462.29	-1.629
462.64	-1.114
462.99	-1.088
463.34	-1.245
463.69	-1.029
464.04	-1.668
464.39	-0.900
464.74	-1.298
465.09	-0.064
465.44	-0.540
465.79	-0.903
466.14	-1.432
466.49	-0.773
466.84	-0.983
467.19	-0.845
467.54	-2.056
467.89	-1.176
468.24	-1.515
468.59	-1.309
468.94	-1.076
469.29	-1.038
469.64	-0.584
469.99	-1.658
470.34	-1.273
470.68	-1.846
471.03	-1.971
471.38	-1.645
471.73	-1.453
472.08	-0.854
472.43	-1.452
472.78	-1.595
473.13	-0.491
473.48	-0.968
473.83	-0.991
474.17	-0.867
474.52	-0.737
474.87	-1.389
475.22	-0.762
475.57	-1.058
475.92	-0.910
476.27	-1.145
476.61	-1.123
476.96	-1.008
477.31	-1.084
477.66	-0.523
478.01	-1.942
478.36	-0.974
478.70	-0.901
479.05	-1.393
479.40	-1.050
479.75	-1.010
480.10	-0.974
480.45	-0.524
480.79	-0.727
481.14	-0.949
481.49	-0.823
481.84	-1.162
482.19	-1.024
482.53	0.000
482.88	-1.220
483.23	-0.854
483.58	-0.792
483.92	-0.754
484.27	-0.920
484.62	-0.566
484.97	-0.879
485.31	-0.387
485.66	-0.385
486.01	-0.124
486.36	-0.261
486.70	-0.314
487.05	-0.227
487.40	-0.556
487.75	-0.429
488.09	-0.658
488.44	-0.990
488.79	-0.268
489.13	-0.665
489.48	-1.104
489.83	-0.231
490.17	-0.703
490.52	-1.243
490.87	-0.940
491.22	-0.641
491.56	-0.939
491.91	-0.954
492.26	-0.714
492.60	-0.969
492.95	-0.616
493.30	-1.045
493.64	-0.811
493.99	-0.924
494.34	-0.659
494.68	-1.288
495.03	-0.862
495.37	-0.304
495.72	-0.580
496.07	-0.659
496.41	-1.087
496.76	-0.907
497.11	-1.231
497.45	-0.653
497.80	-0.208
498.14	-0.739
498.49	-0.641
498.84	-1.415
499.18	-1.194
499.53	-0.987
499.87	-0.870
500.22	-1.143
500.56	-0.052
500.91	-0.262
501.26	-0.630
501.60	-0.765
501.95	-1.638
502.29	-0.718
502.64	-1.244
502.98	-0.959
503.33	-0.549
503.67	-1.225
504.02	-0.970
504.36	-1.181
504.71	-0.426
505.06	-0.750
505.40	-0.214
505.75	-0.843
506.09	-0.867
506.44	-1.073
506.78	-1.017
507.13	-1.031
507.47	-0.499
507.82	-1.507
508.16	-1.503
508.51	-0.274
508.85	-0.879
509.19	-1.097
509.54	-1.473
509.88	-1.841
510.23	-0.843
510.57	-1.363
510.92	-1.077
511.26	-1.206
511.61	-0.342
511.95	-1.619
512.30	-0.464
512.64	-0.762
512.98	-0.827
513.33	-1.583
513.67	-2.635
514.02	-1.562
514.36	-1.008
514.70	-0.850
515.05	-1.585
515.39	-1.317
515.74	-1.190
516.08	-1.820
516.42	-0.373
516.77	-0.870
517.11	-1.529
517.46	-1.062
517.80	-1.404
518.14	-0.443
518.49	-1.229
518.83	-0.713
519.17	-1.542
519.52	-0.750
519.86	-0.253
520.20	-1.338
520.55	-0.587
520.89	-0.607
521.23	-0.868
521.58	-1.124
521.92	-1.268
522.26	-1.512
522.61	-0.887
522.95	-0.479
523.29	-1.147
523.64	-2.035
523.98	-1.075
524.32	-0.404
524.66	-1.428
525.01	-1.512
525.35	-1.026
525.69	-1.376
526.04	-0.987
526.38	-1.097
526.72	-0.833
527.06	-1.055
527.41	-1.276
527.75	-1.508
528.09	-2.051
528.43	-1.205
528.78	-2.516
529.12	-1.712
529.46	-1.063
529.80	-1.293
530.15	-0.486
530.49	-0.279
530.83	-2.242
531.17	-0.282
531.51	-1.142
531.86	-0.490
532.20	-1.876
532.54	-0.863
532.88	-1.891
533.22	-0.575
533.57	-1.310
533.91	-1.583
534.25	-0.815
534.59	-1.307
534.93	-1.410
535.27	-1.886
535.62	-1.621
535.96	-1.047
536.30	-1.461
536.64	-1.144
536.98	-0.664
537.32	-0.967
537.66	-0.953
538.01	-0.957
538.35	-0.727
538.69	-1.628
539.03	-1.730
539.37	-1.077
539.71	-0.507
540.05	-1.230
540.39	-0.944
540.73	-1.026
541.07	-1.912
541.42	-0.285
541.76	-1.439
542.10	-0.933
542.44	-0.578
542.78	-1.979
543.12	-2.383
543.46	-0.820
543.80	-0.429
544.14	-0.860
544.48	-1.193
544.82	-0.994
545.16	-0.870
545.50	-1.164
545.84	-0.732
546.18	-1.423
546.52	-1.076
546.86	-1.530
547.20	-0.909
547.54	-2.123
547.88	-1.211
548.22	-1.617
548.56	-0.211
548.90	-0.842
549.24	-0.219
549.58	-0.745
549.92	-1.128
550.26	-0.077
550.60	-1.745
550.94	-1.667
551.28	-1.301
551.62	-0.901
551.96	-1.917
552.30	-1.318
552.64	-0.601
552.98	-0.817
553.32	-1.667
553.66	-0.986
554.00	-0.849
554.34	-1.172
554.68	-1.834
555.02	-1.905
555.36	-1.589
555.69	-1.384
556.03	-0.961
556.37	-0.900
556.71	-1.282
557.05	-1.797
557.39	-1.205
557.73	-0.629
558.07	-0.235
558.41	-2.474
558.75	-1.411
559.08	-1.617
559.42	-1.589
559.76	-1.685
560.10	-0.733
560.44	-0.871
560.78	-1.052
561.12	-1.728
561.45	-1.190
561.79	-2.203
562.13	-1.557
562.47	-2.370
562.81	-1.440
563.15	-2.510
563.48	-1.873
563.82	-2.038
564.16	-2.250
564.50	-0.931
564.84	-0.709
565.17	-0.715
565.51	-1.337
565.85	-0.423
566.19	-0.974
566.52	-1.649
566.86	-0.615
567.20	-1.863
567.54	-1.340
567.88	-1.517
568.21	-0.821
568.55	-1.188
568.89	-1.648
569.23	-1.054
569.56	-0.322
569.90	-0.600
570.24	-0.827
570.57	-0.564
570.91	-0.691
571.25	0.000
571.59	-0.328
571.92	-0.496
572.26	-0.525
572.60	-0.545
572.93	-0.426
573.27	-0.649
573.61	-0.248
573.95	-0.537
574.28	-0.745
574.62	-0.339
574.96	-0.678
575.29	-0.439
575.63	-0.427
575.97	-0.332
576.30	-0.145
576.64	-0.331
576.98	-0.427
577.31	-0.178
577.65	-0.264
577.98	-0.349
578.32	-0.150
578.66	-0.265
578.99	-0.048
579.33	-0.153
579.67	0.052
580.00	-0.208
580.34	-0.025
580.67	-0.203
581.01	-0.349
581.35	-0.202
581.68	-0.350
582.02	0.019
582.35	0.000
582.69	-0.237
583.02	-0.173
583.36	0.000
583.70	-0.235
584.03	-0.223
584.37	-0.086
584.70	-0.624
585.04	-0.404
585.37	-0.562
585.71	-0.176
586.04	-0.311
586.38	-0.027
586.72	-0.500
587.05	-0.030
587.39	-0.258
587.72	-0.306
588.06	0.084
588.39	-0.204
588.73	-0.125
589.06	-0.494
589.40	-0.035
589.73	-0.262
590.07	-0.736
590.40	-0.751
590.73	-0.250
591.07	-0.693
591.40	-0.822
591.74	-0.933
592.07	-0.382
592.41	-0.843
592.74	-0.767
593.08	-0.301
593.41	-0.583
593.75	-0.135
594.08	-0.358
594.41	-0.226
594.75	-0.509
595.08	-0.506
595.42	-0.376
595.75	-0.265
596.09	-0.200
596.42	-1.099
596.75	-0.364
597.09	-0.513
597.42	-0.892
597.75	-0.375
598.09	-0.234
598.42	-0.189
598.76	-1.093
599.09	-0.294
599.42	-0.708
599.76	-0.628
600.09	-0.158
600.42	-0.859
600.76	-0.808
601.09	-0.431
601.42	-0.161
601.76	-0.771
602.09	-0.880
602.42	-0.564
602.76	-0.436
603.09	-0.609
603.42	-0.554
603.76	-0.965
604.09	-0.919
604.42	-0.558
604.76	-0.913
605.09	-1.086
605.42	-0.758
605.75	-0.777
606.09	-0.844
606.42	-0.569
606.75	-0.311
607.09	-0.280
607.42	0.229
607.75	-0.689
608.08	-0.140
608.42	-0.824
608.75	-1.001
609.08	-1.464
609.41	0.311
609.75	-0.895
610.08	-1.085
610.41	-0.407
610.74	-1.112
611.07	-0.529
611.41	-0.589
611.74	-0.598
612.07	-0.781
612.40	-0.279
612.73	-1.157
613.07	-0.940
613.40	-1.035
613.73	-0.974
614.06	-1.522
614.39	-0.117
614.72	-1.594
615.06	0.344
615.39	-0.808
615.72	-0.728
616.05	-0.580
616.38	-1.186
616.71	-0.933
617.05	-0.879
617.38	-0.903
617.71	-1.045
618.04	-0.657
618.37	-1.570
618.70	-0.951
619.03	-0.725
619.36	0.000
619.69	-1.788
620.03	-1.297
620.36	-1.436
620.69	-1.256
621.02	-1.267
621.35	-0.766
621.68	-1.620
622.01	-1.783
622.34	-1.843
622.67	-1.012
623.00	-1.474
623.33	0.000
623.66	-0.239
623.99	-1.595
624.32	-1.271
624.65	-1.484
624.99	-1.953
625.32	-1.343
625.65	-0.961
625.98	-0.667
626.31	-2.165
626.64	-0.450
626.97	-0.460
627.30	-1.296
627.63	-1.581
627.96	-1.676
628.29	-1.721
628.62	-2.474
628.95	-1.901
629.28	-2.169
629.61	-2.194
629.94	-1.452
630.26	-1.778
630.59	-0.838
630.92	-2.424
631.25	-1.788
631.58	-2.791
631.91	-2.733
632.24	-2.722
632.57	-0.832
632.90	-1.845
633.23	-2.065
633.56	-1.761
633.89	-3.694
634.22	-1.667
634.55	-1.314
634.88	-2.276
635.20	-1.644
635.53	-1.816
635.86	-0.408
636.19	-2.865
636.52	-1.482
636.85	-4.563
637.18	-1.295
637.51	-4.065
637.83	-2.235
638.16	-1.422
638.49	-3.026
638.82	-3.516
639.15	-3.857
639.48	-2.766
639.81	-2.981
640.13	-3.063
640.46	-3.150
640.79	-3.101
641.12	-2.481
641.45	-2.333
641.77	-4.140
642.10	-1.629
642.43	-2.694
642.76	-2.867
643.09	-3.979
643.41	-4.659
643.74	-2.778
644.07	-3.880
644.40	-4.513
644.73	-5.525
645.05	-5.153
645.38	-4.423
645.71	-4.580
646.04	-4.275
646.36	-2.462
646.69	-1.741
647.02	-1.953
647.35	-2.200
647.67	-0.601
648.00	0.000
648.33	-5.202
648.66	-4.082
648.98	-1.186
649.31	-2.238
649.64	-2.065
649.96	-3.885
650.29	-3.717
650.62	-3.711
650.94	-2.588
651.27	-4.624
651.60	-3.250
651.92	-5.153
652.25	-7.075
652.58	-3.770
652.90	-3.025
653.23	-3.473
653.56	-1.736
653.88	-2.007
654.21	-4.537
654.54	-3.565
654.86	-2.698
655.19	-4.032
655.52	-1.448
655.84	-0.366
656.17	0.036
656.49	0.136
656.82	0.102
657.15	0.128
657.47	0.085
657.80	-0.034
658.13	-0.119
658.45	-0.224
658.78	-0.303
659.10	-0.366
659.43	0.067
659.75	-1.463
660.08	-1.114
660.41	-1.678
660.73	-1.247
661.06	-4.909
661.38	-2.419
661.71	-2.188
662.03	-1.389
662.36	-5.251
662.68	-6.715
663.01	-3.606
663.33	-1.887
663.66	-2.632
663.98	-3.912
664.31	-4.878
664.63	-1.606
664.96	-4.038
665.28	-2.837
665.61	-3.037
665.93	-4.147
666.26	-3.532
666.58	-0.917
666.91	-3.279
667.23	-4.187
667.56	-3.210
667.88	-2.256
668.21	-4.569
668.53	-2.792
668.86	-6.633
669.18	-5.330
669.50	-3.085
669.83	-3.500
670.15	-5.500
670.48	-5.514
670.80	-3.046
671.13	-6.024
671.45	-4.592
671.77	-1.449
672.10	-3.956
672.42	-2.988
672.75	-3.301
673.07	-1.308
673.39	-2.918
673.72	-2.686
674.04	-3.617
674.37	-5.774
674.69	-4.206
675.01	-2.326
675.34	-4.902
675.66	-5.000
675.98	-6.818
676.31	-4.786
676.63	-8.763
676.95	-3.357
677.28	-7.178
677.60	0.000
677.92	-4.261
678.25	-4.176
678.57	-6.729
678.89	-6.422
679.22	-3.899
679.54	-3.786
679.86	-3.426
680.18	-6.067
680.51	-6.776
680.83	-3.333
681.15	-4.357
681.48	-3.404
681.80	-5.435
682.12	-1.285
682.44	-4.957
682.77	-3.182
683.09	-6.618
683.41	-2.757
683.73	-6.533
684.06	-7.868
684.38	-2.158
684.70	-4.619
685.02	-5.628
685.34	-6.904
685.67	-5.929
685.99	-4.192
686.31	-1.306
686.63	-4.466
686.96	-3.862
687.28	-3.491
687.60	-3.080
687.92	-4.430
688.24	-4.632
688.56	-3.736
688.89	-2.511
689.21	-6.047
689.53	-8.440
689.85	-6.582
690.17	-6.618
690.49	-4.706
690.82	-2.948
691.14	-4.178
691.46	-5.250
691.78	-3.828
692.10	-1.606
692.42	-4.128
692.74	-1.896
693.06	-2.651
693.39	-6.404
693.71	-6.279
694.03	-7.246
694.35	-5.198
694.67	-3.053
694.99	-5.121
695.31	-7.365
695.63	-6.216
695.95	-5.618
696.27	-5.382
696.59	-6.231
696.91	-6.553
697.23	-5.158
697.56	-3.886
697.88	-4.450
698.20	-8.959
698.52	-5.288
698.84	-5.514
699.16	-6.069
699.48	-2.880
699.80	-7.418
700.12	-4.959
700.44	-10.029
700.76	-4.732
701.08	-5.714
701.40	-5.592
701.72	-4.333
702.04	-8.503
702.36	-6.230
702.68	-4.362
703.00	-6.625
703.32	-6.587
703.64	-5.994
703.96	-8.228
704.28	-13.380
704.60	-6.164
704.91	-5.921
705.23	-8.070
705.55	-8.922
705.87	-7.194
706.19	-7.570
706.51	-7.813
706.83	-8.425
707.15	-5.763
707.47	-4.491
707.79	-9.456
708.11	-3.704
708.43	-4.000
708.74	-3.005
709.06	-3.988
709.38	-3.264
709.70	-8.117
710.02	-4.895
710.34	-9.220
710.66	-5.618
710.98	-4.895
711.29	-4.811
711.61	-8.156
711.93	-4.494
712.25	-9.811
712.57	-10.547
712.89	-10.612
713.20	-11.290
713.52	-10.569
713.84	-5.474
714.16	-5.405
714.48	-8.191
714.80	-9.428
715.11	-0.687
715.43	-6.485
715.75	-6.316
716.07	-7.636
716.39	-5.802
716.70	-10.000
717.02	-12.903
717.34	-7.359
717.66	-12.273
717.97	-14.815
718.29	-8.000
718.61	-8.108
718.93	-6.723
719.24	-5.021
719.56	-11.161
719.88	-8.235
720.20	-14.103
720.51	-7.895
720.83	-8.787
721.15	-5.306
721.46	-7.595
721.78	-9.091
722.10	-1.938
722.42	-6.087
722.73	-11.312
723.05	-9.217
723.37	-10.407
723.68	-6.635
724.00	-8.333
724.32	-7.944
724.63	-9.050
724.95	-6.393
725.27	-11.737
725.58	-6.393
725.90	-11.712
726.22	-9.607
726.53	-7.377
726.85	-6.667
727.16	-6.883
727.48	-3.226
727.80	-11.872
728.11	-7.556
728.43	-4.938
728.74	-9.649
729.06	-10.480
729.38	1.550
729.69	-6.000
730.01	-7.531
730.32	-9.163
730.64	-4.615
730.96	-8.880
731.27	-4.633
731.59	-5.724
731.90	-5.921
732.22	-3.654
732.53	-6.316
732.85	-7.042
733.16	-2.564
733.48	-10.075
733.80	-6.545
734.11	-3.901
734.43	-5.054
734.74	-5.607
735.06	-3.859
735.37	-5.431
735.69	-9.155
736.00	-10.370
736.32	-3.497
736.63	-5.556
736.95	-12.062
737.26	-4.710
737.58	-10.949
737.89	-4.151
738.21	-5.344
738.52	-4.918
738.83	-9.402
739.15	-8.182
739.46	-13.964
739.78	-9.653
740.09	-10.714
740.41	-4.924
740.72	-11.554
741.04	-7.115
741.35	-8.520
741.66	-6.989
741.98	-11.224
742.29	-13.990
742.61	-12.717
742.92	-9.314
743.23	-3.980
743.55	-12.435
743.86	-8.213
744.18	-8.000
744.49	-11.667
744.80	-2.151
745.12	-9.744
745.43	-9.626
745.74	-17.112
746.06	-6.322
746.37	-15.556
746.68	-10.811
747.00	-13.812
747.31	-7.853
747.62	-7.368
747.94	-3.302
748.25	-3.448
748.56	-7.071
748.88	-10.383
749.19	-8.290
749.50	-11.176
749.82	-1.000
750.13	-7.282
750.44	-6.438
750.75	-3.600
751.07	-12.971
751.38	-6.641
751.69	-3.175
752.01	-8.824
752.32	-3.719
752.63	-9.607
752.94	-7.200
753.26	-10.959
753.57	-6.635
753.88	-11.628
754.19	-8.811
754.51	-13.808
754.82	-10.000
755.13	-11.504
755.44	-9.957
755.75	-7.229
756.07	-9.871
756.38	-8.368
756.69	-4.151
757.00	-3.546
757.31	-5.190
757.63	-4.902
757.94	-6.364
758.25	-2.083
758.56	-4.865
758.87	-3.869
759.18	-1.869
759.50	-4.270
759.81	-9.266
760.12	-7.473
760.43	-3.654
760.74	-5.090
761.05	-4.808
761.36	-2.374
761.67	-4.255
761.99	-3.344
762.30	-8.727
762.61	-4.065
762.92	1.333
763.23	-5.581
763.54	-8.122
763.85	-9.955
764.16	-12.174
764.47	-7.391
764.78	-6.452
765.10	-10.236
765.41	-8.027
765.72	-4.348
766.03	-4.682
766.34	-5.682
766.65	-4.297
766.96	-6.667
767.27	-7.263
767.58	-6.918
767.89	-6.494
768.20	-17.568
768.51	-15.517
768.82	-18.750
769.13	-2.315
769.44	-11.321
769.75	-10.784
770.06	-5.340
770.37	-10.638
770.68	-11.795
770.99	-11.675
771.30	-10.309
771.61	-5.381
771.92	-4.245
772.23	-10.096
772.54	-11.176
772.85	-20.548
773.16	-14.839
773.47	-8.917
773.78	-2.994
774.09	-13.158
774.39	-14.706
774.70	-15.789
775.01	-20.000
775.32	-16.667
775.63	-15.748
775.94	-19.811
776.25	-9.630
776.56	-16.364
776.87	-11.966
777.18	-8.000
777.48	-19.231
777.79	-12.963
778.10	-12.264
778.41	-14.706
778.72	-4.717
779.03	-21.930
779.34	-21.849
779.65	-10.563
779.95	-14.388
780.26	-22.581
780.57	-10.145
780.88	-22.018
781.19	-13.889
781.50	-15.574
781.80	-11.679
782.11	-10.897
782.42	-11.034
782.73	-11.888
783.04	-19.200
783.34	-19.200
783.65	-12.195
783.96	-26.230
784.27	-19.328
784.57	-34.579
784.88	-12.500
785.19	-24.742
785.50	-23.158
785.81	-18.000
786.11	-21.782
786.42	-41.176
786.73	-28.125
787.04	-26.531
787.34	-5.556
787.65	0.000
787.96	-21.649
788.26	-23.762
788.57	-9.565
788.88	-21.101
789.19	-18.182
789.49	-20.870
789.80	0.000
790.11	-37.805
790.41	-15.730
790.72	-23.256
791.03	-24.419
791.33	-31.169
791.64	-14.634
791.95	-13.415
792.25	-28.916
792.56	-25.926
792.87	-29.577
793.17	-3.614
793.48	-10.588
793.79	-22.500
794.09	-35.000
794.40	-17.391
794.70	-20.870
795.01	-6.422
795.32	-14.173
795.62	-30.392
795.93	-15.686
796.23	-11.111
796.54	-10.465
796.85	-28.986
797.15	-26.562
797.46	-37.288
797.76	-22.951
798.07	-22.368
798.37	-40.323
798.68	-35.937
798.99	-10.769
799.29	-24.242
799.60	-30.435
799.90	-28.571
800.21	-42.105
800.51	-25.862
800.82	-45.283
801.12	-29.412
801.43	-19.355
801.73	-19.355
802.04	-38.000
802.34	-33.962
802.65	-42.105
802.95	-16.364
803.26	-33.962
803.56	-19.672
803.87	-46.000
804.17	-42.593
804.48	-13.462
804.78	-51.020
805.09	-21.277
805.39	-15.254
805.70	-60.417
806.00	-19.643
806.30	-35.593
806.61	-15.385
806.91	-41.538
807.22	-28.947
807.52	-17.143
807.83	-44.828
808.13	-20.253
808.43	-34.426
808.74	-39.344
809.04	6.757
809.35	-42.593
809.65	-35.714
809.95	0.000
810.26	-57.143
810.56	-37.736
810.86	-47.059
811.17	-37.838
811.47	-62.963
811.77	-21.569
812.08	-52.273
812.38	-129.167
812.69	-48.718
812.99	-19.048
813.29	-21.739
813.59	-48.571
813.90	-52.381
814.20	-32.727
814.50	-26.531
814.81	-35.294
815.11	-22.917
815.41	-56.098
815.72	-76.923
816.02	-27.660
816.32	-56.250
816.62	-60.606
816.93	-69.697
817.23	-32.432
817.53	-38.235
817.84	-32.500
818.14	-70.588
818.44	-75.000
818.74	-152.381
819.04	-62.857
819.35	-42.857
819.65	-4.545
819.95	-43.590
820.25	-127.778
820.56	-89.655
820.86	-78.571
821.16	-100.000
821.46	-30.952
821.76	-22.222
822.07	-47.826
822.37	-42.857
822.67	-69.767
822.97	-117.391
823.27	-46.154
823.57	-111.111
823.88	-64.286
824.18	-35.897
824.48	-60.714
824.78	-51.515
825.08	-173.333
825.38	-40.000
825.69	-161.111
825.99	-62.963
826.29	6.667
826.59	-114.815
826.89	-44.444
827.19	-39.286
827.49	-100.000
827.79	-127.273
828.09	-109.091
828.39	-100.000
828.70	-96.296
829.00	-60.714
829.30	-16.667
829.60	-29.032
829.90	-100.000
830.20	-43.590
830.50	-86.364
830.80	-47.619
831.10	-100.000
831.40	-128.571
831.70	-48.148
832.00	-117.647
832.30	-65.217
832.60	-62.500
832.90	-181.818
833.20	-116.667
833.50	-37.500
833.80	-30.769
834.10	4.000
834.40	-66.667
834.70	-113.636
835.00	-61.538
835.30	-85.000
835.60	-290.000
835.90	-75.000
836.20	-107.143
836.50	-52.174
836.80	-127.778
837.10	-133.333
837.40	-290.000
837.70	-91.304
838.00	-85.714
838.30	2700.000
838.60	-4.000
838.90	-460.000
839.19	-66.667
839.49	-1700.000
839.79	-105.882
840.09	-222.222
840.39	-28.571
840.69	-138.889
840.99	-108.333
841.29	-48.276
841.59	-173.333
841.88	-145.455
842.18	-583.333
842.48	-106.250
842.78	-65.385
843.08	-147.059
843.38	-40.000
843.68	-130.769
843.97	-129.412
844.27	-250.000
844.57	-37.500
844.87	-118.182
845.17	-126.316
845.47	-116.667
845.76	-27.778
846.06	-109.524
846.36	-100.000
846.66	-255.556
846.96	-90.000
847.25	-520.000
847.55	-212.500
847.85	-80.000
848.15	-325.000
848.44	-105.263
848.74	-160.000
849.04	-100.000
849.34	-633.333
849.63	-183.333
849.93	-70.588
850.23	-236.364
850.53	-533.333
850.82	-240.000
851.12	-288.889
851.42	-300.000
851.71	-320.000
852.01	-71.429
852.31	-533.333
852.61	-138.462
852.90	-380.000
853.20	-244.444
853.50	-222.222
853.79	-90.000
854.09	-145.000
854.39	-136.842
854.68	-105.000
854.98	-750.000
855.28	-111.111
855.57	-200.000
855.87	-100.000
856.17	-193.750
856.46	-38.462
856.76	-153.333
857.05	-106.250
857.35	-54.167
857.65	-77.778
857.94	-175.000
858.24	-78.261
858.53	-180.000
858.83	-833.333
859.13	-254.545
859.42	-220.000
859.72	250.000
860.01	-123.077
860.31	-200.000
860.60	-287.500
860.90	-600.000
861.20	-283.333
861.49	-450.000
861.79	750.000
862.08	0.000
862.38	-105.263
862.67	-84.615
862.97	-130.000
863.26	-133.333
863.56	-34.783
863.85	-433.333
864.15	-114.286
864.44	-106.250
864.74	-175.000
865.03	-311.111
865.33	-766.667
865.62	-2000.000
865.92	-1300.000
866.21	-250.000
866.51	-181.818
866.80	-600.000
867.10	-385.714
867.39	-33.333
867.69	-108.333
867.98	280.000
868.27	-600.000
868.57	875.000
868.86	-166.667
869.16	-84.615
869.45	1450.000
869.75	-300.000
870.04	-275.000
870.33	-47.059
870.63	-285.714
870.92	13.043
871.22	-262.500
871.51	620.000
871.80	-43.750
872.10	-433.333
>>>>>End Processed Spectral Data<<<<<
