SpectraSuite Data File
++++++++++++++++++++++++++++++++++++
Date: Thu May 14 11:18:24 PDT 2015
User: schluterlab
Dark Spectrum Present: Yes
Reference Spectrum Present: No
Number of Sampled Component Spectra: 1
Spectrometers: USB2E3373
Integration Time (usec): 2300000 (USB2E3373)
Spectra Averaged: 3 (USB2E3373)
Boxcar Smoothing: 0 (USB2E3373)
Correct for Electrical Dark: No (USB2E3373)
Strobe/Lamp Enabled: No (USB2E3373)
Correct for Detector Non-linearity: No (USB2E3373)
Correct for Stray Light: No (USB2E3373)
Number of Pixels in Processed Spectrum: 2048
>>>>>Begin Processed Spectral Data<<<<<
178.53	0.0000E00
178.91	0.0000E00
179.29	0.0000E00
179.67	0.0000E00
180.04	0.0000E00
180.42	0.0000E00
180.80	0.0000E00
181.18	0.0000E00
181.56	0.0000E00
181.94	0.0000E00
182.31	0.0000E00
182.69	0.0000E00
183.07	0.0000E00
183.45	0.0000E00
183.83	0.0000E00
184.20	0.0000E00
184.58	0.0000E00
184.96	0.0000E00
185.34	0.0000E00
185.72	0.0000E00
186.09	0.0000E00
186.47	0.0000E00
186.85	0.0000E00
187.23	0.0000E00
187.61	0.0000E00
187.98	0.0000E00
188.36	0.0000E00
188.74	0.0000E00
189.12	0.0000E00
189.49	0.0000E00
189.87	0.0000E00
190.25	0.0000E00
190.63	0.0000E00
191.00	0.0000E00
191.38	0.0000E00
191.76	0.0000E00
192.14	0.0000E00
192.51	0.0000E00
192.89	0.0000E00
193.27	0.0000E00
193.65	0.0000E00
194.02	0.0000E00
194.40	0.0000E00
194.78	0.0000E00
195.15	0.0000E00
195.53	0.0000E00
195.91	0.0000E00
196.29	0.0000E00
196.66	0.0000E00
197.04	0.0000E00
197.42	0.0000E00
197.79	0.0000E00
198.17	0.0000E00
198.55	0.0000E00
198.92	0.0000E00
199.30	0.0000E00
199.68	0.0000E00
200.05	0.0000E00
200.43	0.0000E00
200.81	0.0000E00
201.18	0.0000E00
201.56	0.0000E00
201.94	0.0000E00
202.31	0.0000E00
202.69	0.0000E00
203.07	0.0000E00
203.44	0.0000E00
203.82	0.0000E00
204.19	0.0000E00
204.57	0.0000E00
204.95	0.0000E00
205.32	0.0000E00
205.70	0.0000E00
206.08	-0.0000E00
206.45	0.0000E00
206.83	0.0000E00
207.20	0.0000E00
207.58	0.0000E00
207.96	0.0000E00
208.33	0.0000E00
208.71	0.0000E00
209.08	0.0000E00
209.46	0.0000E00
209.84	-0.0000E00
210.21	0.0000E00
210.59	0.0000E00
210.96	0.0000E00
211.34	0.0000E00
211.71	0.0000E00
212.09	0.0000E00
212.46	0.0000E00
212.84	0.0000E00
213.22	0.0000E00
213.59	0.0000E00
213.97	0.0000E00
214.34	0.0000E00
214.72	0.0000E00
215.09	0.0000E00
215.47	0.0000E00
215.84	0.0000E00
216.22	0.0000E00
216.59	0.0000E00
216.97	0.0000E00
217.34	0.0000E00
217.72	0.0000E00
218.09	0.0000E00
218.47	0.0000E00
218.84	0.0000E00
219.22	0.0000E00
219.59	0.0000E00
219.97	0.0000E00
220.34	0.0000E00
220.72	0.0000E00
221.09	0.0000E00
221.47	0.0000E00
221.84	0.0000E00
222.22	0.0000E00
222.59	0.0000E00
222.97	0.0000E00
223.34	0.0000E00
223.72	0.0000E00
224.09	0.0000E00
224.46	0.0000E00
224.84	0.0000E00
225.21	0.0000E00
225.59	0.0000E00
225.96	0.0000E00
226.34	0.0000E00
226.71	0.0000E00
227.08	0.0000E00
227.46	0.0000E00
227.83	0.0000E00
228.21	0.0000E00
228.58	0.0000E00
228.95	0.0000E00
229.33	0.0000E00
229.70	0.0000E00
230.08	0.0000E00
230.45	0.0000E00
230.82	0.0000E00
231.20	0.0000E00
231.57	0.0000E00
231.95	0.0000E00
232.32	0.0000E00
232.69	0.0000E00
233.07	0.0000E00
233.44	0.0000E00
233.81	0.0000E00
234.19	0.0000E00
234.56	0.0000E00
234.93	0.0000E00
235.31	0.0000E00
235.68	0.0000E00
236.05	0.0000E00
236.43	0.0000E00
236.80	0.0000E00
237.17	0.0000E00
237.55	0.0000E00
237.92	0.0000E00
238.29	0.0000E00
238.67	0.0000E00
239.04	0.0000E00
239.41	0.0000E00
239.79	0.0000E00
240.16	0.0000E00
240.53	0.0000E00
240.91	0.0000E00
241.28	0.0000E00
241.65	0.0000E00
242.02	0.0000E00
242.40	0.0000E00
242.77	0.0000E00
243.14	0.0000E00
243.51	0.0000E00
243.89	0.0000E00
244.26	0.0000E00
244.63	0.0000E00
245.00	0.0000E00
245.38	0.0000E00
245.75	0.0000E00
246.12	0.0000E00
246.49	0.0000E00
246.87	0.0000E00
247.24	0.0000E00
247.61	0.0000E00
247.98	0.0000E00
248.36	0.0000E00
248.73	0.0000E00
249.10	0.0000E00
249.47	0.0000E00
249.84	0.0000E00
250.22	0.0000E00
250.59	0.0000E00
250.96	0.0000E00
251.33	0.0000E00
251.70	0.0000E00
252.08	0.0000E00
252.45	0.0000E00
252.82	0.0000E00
253.19	0.0000E00
253.56	0.0000E00
253.94	0.0000E00
254.31	0.0000E00
254.68	0.0000E00
255.05	0.0000E00
255.42	0.0000E00
255.79	0.0000E00
256.16	0.0000E00
256.54	0.0000E00
256.91	0.0000E00
257.28	0.0000E00
257.65	0.0000E00
258.02	0.0000E00
258.39	0.0000E00
258.76	0.0000E00
259.14	0.0000E00
259.51	0.0000E00
259.88	0.0000E00
260.25	0.0000E00
260.62	0.0000E00
260.99	0.0000E00
261.36	0.0000E00
261.73	0.0000E00
262.10	0.0000E00
262.47	0.0000E00
262.85	0.0000E00
263.22	0.0000E00
263.59	0.0000E00
263.96	0.0000E00
264.33	0.0000E00
264.70	0.0000E00
265.07	0.0000E00
265.44	0.0000E00
265.81	0.0000E00
266.18	0.0000E00
266.55	0.0000E00
266.92	0.0000E00
267.29	0.0000E00
267.66	-0.0000E00
268.03	0.0000E00
268.40	0.0000E00
268.77	0.0000E00
269.14	0.0000E00
269.51	0.0000E00
269.88	0.0000E00
270.25	0.0000E00
270.62	0.0000E00
270.99	0.0000E00
271.36	0.0000E00
271.73	0.0000E00
272.10	0.0000E00
272.47	0.0000E00
272.84	0.0000E00
273.21	0.0000E00
273.58	0.0000E00
273.95	0.0000E00
274.32	0.0000E00
274.69	0.0000E00
275.06	0.0000E00
275.43	0.0000E00
275.80	0.0000E00
276.17	0.0000E00
276.54	0.0000E00
276.91	0.0000E00
277.28	0.0000E00
277.65	0.0000E00
278.02	0.0000E00
278.39	0.0000E00
278.76	0.0000E00
279.13	0.0000E00
279.50	0.0000E00
279.87	0.0000E00
280.23	0.0000E00
280.60	0.0000E00
280.97	0.0000E00
281.34	0.0000E00
281.71	0.0000E00
282.08	0.0000E00
282.45	0.0000E00
282.82	0.0000E00
283.19	0.0000E00
283.56	0.0000E00
283.92	0.0000E00
284.29	0.0000E00
284.66	0.0000E00
285.03	0.0000E00
285.40	0.0000E00
285.77	0.0000E00
286.14	0.0000E00
286.51	0.0000E00
286.87	0.0000E00
287.24	0.0000E00
287.61	0.0000E00
287.98	0.0000E00
288.35	0.0000E00
288.72	0.0000E00
289.08	0.0000E00
289.45	0.0000E00
289.82	0.0000E00
290.19	0.0000E00
290.56	0.0000E00
290.93	0.0000E00
291.29	0.0000E00
291.66	0.0000E00
292.03	0.0000E00
292.40	0.0000E00
292.77	0.0000E00
293.13	0.0000E00
293.50	0.0000E00
293.87	0.0000E00
294.24	0.0000E00
294.60	0.0000E00
294.97	0.0000E00
295.34	0.0000E00
295.71	0.0000E00
296.08	0.0000E00
296.44	0.0000E00
296.81	0.0000E00
297.18	0.0000E00
297.55	0.0000E00
297.91	0.0000E00
298.28	0.0000E00
298.65	0.0000E00
299.02	0.0000E00
299.38	0.0000E00
299.75	0.0000E00
300.12	1.0781E-01
300.48	1.3732E-01
300.85	1.0039E-01
301.22	1.9725E-01
301.59	1.2260E-01
301.95	1.2707E-01
302.32	9.7227E-02
302.69	1.1713E-01
303.05	1.0826E-01
303.42	1.7429E-01
303.79	1.6239E-01
304.15	1.1193E-01
304.52	1.2940E-01
304.89	1.4732E-01
305.25	8.8196E-02
305.62	1.1121E-01
305.99	1.3349E-01
306.35	1.0072E-01
306.72	1.2448E-01
307.09	1.9361E-01
307.45	1.6113E-01
307.82	1.7099E-01
308.19	6.2142E-01
308.55	1.3942E-01
308.92	1.2538E-01
309.29	1.0847E-01
309.65	1.9833E-01
310.02	1.8072E-01
310.38	1.2934E-01
310.75	1.0236E-01
311.12	1.5745E-01
311.48	1.2668E-01
311.85	1.9565E-01
312.22	1.4285E-01
312.58	2.2620E-01
312.95	1.0225E-01
313.31	1.1984E-01
313.68	1.6531E-01
314.05	1.4782E-01
314.41	1.7033E-01
314.78	1.4979E-01
315.14	6.1347E-01
315.51	1.6466E-01
315.87	1.1630E-01
316.24	2.7490E-01
316.61	1.6626E-01
316.97	1.6863E-01
317.34	1.9620E-01
317.70	1.3543E-01
318.07	1.6750E-01
318.43	1.7223E-01
318.80	2.5448E-01
319.16	1.7162E-01
319.53	4.3854E00
319.89	2.4445E-01
320.26	1.9809E-01
320.62	2.4805E-01
320.99	1.9422E-01
321.35	2.0821E-01
321.72	3.1709E-01
322.08	1.8600E-01
322.45	4.6823E-01
322.81	2.4034E-01
323.18	1.6690E-01
323.54	1.6025E-01
323.91	3.3115E-01
324.27	2.4851E-01
324.64	8.0238E-01
325.00	1.9946E-01
325.37	7.0331E-01
325.73	1.9666E-01
326.10	8.3717E-01
326.46	2.1700E-01
326.83	2.3113E-01
327.19	2.3363E-01
327.56	2.4245E-01
327.92	3.5870E-01
328.29	4.5618E-01
328.65	3.8354E-01
329.01	5.4425E-01
329.38	2.3987E-01
329.74	2.4802E-01
330.11	3.4630E-01
330.47	3.9047E-01
330.84	2.8981E-01
331.20	2.8265E-01
331.56	3.2507E-01
331.93	2.7411E-01
332.29	3.6085E-01
332.66	3.4736E-01
333.02	2.2404E-01
333.38	2.5806E-01
333.75	2.7884E-01
334.11	3.9130E-01
334.48	4.0115E-01
334.84	3.3619E-01
335.20	2.7893E-01
335.57	3.2292E-01
335.93	4.4623E-01
336.29	3.7685E-01
336.66	3.1604E-01
337.02	3.9004E-01
337.38	3.0272E-01
337.75	2.5935E-01
338.11	2.0091E-01
338.47	3.6790E-01
338.84	4.8807E-01
339.20	8.9620E-01
339.56	3.3986E-01
339.93	4.3901E-01
340.29	3.0367E-01
340.65	3.3657E-01
341.02	3.5255E-01
341.38	3.2460E-01
341.74	3.0801E-01
342.11	3.1663E-01
342.47	4.3778E-01
342.83	5.9705E-01
343.20	2.9929E-01
343.56	5.1770E-01
343.92	4.5994E-01
344.28	3.8853E-01
344.65	3.6589E-01
345.01	4.0207E-01
345.37	3.3603E-01
345.73	3.7083E-01
346.10	4.8463E-01
346.46	4.1491E-01
346.82	2.9810E-01
347.19	6.8971E-01
347.55	3.6283E-01
347.91	7.1648E-01
348.27	4.5531E-01
348.63	3.8048E-01
349.00	3.9244E-01
349.36	3.4915E-01
349.72	4.2389E-01
350.08	5.4627E-01
350.45	5.9454E-01
350.81	5.7764E-01
351.17	4.3121E-01
351.53	5.9041E-01
351.89	5.4164E-01
352.26	5.0847E-01
352.62	5.2125E-01
352.98	3.3858E-01
353.34	5.9894E-01
353.70	4.8911E-01
354.07	4.4079E-01
354.43	6.0231E-01
354.79	4.3725E-01
355.15	4.4423E-01
355.51	5.1724E-01
355.87	3.3877E-01
356.24	4.8507E-01
356.60	5.2763E-01
356.96	4.6155E-01
357.32	4.9155E-01
357.68	3.5496E-01
358.04	3.9858E-01
358.40	4.0426E-01
358.77	3.3314E-01
359.13	4.5430E-01
359.49	4.8708E-01
359.85	5.1327E-01
360.21	4.9320E-01
360.57	4.6257E-01
360.93	4.2787E-01
361.29	5.4742E-01
361.66	7.6886E-01
362.02	4.9756E-01
362.38	6.8013E-01
362.74	4.7410E-01
363.10	6.6981E-01
363.46	5.1285E-01
363.82	5.2964E-01
364.18	6.0776E-01
364.54	5.6817E-01
364.90	4.6269E-01
365.26	6.2988E-01
365.62	5.9966E-01
365.98	8.8960E-01
366.35	8.1841E-01
366.71	7.0761E-01
367.07	7.0788E-01
367.43	7.0994E-01
367.79	6.8224E-01
368.15	5.5218E-01
368.51	7.1315E-01
368.87	5.9992E-01
369.23	6.6475E-01
369.59	7.9665E-01
369.95	8.1888E-01
370.31	6.4665E-01
370.67	6.8466E-01
371.03	7.6422E-01
371.39	7.2998E-01
371.75	6.5492E-01
372.11	7.7869E-01
372.47	6.0835E-01
372.83	7.5510E-01
373.19	6.4289E-01
373.55	6.9121E-01
373.91	7.0121E-01
374.27	7.5141E-01
374.63	6.2362E-01
374.99	6.3083E-01
375.35	6.9744E-01
375.71	6.3842E-01
376.07	7.5086E-01
376.42	7.1703E-01
376.78	8.0665E-01
377.14	7.6427E-01
377.50	7.4261E-01
377.86	8.9359E-01
378.22	8.6771E-01
378.58	9.7801E-01
378.94	7.7136E-01
379.30	7.7889E-01
379.66	8.3046E-01
380.02	7.5189E-01
380.38	8.0163E-01
380.74	9.5503E-01
381.09	7.9394E-01
381.45	8.3331E-01
381.81	6.8373E-01
382.17	8.2349E-01
382.53	6.8205E-01
382.89	6.2599E-01
383.25	6.2208E-01
383.61	5.8270E-01
383.97	5.8170E-01
384.32	5.8488E-01
384.68	7.7079E-01
385.04	7.2410E-01
385.40	7.4064E-01
385.76	8.6494E-01
386.12	7.1529E-01
386.48	7.7142E-01
386.83	8.3119E-01
387.19	7.5676E-01
387.55	7.9584E-01
387.91	7.3506E-01
388.27	7.9356E-01
388.62	8.4794E-01
388.98	7.2883E-01
389.34	8.8486E-01
389.70	8.2664E-01
390.06	8.3188E-01
390.42	1.0305E00
390.77	9.4687E-01
391.13	9.9382E-01
391.49	1.0754E00
391.85	1.1744E00
392.20	1.1022E00
392.56	9.5109E-01
392.92	8.4523E-01
393.28	7.2447E-01
393.64	6.2267E-01
393.99	6.1507E-01
394.35	6.7406E-01
394.71	7.6448E-01
395.07	8.2348E-01
395.42	1.0149E00
395.78	1.0650E00
396.14	1.0234E00
396.50	9.2337E-01
396.85	8.8487E-01
397.21	7.0736E-01
397.57	7.7405E-01
397.92	8.8043E-01
398.28	1.0290E00
398.64	1.1235E00
399.00	1.0357E00
399.35	1.0008E00
399.71	1.0269E00
400.07	1.0790E00
400.42	1.0209E00
400.78	1.0344E00
401.14	9.6972E-01
401.49	1.0295E00
401.85	9.6275E-01
402.21	1.0421E00
402.57	1.0429E00
402.92	1.0128E00
403.28	9.8123E-01
403.63	9.7764E-01
403.99	9.7092E-01
404.35	9.7865E-01
404.70	1.0275E00
405.06	9.3113E-01
405.42	1.0335E00
405.77	9.5418E-01
406.13	9.4271E-01
406.49	8.9572E-01
406.84	9.6927E-01
407.20	9.2686E-01
407.55	1.0151E00
407.91	1.0131E00
408.27	9.2271E-01
408.62	9.0704E-01
408.98	9.1494E-01
409.34	9.0565E-01
409.69	9.5935E-01
410.05	9.2656E-01
410.40	9.1681E-01
410.76	8.7865E-01
411.11	8.3546E-01
411.47	9.1820E-01
411.83	8.5192E-01
412.18	8.5684E-01
412.54	9.1958E-01
412.89	9.1915E-01
413.25	8.5103E-01
413.60	8.8013E-01
413.96	9.4305E-01
414.31	9.0574E-01
414.67	9.5905E-01
415.03	9.6092E-01
415.38	9.2046E-01
415.74	9.5284E-01
416.09	8.8044E-01
416.45	9.4435E-01
416.80	8.8282E-01
417.16	9.5182E-01
417.51	8.9116E-01
417.87	8.7863E-01
418.22	8.5991E-01
418.58	9.2602E-01
418.93	8.3145E-01
419.29	9.0537E-01
419.64	8.7375E-01
420.00	8.3593E-01
420.35	8.1018E-01
420.71	8.6045E-01
421.06	8.4970E-01
421.42	8.5831E-01
421.77	8.6089E-01
422.12	8.6021E-01
422.48	8.3428E-01
422.83	8.8113E-01
423.19	8.4451E-01
423.54	8.4424E-01
423.90	8.4536E-01
424.25	8.0581E-01
424.61	8.4927E-01
424.96	8.3373E-01
425.31	8.0236E-01
425.67	8.0347E-01
426.02	8.1613E-01
426.38	8.0903E-01
426.73	7.9322E-01
427.09	8.1230E-01
427.44	7.4901E-01
427.79	8.0457E-01
428.15	7.8738E-01
428.50	8.0329E-01
428.85	8.2881E-01
429.21	7.6672E-01
429.56	7.4095E-01
429.92	7.6183E-01
430.27	7.5131E-01
430.62	7.8500E-01
430.98	8.0335E-01
431.33	7.7166E-01
431.68	7.7063E-01
432.04	7.3921E-01
432.39	7.5635E-01
432.74	8.0572E-01
433.10	7.3023E-01
433.45	7.7141E-01
433.80	7.7611E-01
434.16	7.7975E-01
434.51	7.4689E-01
434.86	7.8247E-01
435.22	7.3811E-01
435.57	8.1335E-01
435.92	7.5811E-01
436.28	7.8490E-01
436.63	7.3252E-01
436.98	7.4057E-01
437.34	7.5751E-01
437.69	7.3072E-01
438.04	7.0808E-01
438.39	7.6248E-01
438.75	7.3321E-01
439.10	7.0532E-01
439.45	7.4630E-01
439.81	7.2418E-01
440.16	7.0695E-01
440.51	7.2615E-01
440.86	7.2402E-01
441.22	7.1674E-01
441.57	7.3103E-01
441.92	7.1086E-01
442.27	7.4565E-01
442.63	7.1722E-01
442.98	7.6274E-01
443.33	7.4447E-01
443.68	7.1805E-01
444.03	6.6801E-01
444.39	6.6880E-01
444.74	7.2056E-01
445.09	7.3368E-01
445.44	7.2587E-01
445.79	6.5717E-01
446.15	7.2253E-01
446.50	7.0855E-01
446.85	6.7526E-01
447.20	6.6626E-01
447.55	6.8594E-01
447.91	6.9705E-01
448.26	6.9407E-01
448.61	7.0658E-01
448.96	6.8447E-01
449.31	6.8202E-01
449.66	7.1763E-01
450.02	6.7792E-01
450.37	7.0878E-01
450.72	6.7678E-01
451.07	7.1594E-01
451.42	7.1767E-01
451.77	6.9435E-01
452.12	6.9300E-01
452.47	7.3281E-01
452.83	6.5055E-01
453.18	7.0014E-01
453.53	6.8247E-01
453.88	6.4605E-01
454.23	6.5278E-01
454.58	6.4988E-01
454.93	6.8108E-01
455.28	6.7353E-01
455.63	6.7074E-01
455.98	6.5541E-01
456.34	6.8348E-01
456.69	6.7485E-01
457.04	6.5801E-01
457.39	6.3141E-01
457.74	6.2209E-01
458.09	6.4689E-01
458.44	6.2841E-01
458.79	6.0167E-01
459.14	6.2866E-01
459.49	6.4635E-01
459.84	6.2322E-01
460.19	6.5840E-01
460.54	6.4792E-01
460.89	6.0002E-01
461.24	6.6060E-01
461.59	6.3263E-01
461.94	6.5241E-01
462.29	6.0006E-01
462.64	6.4910E-01
462.99	6.5582E-01
463.34	6.6009E-01
463.69	6.2727E-01
464.04	5.8970E-01
464.39	6.0006E-01
464.74	6.1751E-01
465.09	6.3854E-01
465.44	6.0033E-01
465.79	6.2634E-01
466.14	6.2893E-01
466.49	6.0855E-01
466.84	6.1478E-01
467.19	6.1840E-01
467.54	6.4001E-01
467.89	6.0322E-01
468.24	5.7736E-01
468.59	5.8446E-01
468.94	5.7718E-01
469.29	5.8068E-01
469.64	5.9169E-01
469.99	5.7961E-01
470.34	5.5602E-01
470.68	5.9550E-01
471.03	5.7543E-01
471.38	5.5899E-01
471.73	5.6038E-01
472.08	5.3944E-01
472.43	5.2296E-01
472.78	5.4406E-01
473.13	5.4673E-01
473.48	5.4429E-01
473.83	5.2387E-01
474.17	5.3281E-01
474.52	5.3029E-01
474.87	5.0561E-01
475.22	5.1459E-01
475.57	4.8893E-01
475.92	4.7212E-01
476.27	5.0715E-01
476.61	4.8086E-01
476.96	4.7104E-01
477.31	4.5343E-01
477.66	4.6086E-01
478.01	4.5714E-01
478.36	4.5721E-01
478.70	4.4228E-01
479.05	4.5238E-01
479.40	4.2977E-01
479.75	4.3352E-01
480.10	4.3371E-01
480.45	4.1937E-01
480.79	4.2472E-01
481.14	4.3340E-01
481.49	4.1635E-01
481.84	4.0635E-01
482.19	4.0315E-01
482.53	4.0691E-01
482.88	4.0022E-01
483.23	3.9241E-01
483.58	3.9179E-01
483.92	3.9986E-01
484.27	3.8240E-01
484.62	3.8392E-01
484.97	3.7304E-01
485.31	3.7348E-01
485.66	3.7849E-01
486.01	3.8141E-01
486.36	3.6476E-01
486.70	3.6799E-01
487.05	3.6696E-01
487.40	3.6478E-01
487.75	3.5632E-01
488.09	3.6029E-01
488.44	3.6253E-01
488.79	3.6225E-01
489.13	3.5668E-01
489.48	3.5931E-01
489.83	3.5767E-01
490.17	3.4741E-01
490.52	3.4749E-01
490.87	3.4889E-01
491.22	3.4898E-01
491.56	3.4928E-01
491.91	3.5475E-01
492.26	3.4900E-01
492.60	3.4877E-01
492.95	3.5222E-01
493.30	3.5094E-01
493.64	3.4533E-01
493.99	3.4876E-01
494.34	3.4844E-01
494.68	3.4164E-01
495.03	3.5270E-01
495.37	3.4459E-01
495.72	3.5344E-01
496.07	3.4482E-01
496.41	3.4412E-01
496.76	3.4369E-01
497.11	3.4844E-01
497.45	3.4596E-01
497.80	3.4717E-01
498.14	3.4480E-01
498.49	3.4427E-01
498.84	3.4601E-01
499.18	3.4061E-01
499.53	3.4397E-01
499.87	3.4510E-01
500.22	3.4775E-01
500.56	3.4717E-01
500.91	3.4488E-01
501.26	3.4555E-01
501.60	3.4263E-01
501.95	3.4348E-01
502.29	3.4321E-01
502.64	3.4044E-01
502.98	3.4624E-01
503.33	3.3967E-01
503.67	3.4281E-01
504.02	3.4200E-01
504.36	3.3925E-01
504.71	3.4466E-01
505.06	3.4339E-01
505.40	3.3884E-01
505.75	3.3982E-01
506.09	3.4171E-01
506.44	3.3902E-01
506.78	3.3837E-01
507.13	3.3929E-01
507.47	3.3696E-01
507.82	3.3580E-01
508.16	3.3782E-01
508.51	3.3488E-01
508.85	3.3235E-01
509.19	3.3184E-01
509.54	3.3605E-01
509.88	3.3862E-01
510.23	3.3286E-01
510.57	3.3343E-01
510.92	3.3377E-01
511.26	3.3089E-01
511.61	3.3201E-01
511.95	3.3041E-01
512.30	3.2844E-01
512.64	3.2916E-01
512.98	3.2911E-01
513.33	3.2819E-01
513.67	3.3184E-01
514.02	3.2988E-01
514.36	3.2647E-01
514.70	3.2996E-01
515.05	3.2350E-01
515.39	3.2619E-01
515.74	3.2438E-01
516.08	3.2709E-01
516.42	3.2298E-01
516.77	3.2429E-01
517.11	3.2408E-01
517.46	3.2342E-01
517.80	3.2424E-01
518.14	3.2401E-01
518.49	3.2096E-01
518.83	3.2454E-01
519.17	3.2735E-01
519.52	3.2237E-01
519.86	3.2150E-01
520.20	3.2024E-01
520.55	3.1942E-01
520.89	3.1955E-01
521.23	3.2051E-01
521.58	3.2325E-01
521.92	3.2237E-01
522.26	3.2588E-01
522.61	3.1925E-01
522.95	3.2223E-01
523.29	3.1952E-01
523.64	3.2238E-01
523.98	3.2233E-01
524.32	3.2202E-01
524.66	3.2155E-01
525.01	3.2246E-01
525.35	3.2358E-01
525.69	3.2563E-01
526.04	3.2614E-01
526.38	3.2133E-01
526.72	3.2727E-01
527.06	3.2595E-01
527.41	3.2838E-01
527.75	3.2781E-01
528.09	3.2583E-01
528.43	3.2935E-01
528.78	3.2735E-01
529.12	3.3256E-01
529.46	3.3163E-01
529.80	3.3330E-01
530.15	3.3380E-01
530.49	3.3608E-01
530.83	3.3558E-01
531.17	3.3566E-01
531.51	3.3819E-01
531.86	3.3767E-01
532.20	3.4328E-01
532.54	3.3846E-01
532.88	3.4185E-01
533.22	3.4453E-01
533.57	3.4620E-01
533.91	3.4431E-01
534.25	3.4627E-01
534.59	3.4716E-01
534.93	3.4374E-01
535.27	3.4758E-01
535.62	3.5176E-01
535.96	3.5204E-01
536.30	3.5060E-01
536.64	3.5513E-01
536.98	3.5663E-01
537.32	3.5513E-01
537.66	3.5404E-01
538.01	3.6153E-01
538.35	3.6087E-01
538.69	3.5728E-01
539.03	3.6396E-01
539.37	3.5979E-01
539.71	3.6494E-01
540.05	3.6139E-01
540.39	3.6465E-01
540.73	3.6694E-01
541.07	3.6634E-01
541.42	3.6731E-01
541.76	3.6778E-01
542.10	3.6921E-01
542.44	3.7145E-01
542.78	3.7154E-01
543.12	3.6828E-01
543.46	3.7652E-01
543.80	3.7168E-01
544.14	3.7090E-01
544.48	3.6955E-01
544.82	3.7450E-01
545.16	3.7205E-01
545.50	3.7419E-01
545.84	3.8012E-01
546.18	3.7342E-01
546.52	3.7851E-01
546.86	3.7829E-01
547.20	3.7961E-01
547.54	3.8536E-01
547.88	3.7957E-01
548.22	3.7909E-01
548.56	3.8209E-01
548.90	3.7895E-01
549.24	3.8146E-01
549.58	3.8461E-01
549.92	3.8259E-01
550.26	3.8678E-01
550.60	3.8454E-01
550.94	3.7940E-01
551.28	3.8743E-01
551.62	3.8224E-01
551.96	3.8648E-01
552.30	3.9034E-01
552.64	3.8913E-01
552.98	3.8706E-01
553.32	3.8583E-01
553.66	3.8550E-01
554.00	3.8497E-01
554.34	3.8825E-01
554.68	3.8983E-01
555.02	3.8707E-01
555.36	3.9150E-01
555.69	3.9027E-01
556.03	3.8838E-01
556.37	3.8843E-01
556.71	3.8787E-01
557.05	3.8876E-01
557.39	3.8957E-01
557.73	3.9030E-01
558.07	3.8988E-01
558.41	3.8652E-01
558.75	3.9067E-01
559.08	3.8917E-01
559.42	3.8452E-01
559.76	3.9210E-01
560.10	3.9139E-01
560.44	3.9270E-01
560.78	3.8848E-01
561.12	3.8838E-01
561.45	3.8988E-01
561.79	3.9198E-01
562.13	3.9137E-01
562.47	3.9119E-01
562.81	3.9352E-01
563.15	3.9325E-01
563.48	3.9152E-01
563.82	3.8494E-01
564.16	3.9264E-01
564.50	3.9056E-01
564.84	3.9404E-01
565.17	3.9218E-01
565.51	3.8816E-01
565.85	3.9268E-01
566.19	3.9032E-01
566.52	3.9487E-01
566.86	3.9047E-01
567.20	3.9337E-01
567.54	3.9560E-01
567.88	3.9401E-01
568.21	3.9748E-01
568.55	3.9519E-01
568.89	3.9322E-01
569.23	3.9378E-01
569.56	3.9388E-01
569.90	3.9707E-01
570.24	3.9883E-01
570.57	3.9903E-01
570.91	3.9753E-01
571.25	3.9641E-01
571.59	3.9596E-01
571.92	3.9688E-01
572.26	3.9874E-01
572.60	4.0069E-01
572.93	4.0119E-01
573.27	4.0313E-01
573.61	4.0438E-01
573.95	3.9963E-01
574.28	4.0483E-01
574.62	4.0448E-01
574.96	4.1047E-01
575.29	4.0787E-01
575.63	4.1276E-01
575.97	4.0989E-01
576.30	4.1707E-01
576.64	4.1224E-01
576.98	4.1548E-01
577.31	4.1387E-01
577.65	4.1824E-01
577.98	4.1657E-01
578.32	4.2129E-01
578.66	4.2358E-01
578.99	4.2139E-01
579.33	4.2777E-01
579.67	4.2456E-01
580.00	4.2876E-01
580.34	4.2530E-01
580.67	4.3034E-01
581.01	4.3119E-01
581.35	4.3309E-01
581.68	4.3497E-01
582.02	4.3543E-01
582.35	4.3703E-01
582.69	4.3520E-01
583.02	4.4364E-01
583.36	4.4190E-01
583.70	4.3957E-01
584.03	4.4324E-01
584.37	4.4175E-01
584.70	4.5008E-01
585.04	4.4728E-01
585.37	4.4568E-01
585.71	4.5390E-01
586.04	4.4928E-01
586.38	4.5235E-01
586.72	4.5718E-01
587.05	4.5526E-01
587.39	4.5943E-01
587.72	4.5534E-01
588.06	4.6296E-01
588.39	4.5987E-01
588.73	4.6263E-01
589.06	4.6303E-01
589.40	4.6744E-01
589.73	4.6800E-01
590.07	4.7138E-01
590.40	4.7149E-01
590.73	4.7765E-01
591.07	4.7047E-01
591.40	4.7815E-01
591.74	4.7575E-01
592.07	4.8080E-01
592.41	4.8058E-01
592.74	4.8081E-01
593.08	4.7693E-01
593.41	4.7927E-01
593.75	4.8165E-01
594.08	4.8353E-01
594.41	4.8403E-01
594.75	4.8739E-01
595.08	4.8495E-01
595.42	4.8112E-01
595.75	4.8401E-01
596.09	4.8856E-01
596.42	4.8765E-01
596.75	4.8917E-01
597.09	4.9393E-01
597.42	4.8750E-01
597.75	4.9231E-01
598.09	4.9149E-01
598.42	4.9563E-01
598.76	4.9551E-01
599.09	4.9636E-01
599.42	5.0177E-01
599.76	4.9738E-01
600.09	4.9977E-01
600.42	5.0103E-01
600.76	4.9114E-01
601.09	4.9747E-01
601.42	5.0625E-01
601.76	4.9851E-01
602.09	4.9977E-01
602.42	5.0306E-01
602.76	5.0281E-01
603.09	5.0119E-01
603.42	5.0357E-01
603.76	4.9890E-01
604.09	5.0053E-01
604.42	5.0385E-01
604.76	5.0019E-01
605.09	5.0764E-01
605.42	5.0480E-01
605.75	5.0649E-01
606.09	5.0918E-01
606.42	5.0577E-01
606.75	5.0747E-01
607.09	5.1099E-01
607.42	5.0602E-01
607.75	5.1085E-01
608.08	5.1263E-01
608.42	5.1279E-01
608.75	5.0993E-01
609.08	5.1432E-01
609.41	5.1494E-01
609.75	5.1561E-01
610.08	5.0932E-01
610.41	5.1451E-01
610.74	5.1564E-01
611.07	5.1682E-01
611.41	5.1029E-01
611.74	5.1639E-01
612.07	5.1495E-01
612.40	5.1227E-01
612.73	5.1347E-01
613.07	5.1927E-01
613.40	5.1422E-01
613.73	5.1185E-01
614.06	5.1650E-01
614.39	5.1751E-01
614.72	5.2033E-01
615.06	5.1912E-01
615.39	5.2727E-01
615.72	5.1794E-01
616.05	5.2880E-01
616.38	5.2503E-01
616.71	5.2792E-01
617.05	5.1853E-01
617.38	5.2315E-01
617.71	5.1936E-01
618.04	5.2760E-01
618.37	5.1827E-01
618.70	5.2196E-01
619.03	5.2350E-01
619.36	5.1658E-01
619.69	5.2489E-01
620.03	5.2057E-01
620.36	5.2000E-01
620.69	5.2012E-01
621.02	5.2403E-01
621.35	5.1823E-01
621.68	5.1204E-01
622.01	5.1785E-01
622.34	5.1990E-01
622.67	5.1907E-01
623.00	5.2246E-01
623.33	5.1975E-01
623.66	5.2022E-01
623.99	5.2473E-01
624.32	5.1720E-01
624.65	5.1907E-01
624.99	5.1985E-01
625.32	5.2196E-01
625.65	5.2108E-01
625.98	5.1310E-01
626.31	5.1903E-01
626.64	5.2203E-01
626.97	5.1795E-01
627.30	5.1654E-01
627.63	5.2048E-01
627.96	5.1635E-01
628.29	5.1257E-01
628.62	5.1989E-01
628.95	5.2051E-01
629.28	5.1252E-01
629.61	5.2435E-01
629.94	5.2123E-01
630.26	5.2356E-01
630.59	5.2350E-01
630.92	5.1906E-01
631.25	5.2094E-01
631.58	5.2729E-01
631.91	5.2627E-01
632.24	5.3062E-01
632.57	5.2860E-01
632.90	5.2650E-01
633.23	5.2733E-01
633.56	5.3085E-01
633.89	5.3115E-01
634.22	5.3186E-01
634.55	5.3532E-01
634.88	5.3952E-01
635.20	5.4004E-01
635.53	5.4328E-01
635.86	5.4367E-01
636.19	5.4947E-01
636.52	5.4928E-01
636.85	5.4952E-01
637.18	5.5564E-01
637.51	5.5330E-01
637.83	5.5988E-01
638.16	5.5562E-01
638.49	5.6478E-01
638.82	5.6408E-01
639.15	5.6600E-01
639.48	5.6859E-01
639.81	5.7664E-01
640.13	5.7082E-01
640.46	5.7735E-01
640.79	5.7632E-01
641.12	5.8539E-01
641.45	5.8145E-01
641.77	5.8315E-01
642.10	5.9233E-01
642.43	5.9210E-01
642.76	5.9762E-01
643.09	5.9193E-01
643.41	5.9873E-01
643.74	6.0113E-01
644.07	5.9723E-01
644.40	6.0339E-01
644.73	6.1224E-01
645.05	6.1279E-01
645.38	6.1441E-01
645.71	6.1747E-01
646.04	6.1956E-01
646.36	6.1666E-01
646.69	6.2925E-01
647.02	6.2105E-01
647.35	6.2570E-01
647.67	6.3447E-01
648.00	6.2959E-01
648.33	6.4053E-01
648.66	6.3194E-01
648.98	6.4284E-01
649.31	6.3770E-01
649.64	6.4050E-01
649.96	6.4933E-01
650.29	6.5170E-01
650.62	6.5305E-01
650.94	6.5624E-01
651.27	6.5383E-01
651.60	6.5537E-01
651.92	6.6562E-01
652.25	6.6391E-01
652.58	6.6499E-01
652.90	6.7016E-01
653.23	6.6745E-01
653.56	6.6995E-01
653.88	6.7581E-01
654.21	6.7536E-01
654.54	6.7976E-01
654.86	6.8735E-01
655.19	6.7955E-01
655.52	6.9179E-01
655.84	6.8460E-01
656.17	6.8761E-01
656.49	6.9672E-01
656.82	6.8464E-01
657.15	6.9862E-01
657.47	6.9755E-01
657.80	6.9965E-01
658.13	7.0013E-01
658.45	7.0438E-01
658.78	7.0883E-01
659.10	7.1059E-01
659.43	7.1217E-01
659.75	7.0930E-01
660.08	7.0649E-01
660.41	7.1675E-01
660.73	7.1915E-01
661.06	7.2262E-01
661.38	7.1993E-01
661.71	7.2132E-01
662.03	7.1568E-01
662.36	7.2923E-01
662.68	7.2908E-01
663.01	7.2055E-01
663.33	7.3224E-01
663.66	7.3280E-01
663.98	7.3805E-01
664.31	7.3137E-01
664.63	7.4657E-01
664.96	7.3509E-01
665.28	7.4333E-01
665.61	7.4137E-01
665.93	7.4218E-01
666.26	7.4588E-01
666.58	7.4952E-01
666.91	7.4381E-01
667.23	7.5267E-01
667.56	7.4892E-01
667.88	7.5124E-01
668.21	7.5995E-01
668.53	7.5246E-01
668.86	7.5873E-01
669.18	7.5767E-01
669.50	7.6792E-01
669.83	7.6537E-01
670.15	7.6705E-01
670.48	7.7166E-01
670.80	7.6727E-01
671.13	7.6442E-01
671.45	7.7227E-01
671.77	7.7567E-01
672.10	7.7032E-01
672.42	7.8472E-01
672.75	7.7696E-01
673.07	7.8606E-01
673.39	7.8063E-01
673.72	7.8525E-01
674.04	7.9102E-01
674.37	7.8723E-01
674.69	7.8304E-01
675.01	7.9912E-01
675.34	7.9632E-01
675.66	7.9914E-01
675.98	7.8777E-01
676.31	8.0229E-01
676.63	7.9904E-01
676.95	7.9813E-01
677.28	8.0500E-01
677.60	8.0800E-01
677.92	8.1218E-01
678.25	8.1412E-01
678.57	8.1477E-01
678.89	8.1104E-01
679.22	8.2186E-01
679.54	8.1503E-01
679.86	8.2717E-01
680.18	8.1899E-01
680.51	8.1914E-01
680.83	8.3847E-01
681.15	8.2526E-01
681.48	8.3567E-01
681.80	8.2911E-01
682.12	8.3142E-01
682.44	8.4017E-01
682.77	8.4420E-01
683.09	8.4933E-01
683.41	8.4773E-01
683.73	8.5483E-01
684.06	8.5042E-01
684.38	8.5047E-01
684.70	8.5830E-01
685.02	8.6347E-01
685.34	8.6618E-01
685.67	8.6260E-01
685.99	8.7643E-01
686.31	8.6712E-01
686.63	8.8246E-01
686.96	8.8462E-01
687.28	8.8919E-01
687.60	8.7698E-01
687.92	8.8620E-01
688.24	8.9226E-01
688.56	9.0167E-01
688.89	8.9268E-01
689.21	9.0373E-01
689.53	9.0273E-01
689.85	9.1347E-01
690.17	9.0543E-01
690.49	9.2596E-01
690.82	9.1599E-01
691.14	9.2021E-01
691.46	9.1883E-01
691.78	9.2912E-01
692.10	9.2348E-01
692.42	9.3569E-01
692.74	9.3621E-01
693.06	9.4141E-01
693.39	9.5349E-01
693.71	9.6653E-01
694.03	9.6178E-01
694.35	9.6063E-01
694.67	9.6335E-01
694.99	9.7768E-01
695.31	9.7617E-01
695.63	9.8069E-01
695.95	9.8136E-01
696.27	9.8584E-01
696.59	9.8758E-01
696.91	9.9663E-01
697.23	1.0002E00
697.56	1.0041E00
697.88	1.0025E00
698.20	1.0100E00
698.52	1.0153E00
698.84	1.0290E00
699.16	1.0361E00
699.48	1.0240E00
699.80	1.0473E00
700.12	1.0380E00
700.44	1.0416E00
700.76	1.0498E00
701.08	1.0651E00
701.40	1.0645E00
701.72	1.0672E00
702.04	1.0754E00
702.36	1.0738E00
702.68	1.0848E00
703.00	1.0952E00
703.32	1.0898E00
703.64	1.1053E00
703.96	1.1023E00
704.28	1.1110E00
704.60	1.1186E00
704.91	1.1259E00
705.23	1.1259E00
705.55	1.1374E00
705.87	1.1380E00
706.19	1.1379E00
706.51	1.1512E00
706.83	1.1456E00
707.15	1.1744E00
707.47	1.1639E00
707.79	1.1789E00
708.11	1.1738E00
708.43	1.1821E00
708.74	1.1835E00
709.06	1.1941E00
709.38	1.2055E00
709.70	1.2032E00
710.02	1.2112E00
710.34	1.2062E00
710.66	1.2309E00
710.98	1.2273E00
711.29	1.2330E00
711.61	1.2529E00
711.93	1.2639E00
712.25	1.2517E00
712.57	1.2697E00
712.89	1.2755E00
713.20	1.2676E00
713.52	1.2865E00
713.84	1.2905E00
714.16	1.2821E00
714.48	1.2948E00
714.80	1.3134E00
715.11	1.3117E00
715.43	1.3263E00
715.75	1.3309E00
716.07	1.3352E00
716.39	1.3238E00
716.70	1.3361E00
717.02	1.3329E00
717.34	1.3609E00
717.66	1.3644E00
717.97	1.3773E00
718.29	1.3844E00
718.61	1.3909E00
718.93	1.4068E00
719.24	1.4014E00
719.56	1.4270E00
719.88	1.4259E00
720.20	1.4496E00
720.51	1.4654E00
720.83	1.4442E00
721.15	1.4750E00
721.46	1.4738E00
721.78	1.4842E00
722.10	1.5114E00
722.42	1.5062E00
722.73	1.5254E00
723.05	1.5154E00
723.37	1.5319E00
723.68	1.5511E00
724.00	1.5379E00
724.32	1.5631E00
724.63	1.5539E00
724.95	1.5670E00
725.27	1.5776E00
725.58	1.5772E00
725.90	1.5701E00
726.22	1.5965E00
726.53	1.5782E00
726.85	1.6018E00
727.16	1.6078E00
727.48	1.6202E00
727.80	1.6174E00
728.11	1.6180E00
728.43	1.6247E00
728.74	1.6265E00
729.06	1.6507E00
729.38	1.6497E00
729.69	1.6396E00
730.01	1.6573E00
730.32	1.6577E00
730.64	1.6545E00
730.96	1.6642E00
731.27	1.6929E00
731.59	1.6675E00
731.90	1.6902E00
732.22	1.6911E00
732.53	1.6911E00
732.85	1.7125E00
733.16	1.7178E00
733.48	1.7229E00
733.80	1.6990E00
734.11	1.7326E00
734.43	1.7256E00
734.74	1.7314E00
735.06	1.7623E00
735.37	1.7430E00
735.69	1.7635E00
736.00	1.7731E00
736.32	1.7740E00
736.63	1.7794E00
736.95	1.7839E00
737.26	1.8033E00
737.58	1.7927E00
737.89	1.8135E00
738.21	1.8171E00
738.52	1.8102E00
738.83	1.8298E00
739.15	1.8210E00
739.46	1.8423E00
739.78	1.8531E00
740.09	1.8535E00
740.41	1.8539E00
740.72	1.8510E00
741.04	1.8522E00
741.35	1.8536E00
741.66	1.8453E00
741.98	1.8716E00
742.29	1.8649E00
742.61	1.8743E00
742.92	1.8656E00
743.23	1.8760E00
743.55	1.8981E00
743.86	1.8923E00
744.18	1.8753E00
744.49	1.8903E00
744.80	1.8853E00
745.12	1.8834E00
745.43	1.8859E00
745.74	1.8791E00
746.06	1.8888E00
746.37	1.8691E00
746.68	1.8773E00
747.00	1.8865E00
747.31	1.8941E00
747.62	1.8678E00
747.94	1.8974E00
748.25	1.8860E00
748.56	1.8836E00
748.88	1.8839E00
749.19	1.8954E00
749.50	1.8945E00
749.82	1.8837E00
750.13	1.8900E00
750.44	1.8845E00
750.75	1.8701E00
751.07	1.8862E00
751.38	1.8941E00
751.69	1.8909E00
752.01	1.8906E00
752.32	1.9007E00
752.63	1.8855E00
752.94	1.8979E00
753.26	1.9206E00
753.57	1.9009E00
753.88	1.9300E00
754.19	1.9163E00
754.51	1.9129E00
754.82	1.9128E00
755.13	1.9473E00
755.44	1.9307E00
755.75	1.9276E00
756.07	1.9350E00
756.38	1.9539E00
756.69	1.9485E00
757.00	1.9569E00
757.31	1.9830E00
757.63	2.0054E00
757.94	2.0005E00
758.25	1.9974E00
758.56	1.9753E00
758.87	2.0125E00
759.18	2.0337E00
759.50	2.0290E00
759.81	2.0497E00
760.12	2.0434E00
760.43	2.0668E00
760.74	2.0984E00
761.05	1.7971E00
761.36	1.4072E00
761.67	1.6845E00
761.99	1.9208E00
762.30	2.0660E00
762.61	2.0816E00
762.92	2.0088E00
763.23	1.9774E00
763.54	1.9606E00
763.85	2.0084E00
764.16	2.0506E00
764.47	2.2277E00
764.78	2.2545E00
765.10	2.2860E00
765.41	2.2985E00
765.72	2.2972E00
766.03	2.3434E00
766.34	2.3378E00
766.65	2.3545E00
766.96	2.3800E00
767.27	2.3922E00
767.58	2.3714E00
767.89	2.4113E00
768.20	2.4474E00
768.51	2.4600E00
768.82	2.4662E00
769.13	2.4867E00
769.44	2.5393E00
769.75	2.5356E00
770.06	2.5718E00
770.37	2.5376E00
770.68	2.5920E00
770.99	2.6102E00
771.30	2.6516E00
771.61	2.6937E00
771.92	2.6642E00
772.23	2.6890E00
772.54	2.7272E00
772.85	2.7293E00
773.16	2.7927E00
773.47	2.8162E00
773.78	2.7957E00
774.09	2.8702E00
774.39	2.8649E00
774.70	2.9000E00
775.01	2.9187E00
775.32	2.9161E00
775.63	2.9655E00
775.94	3.0013E00
776.25	3.0066E00
776.56	3.0477E00
776.87	3.1151E00
777.18	3.0971E00
777.48	3.1183E00
777.79	3.1610E00
778.10	3.1799E00
778.41	3.2041E00
778.72	3.2393E00
779.03	3.2472E00
779.34	3.3336E00
779.65	3.3071E00
779.95	3.3462E00
780.26	3.3856E00
780.57	3.4123E00
780.88	3.3993E00
781.19	3.4748E00
781.50	3.4793E00
781.80	3.5077E00
782.11	3.5480E00
782.42	3.6217E00
782.73	3.5431E00
783.04	3.5936E00
783.34	3.6816E00
783.65	3.7117E00
783.96	3.7378E00
784.27	3.7297E00
784.57	3.7387E00
784.88	3.8389E00
785.19	3.8420E00
785.50	3.8452E00
785.81	3.8909E00
786.11	3.8661E00
786.42	4.0083E00
786.73	4.0153E00
787.04	3.9788E00
787.34	4.0430E00
787.65	4.0359E00
787.96	4.1378E00
788.26	4.1739E00
788.57	4.2248E00
788.88	4.1415E00
789.19	4.3089E00
789.49	4.3107E00
789.80	4.3375E00
790.11	4.3805E00
790.41	4.3600E00
790.72	4.4838E00
791.03	4.4715E00
791.33	4.5130E00
791.64	4.5261E00
791.95	4.5823E00
792.25	4.6764E00
792.56	4.7122E00
792.87	4.6745E00
793.17	4.7420E00
793.48	4.7285E00
793.79	4.8081E00
794.09	4.9895E00
794.40	4.7839E00
794.70	4.8251E00
795.01	4.9329E00
795.32	4.9185E00
795.62	5.0380E00
795.93	5.0657E00
796.23	5.1110E00
796.54	5.1116E00
796.85	4.9707E00
797.15	5.0311E00
797.46	4.9707E00
797.76	5.0050E00
798.07	5.0293E00
798.37	5.0536E00
798.68	4.9671E00
798.99	5.0030E00
799.29	5.0091E00
799.60	4.9934E00
799.90	4.9341E00
800.21	4.9518E00
800.51	4.9201E00
800.82	4.9957E00
801.12	5.0281E00
801.43	4.9187E00
801.73	4.9627E00
802.04	4.9677E00
802.34	4.9506E00
802.65	4.9962E00
802.95	4.9561E00
803.26	5.0364E00
803.56	4.9831E00
803.87	4.9972E00
804.17	5.0198E00
804.48	5.0013E00
804.78	5.0501E00
805.09	5.0718E00
805.39	5.1275E00
805.70	5.2087E00
806.00	5.2304E00
806.30	5.2017E00
806.61	5.2247E00
806.91	5.2680E00
807.22	5.2522E00
807.52	5.3139E00
807.83	5.2112E00
808.13	5.3073E00
808.43	5.2789E00
808.74	5.3771E00
809.04	5.1726E00
809.35	5.1617E00
809.65	5.2374E00
809.95	5.0258E00
810.26	5.0082E00
810.56	4.9634E00
810.86	5.1148E00
811.17	4.9532E00
811.47	4.9673E00
811.77	4.8793E00
812.08	4.8279E00
812.38	4.7613E00
812.69	4.6927E00
812.99	4.6054E00
813.29	4.4016E00
813.59	4.2884E00
813.90	4.2823E00
814.20	4.2158E00
814.50	4.1030E00
814.81	3.9996E00
815.11	3.9161E00
815.41	3.7128E00
815.72	3.7568E00
816.02	3.6874E00
816.32	3.4777E00
816.62	3.4305E00
816.93	3.4639E00
817.23	3.4835E00
817.53	3.5034E00
817.84	3.4876E00
818.14	3.4737E00
818.44	3.4479E00
818.74	3.6855E00
819.04	3.5683E00
819.35	3.5959E00
819.65	3.5351E00
819.95	3.5109E00
820.25	3.6833E00
820.56	3.8487E00
820.86	3.9324E00
821.16	4.0868E00
821.46	4.0039E00
821.76	4.0161E00
822.07	4.1612E00
822.37	3.9891E00
822.67	3.9386E00
822.97	3.6601E00
823.27	3.2796E00
823.57	3.1636E00
823.88	3.2185E00
824.18	3.2820E00
824.48	3.2993E00
824.78	3.4171E00
825.08	3.6262E00
825.38	3.7508E00
825.69	3.6162E00
825.99	3.6017E00
826.29	3.6778E00
826.59	3.6676E00
826.89	3.6570E00
827.19	3.8773E00
827.49	3.5892E00
827.79	3.3848E00
828.09	3.2985E00
828.39	3.2367E00
828.70	3.1617E00
829.00	3.2496E00
829.30	3.0852E00
829.60	2.9604E00
829.90	3.1032E00
830.20	2.9958E00
830.50	2.9277E00
830.80	3.0697E00
831.10	2.9082E00
831.40	2.9374E00
831.70	2.9164E00
832.00	2.8956E00
832.30	2.7893E00
832.60	2.7197E00
832.90	2.6994E00
833.20	2.6922E00
833.50	2.6317E00
833.80	2.6953E00
834.10	2.5978E00
834.40	2.7760E00
834.70	2.7403E00
835.00	2.7060E00
835.30	2.7149E00
835.60	2.6750E00
835.90	2.6391E00
836.20	2.7100E00
836.50	2.6581E00
836.80	2.8601E00
837.10	3.3771E00
837.40	2.7732E00
837.70	2.8414E00
838.00	2.6878E00
838.30	2.8122E00
838.60	2.8453E00
838.90	2.7670E00
839.19	3.1460E00
839.49	2.7478E00
839.79	2.8293E00
840.09	2.7161E00
840.39	2.8767E00
840.69	2.8362E00
840.99	3.0468E00
841.29	2.9231E00
841.59	2.7400E00
841.88	2.7017E00
842.18	2.9124E00
842.48	2.7487E00
842.78	2.7221E00
843.08	2.7703E00
843.38	2.7803E00
843.68	2.9834E00
843.97	2.9739E00
844.27	2.7981E00
844.57	2.6612E00
844.87	2.7883E00
845.17	2.7320E00
845.47	2.7979E00
845.76	2.9031E00
846.06	2.8887E00
846.36	3.4632E00
846.66	2.7339E00
846.96	2.8469E00
847.25	2.7447E00
847.55	2.7288E00
847.85	2.7846E00
848.15	2.7653E00
848.44	2.7549E00
848.74	2.8152E00
849.04	2.7087E00
849.34	2.9085E00
849.63	2.7148E00
849.93	2.6714E00
850.23	2.5900E00
850.53	2.7308E00
850.82	2.6996E00
851.12	2.6883E00
851.42	2.7246E00
851.71	2.7413E00
852.01	2.7111E00
852.31	2.7018E00
852.61	2.6517E00
852.90	2.6643E00
853.20	2.8737E00
853.50	3.1945E00
853.79	2.8951E00
854.09	2.6815E00
854.39	2.6358E00
854.68	2.5381E00
854.98	2.4751E00
855.28	2.6420E00
855.57	2.8494E00
855.87	2.6473E00
856.17	2.7475E00
856.46	2.5761E00
856.76	2.5695E00
857.05	2.6905E00
857.35	2.6515E00
857.65	3.0526E00
857.94	2.9028E00
858.24	2.9951E00
858.53	2.7506E00
858.83	3.3586E00
859.13	2.7147E00
859.42	2.7622E00
859.72	3.0162E00
860.01	2.7142E00
860.31	2.7804E00
860.60	2.8524E00
860.90	2.9289E00
861.20	2.8178E00
861.49	2.8670E00
861.79	2.8365E00
862.08	4.2869E00
862.38	3.2097E00
862.67	2.7783E00
862.97	2.8262E00
863.26	2.7511E00
863.56	2.9857E00
863.85	3.4145E00
864.15	2.7795E00
864.44	2.8652E00
864.74	2.9378E00
865.03	3.2264E00
865.33	3.0696E00
865.62	2.9262E00
865.92	2.8807E00
866.21	2.8891E00
866.51	2.7716E00
866.80	3.2299E00
867.10	3.4052E00
867.39	2.9541E00
867.69	3.1919E00
867.98	2.7049E00
868.27	2.7503E00
868.57	2.7649E00
868.86	2.9785E00
869.16	2.7267E00
869.45	2.8134E00
869.75	2.7518E00
870.04	2.9675E00
870.33	3.1072E00
870.63	2.8731E00
870.92	2.7991E00
871.22	4.4874E00
871.51	2.9970E00
871.80	3.1829E00
872.10	3.1829E00
>>>>>End Processed Spectral Data<<<<<
