SpectraSuite Data File
++++++++++++++++++++++++++++++++++++
Date: Thu May 14 11:14:23 PDT 2015
User: schluterlab
Dark Spectrum Present: Yes
Reference Spectrum Present: No
Number of Sampled Component Spectra: 1
Spectrometers: USB2E3373
Integration Time (usec): 2300000 (USB2E3373)
Spectra Averaged: 3 (USB2E3373)
Boxcar Smoothing: 0 (USB2E3373)
Correct for Electrical Dark: No (USB2E3373)
Strobe/Lamp Enabled: No (USB2E3373)
Correct for Detector Non-linearity: No (USB2E3373)
Correct for Stray Light: No (USB2E3373)
Number of Pixels in Processed Spectrum: 2048
>>>>>Begin Processed Spectral Data<<<<<
178.53	0.0000E00
178.91	0.0000E00
179.29	0.0000E00
179.67	0.0000E00
180.04	0.0000E00
180.42	0.0000E00
180.80	0.0000E00
181.18	0.0000E00
181.56	0.0000E00
181.94	0.0000E00
182.31	0.0000E00
182.69	0.0000E00
183.07	0.0000E00
183.45	0.0000E00
183.83	0.0000E00
184.20	0.0000E00
184.58	0.0000E00
184.96	0.0000E00
185.34	0.0000E00
185.72	0.0000E00
186.09	0.0000E00
186.47	0.0000E00
186.85	0.0000E00
187.23	0.0000E00
187.61	0.0000E00
187.98	0.0000E00
188.36	0.0000E00
188.74	0.0000E00
189.12	0.0000E00
189.49	0.0000E00
189.87	0.0000E00
190.25	0.0000E00
190.63	0.0000E00
191.00	0.0000E00
191.38	0.0000E00
191.76	0.0000E00
192.14	0.0000E00
192.51	0.0000E00
192.89	0.0000E00
193.27	0.0000E00
193.65	0.0000E00
194.02	0.0000E00
194.40	0.0000E00
194.78	0.0000E00
195.15	0.0000E00
195.53	0.0000E00
195.91	0.0000E00
196.29	0.0000E00
196.66	0.0000E00
197.04	0.0000E00
197.42	0.0000E00
197.79	0.0000E00
198.17	0.0000E00
198.55	0.0000E00
198.92	0.0000E00
199.30	0.0000E00
199.68	0.0000E00
200.05	0.0000E00
200.43	0.0000E00
200.81	0.0000E00
201.18	0.0000E00
201.56	0.0000E00
201.94	0.0000E00
202.31	0.0000E00
202.69	0.0000E00
203.07	0.0000E00
203.44	0.0000E00
203.82	0.0000E00
204.19	0.0000E00
204.57	0.0000E00
204.95	0.0000E00
205.32	0.0000E00
205.70	0.0000E00
206.08	-0.0000E00
206.45	0.0000E00
206.83	0.0000E00
207.20	0.0000E00
207.58	0.0000E00
207.96	0.0000E00
208.33	0.0000E00
208.71	0.0000E00
209.08	0.0000E00
209.46	0.0000E00
209.84	-0.0000E00
210.21	0.0000E00
210.59	0.0000E00
210.96	0.0000E00
211.34	0.0000E00
211.71	0.0000E00
212.09	0.0000E00
212.46	0.0000E00
212.84	0.0000E00
213.22	0.0000E00
213.59	0.0000E00
213.97	0.0000E00
214.34	0.0000E00
214.72	0.0000E00
215.09	0.0000E00
215.47	0.0000E00
215.84	0.0000E00
216.22	0.0000E00
216.59	0.0000E00
216.97	0.0000E00
217.34	0.0000E00
217.72	0.0000E00
218.09	0.0000E00
218.47	0.0000E00
218.84	0.0000E00
219.22	0.0000E00
219.59	0.0000E00
219.97	0.0000E00
220.34	0.0000E00
220.72	0.0000E00
221.09	0.0000E00
221.47	0.0000E00
221.84	0.0000E00
222.22	0.0000E00
222.59	0.0000E00
222.97	0.0000E00
223.34	0.0000E00
223.72	0.0000E00
224.09	0.0000E00
224.46	0.0000E00
224.84	0.0000E00
225.21	0.0000E00
225.59	0.0000E00
225.96	0.0000E00
226.34	0.0000E00
226.71	0.0000E00
227.08	0.0000E00
227.46	0.0000E00
227.83	0.0000E00
228.21	0.0000E00
228.58	0.0000E00
228.95	0.0000E00
229.33	0.0000E00
229.70	0.0000E00
230.08	0.0000E00
230.45	0.0000E00
230.82	0.0000E00
231.20	0.0000E00
231.57	0.0000E00
231.95	0.0000E00
232.32	0.0000E00
232.69	0.0000E00
233.07	0.0000E00
233.44	0.0000E00
233.81	0.0000E00
234.19	0.0000E00
234.56	0.0000E00
234.93	0.0000E00
235.31	0.0000E00
235.68	0.0000E00
236.05	0.0000E00
236.43	0.0000E00
236.80	0.0000E00
237.17	0.0000E00
237.55	0.0000E00
237.92	0.0000E00
238.29	0.0000E00
238.67	0.0000E00
239.04	0.0000E00
239.41	0.0000E00
239.79	0.0000E00
240.16	0.0000E00
240.53	0.0000E00
240.91	0.0000E00
241.28	0.0000E00
241.65	0.0000E00
242.02	0.0000E00
242.40	0.0000E00
242.77	0.0000E00
243.14	0.0000E00
243.51	0.0000E00
243.89	0.0000E00
244.26	0.0000E00
244.63	0.0000E00
245.00	0.0000E00
245.38	0.0000E00
245.75	0.0000E00
246.12	0.0000E00
246.49	0.0000E00
246.87	0.0000E00
247.24	0.0000E00
247.61	0.0000E00
247.98	0.0000E00
248.36	0.0000E00
248.73	0.0000E00
249.10	0.0000E00
249.47	0.0000E00
249.84	0.0000E00
250.22	0.0000E00
250.59	0.0000E00
250.96	0.0000E00
251.33	0.0000E00
251.70	0.0000E00
252.08	0.0000E00
252.45	0.0000E00
252.82	0.0000E00
253.19	0.0000E00
253.56	0.0000E00
253.94	0.0000E00
254.31	0.0000E00
254.68	0.0000E00
255.05	0.0000E00
255.42	0.0000E00
255.79	0.0000E00
256.16	0.0000E00
256.54	0.0000E00
256.91	0.0000E00
257.28	0.0000E00
257.65	0.0000E00
258.02	0.0000E00
258.39	0.0000E00
258.76	0.0000E00
259.14	0.0000E00
259.51	0.0000E00
259.88	0.0000E00
260.25	0.0000E00
260.62	0.0000E00
260.99	0.0000E00
261.36	0.0000E00
261.73	0.0000E00
262.10	0.0000E00
262.47	0.0000E00
262.85	0.0000E00
263.22	0.0000E00
263.59	0.0000E00
263.96	0.0000E00
264.33	0.0000E00
264.70	0.0000E00
265.07	0.0000E00
265.44	0.0000E00
265.81	0.0000E00
266.18	0.0000E00
266.55	0.0000E00
266.92	0.0000E00
267.29	0.0000E00
267.66	-0.0000E00
268.03	0.0000E00
268.40	0.0000E00
268.77	0.0000E00
269.14	0.0000E00
269.51	0.0000E00
269.88	0.0000E00
270.25	0.0000E00
270.62	0.0000E00
270.99	0.0000E00
271.36	0.0000E00
271.73	0.0000E00
272.10	0.0000E00
272.47	0.0000E00
272.84	0.0000E00
273.21	0.0000E00
273.58	0.0000E00
273.95	0.0000E00
274.32	0.0000E00
274.69	0.0000E00
275.06	0.0000E00
275.43	0.0000E00
275.80	0.0000E00
276.17	0.0000E00
276.54	0.0000E00
276.91	0.0000E00
277.28	0.0000E00
277.65	0.0000E00
278.02	0.0000E00
278.39	0.0000E00
278.76	0.0000E00
279.13	0.0000E00
279.50	0.0000E00
279.87	0.0000E00
280.23	0.0000E00
280.60	0.0000E00
280.97	0.0000E00
281.34	0.0000E00
281.71	0.0000E00
282.08	0.0000E00
282.45	0.0000E00
282.82	0.0000E00
283.19	0.0000E00
283.56	0.0000E00
283.92	0.0000E00
284.29	0.0000E00
284.66	0.0000E00
285.03	0.0000E00
285.40	0.0000E00
285.77	0.0000E00
286.14	0.0000E00
286.51	0.0000E00
286.87	0.0000E00
287.24	0.0000E00
287.61	0.0000E00
287.98	0.0000E00
288.35	0.0000E00
288.72	0.0000E00
289.08	0.0000E00
289.45	0.0000E00
289.82	0.0000E00
290.19	0.0000E00
290.56	0.0000E00
290.93	0.0000E00
291.29	0.0000E00
291.66	0.0000E00
292.03	0.0000E00
292.40	0.0000E00
292.77	0.0000E00
293.13	0.0000E00
293.50	0.0000E00
293.87	0.0000E00
294.24	0.0000E00
294.60	0.0000E00
294.97	0.0000E00
295.34	0.0000E00
295.71	0.0000E00
296.08	0.0000E00
296.44	0.0000E00
296.81	0.0000E00
297.18	0.0000E00
297.55	0.0000E00
297.91	0.0000E00
298.28	0.0000E00
298.65	0.0000E00
299.02	0.0000E00
299.38	0.0000E00
299.75	0.0000E00
300.12	2.4027E-01
300.48	3.0378E-01
300.85	2.3998E-01
301.22	4.7280E-01
301.59	2.7024E-01
301.95	3.0985E-01
302.32	2.4852E-01
302.69	3.0424E-01
303.05	2.9052E-01
303.42	4.7557E-01
303.79	4.6709E-01
304.15	3.0958E-01
304.52	4.0830E-01
304.89	4.6338E-01
305.25	2.6964E-01
305.62	3.6865E-01
305.99	4.2202E-01
306.35	3.5433E-01
306.72	4.5018E-01
307.09	5.5311E-01
307.45	5.4366E-01
307.82	6.0938E-01
308.19	2.2976E00
308.55	5.7839E-01
308.92	4.9682E-01
309.29	4.7324E-01
309.65	5.1460E-01
310.02	7.3812E-01
310.38	5.8535E-01
310.75	5.0828E-01
311.12	8.1180E-01
311.48	6.7548E-01
311.85	9.5565E-01
312.22	6.7661E-01
312.58	1.2361E00
312.95	5.6159E-01
313.31	7.0489E-01
313.68	9.7562E-01
314.05	8.9107E-01
314.41	1.0471E00
314.78	8.6573E-01
315.14	2.4380E00
315.51	1.0032E00
315.87	7.2491E-01
316.24	1.7304E00
316.61	1.0761E00
316.97	1.1048E00
317.34	1.1892E00
317.70	9.5714E-01
318.07	1.1126E00
318.43	1.1110E00
318.80	1.7883E00
319.16	1.2135E00
319.53	3.2435E01
319.89	1.7464E00
320.26	1.3779E00
320.62	1.8859E00
320.99	1.3456E00
321.35	1.4731E00
321.72	1.9323E00
322.08	1.3671E00
322.45	2.4922E00
322.81	1.8161E00
323.18	1.0934E00
323.54	1.1308E00
323.91	2.5100E00
324.27	1.8044E00
324.64	5.8728E00
325.00	1.3972E00
325.37	5.5698E00
325.73	1.5663E00
326.10	5.9099E00
326.46	1.6261E00
326.83	1.4988E00
327.19	1.6411E00
327.56	1.5979E00
327.92	2.3685E00
328.29	3.0331E00
328.65	2.7378E00
329.01	3.6554E00
329.38	1.5685E00
329.74	1.6653E00
330.11	2.1145E00
330.47	2.5003E00
330.84	1.8970E00
331.20	1.8317E00
331.56	2.1968E00
331.93	1.7696E00
332.29	2.1059E00
332.66	2.1865E00
333.02	1.3638E00
333.38	1.6010E00
333.75	1.6461E00
334.11	1.6920E00
334.48	2.4565E00
334.84	2.0738E00
335.20	1.6815E00
335.57	1.9173E00
335.93	2.6799E00
336.29	2.2301E00
336.66	1.9796E00
337.02	2.0536E00
337.38	1.9068E00
337.75	1.5259E00
338.11	1.1879E00
338.47	2.0570E00
338.84	2.6771E00
339.20	4.8827E00
339.56	1.8574E00
339.93	1.8659E00
340.29	1.4684E00
340.65	1.7075E00
341.02	1.7716E00
341.38	1.6754E00
341.74	1.5049E00
342.11	1.5164E00
342.47	2.0957E00
342.83	2.1937E00
343.20	1.4396E00
343.56	2.4201E00
343.92	1.7244E00
344.28	1.9087E00
344.65	1.8671E00
345.01	1.9460E00
345.37	1.6454E00
345.73	1.6625E00
346.10	2.2197E00
346.46	1.7913E00
346.82	1.3458E00
347.19	3.0396E00
347.55	1.6115E00
347.91	3.0950E00
348.27	1.9853E00
348.63	1.6518E00
349.00	1.6225E00
349.36	1.4886E00
349.72	1.7296E00
350.08	2.1905E00
350.45	2.2046E00
350.81	2.1472E00
351.17	1.5011E00
351.53	2.1007E00
351.89	1.9348E00
352.26	1.7496E00
352.62	1.8999E00
352.98	1.2820E00
353.34	2.2120E00
353.70	1.6920E00
354.07	1.2975E00
354.43	1.5573E00
354.79	1.3553E00
355.15	1.3871E00
355.51	1.6086E00
355.87	1.0534E00
356.24	1.5878E00
356.60	1.7045E00
356.96	1.5024E00
357.32	1.8048E00
357.68	1.2606E00
358.04	1.4958E00
358.40	1.5347E00
358.77	1.2828E00
359.13	1.6932E00
359.49	1.6689E00
359.85	1.5482E00
360.21	1.4451E00
360.57	1.3342E00
360.93	1.2611E00
361.29	1.5131E00
361.66	2.3137E00
362.02	1.4613E00
362.38	1.9712E00
362.74	1.3059E00
363.10	1.5371E00
363.46	1.3368E00
363.82	1.3932E00
364.18	1.5337E00
364.54	1.4288E00
364.90	1.1197E00
365.26	1.5108E00
365.62	1.3900E00
365.98	1.9364E00
366.35	1.7087E00
366.71	1.4403E00
367.07	1.4568E00
367.43	1.4311E00
367.79	1.3674E00
368.15	1.1463E00
368.51	1.4198E00
368.87	1.2434E00
369.23	1.3564E00
369.59	1.5799E00
369.95	1.5717E00
370.31	1.2234E00
370.67	1.3279E00
371.03	1.5315E00
371.39	1.4258E00
371.75	1.2321E00
372.11	1.4729E00
372.47	1.2154E00
372.83	1.4811E00
373.19	1.3241E00
373.55	1.4712E00
373.91	1.4670E00
374.27	1.6217E00
374.63	1.3726E00
374.99	1.3540E00
375.35	1.4312E00
375.71	1.2513E00
376.07	1.3910E00
376.42	1.2745E00
376.78	1.4006E00
377.14	1.2974E00
377.50	1.1665E00
377.86	1.3619E00
378.22	1.2094E00
378.58	1.3178E00
378.94	1.0646E00
379.30	1.1376E00
379.66	1.2667E00
380.02	1.1688E00
380.38	1.1897E00
380.74	1.3140E00
381.09	1.0980E00
381.45	1.1625E00
381.81	1.0025E00
382.17	1.3153E00
382.53	1.1687E00
382.89	1.1342E00
383.25	1.2012E00
383.61	1.1472E00
383.97	1.1503E00
384.32	1.0945E00
384.68	1.2788E00
385.04	1.0854E00
385.40	1.0814E00
385.76	1.2256E00
386.12	1.0727E00
386.48	1.1350E00
386.83	1.2143E00
387.19	1.0670E00
387.55	1.1354E00
387.91	1.0342E00
388.27	1.1268E00
388.62	1.2177E00
388.98	1.0264E00
389.34	1.2069E00
389.70	1.0330E00
390.06	1.0012E00
390.42	1.2156E00
390.77	1.0934E00
391.13	1.0582E00
391.49	1.1836E00
391.85	1.2769E00
392.20	1.2206E00
392.56	1.1483E00
392.92	1.0867E00
393.28	1.0777E00
393.64	1.0861E00
393.99	1.1342E00
394.35	1.0880E00
394.71	1.0974E00
395.07	1.0122E00
395.42	1.1101E00
395.78	1.1569E00
396.14	1.0990E00
396.50	1.0576E00
396.85	1.1748E00
397.21	1.0243E00
397.57	1.1201E00
397.92	1.0949E00
398.28	1.0666E00
398.64	1.1251E00
399.00	1.0248E00
399.35	9.9675E-01
399.71	1.0280E00
400.07	1.0815E00
400.42	1.0229E00
400.78	1.0363E00
401.14	9.7139E-01
401.49	1.0315E00
401.85	9.6449E-01
402.21	1.0445E00
402.57	1.0448E00
402.92	1.0143E00
403.28	9.8283E-01
403.63	9.7924E-01
403.99	9.7209E-01
404.35	9.8041E-01
404.70	1.0293E00
405.06	9.3257E-01
405.42	1.0346E00
405.77	9.5549E-01
406.13	9.4311E-01
406.49	8.9664E-01
406.84	9.7010E-01
407.20	9.2869E-01
407.55	1.0166E00
407.91	1.0142E00
408.27	9.2406E-01
408.62	9.0829E-01
408.98	9.1659E-01
409.34	9.0690E-01
409.69	9.6051E-01
410.05	9.2824E-01
410.40	9.1815E-01
410.76	8.7903E-01
411.11	8.3661E-01
411.47	9.1946E-01
411.83	8.5338E-01
412.18	8.5817E-01
412.54	9.2069E-01
412.89	9.2017E-01
413.25	8.5228E-01
413.60	8.8134E-01
413.96	9.4395E-01
414.31	9.0675E-01
414.67	9.5979E-01
415.03	9.6266E-01
415.38	9.2149E-01
415.74	9.5432E-01
416.09	8.8120E-01
416.45	9.4573E-01
416.80	8.8388E-01
417.16	9.5297E-01
417.51	8.9177E-01
417.87	8.7976E-01
418.22	8.6087E-01
418.58	9.2713E-01
418.93	8.3209E-01
419.29	9.0615E-01
419.64	8.7472E-01
420.00	8.3693E-01
420.35	8.1115E-01
420.71	8.6112E-01
421.06	8.5000E-01
421.42	8.5919E-01
421.77	8.6252E-01
422.12	8.6132E-01
422.48	8.3486E-01
422.83	8.8189E-01
423.19	8.4429E-01
423.54	8.4518E-01
423.90	8.4659E-01
424.25	8.0691E-01
424.61	8.5037E-01
424.96	8.3452E-01
425.31	8.0381E-01
425.67	8.0416E-01
426.02	8.1669E-01
426.38	8.1021E-01
426.73	7.9397E-01
427.09	8.1293E-01
427.44	7.5017E-01
427.79	8.0561E-01
428.15	7.8907E-01
428.50	8.0460E-01
428.85	8.2917E-01
429.21	7.6745E-01
429.56	7.4190E-01
429.92	7.6216E-01
430.27	7.5214E-01
430.62	7.8588E-01
430.98	8.0460E-01
431.33	7.7199E-01
431.68	7.7163E-01
432.04	7.3959E-01
432.39	7.5719E-01
432.74	8.0593E-01
433.10	7.3073E-01
433.45	7.7175E-01
433.80	7.7672E-01
434.16	7.7975E-01
434.51	7.4734E-01
434.86	7.8342E-01
435.22	7.3842E-01
435.57	8.1363E-01
435.92	7.5896E-01
436.28	7.8537E-01
436.63	7.3277E-01
436.98	7.4152E-01
437.34	7.5758E-01
437.69	7.3085E-01
438.04	7.0869E-01
438.39	7.6346E-01
438.75	7.3397E-01
439.10	7.0550E-01
439.45	7.4675E-01
439.81	7.2487E-01
440.16	7.0732E-01
440.51	7.2665E-01
440.86	7.2426E-01
441.22	7.1680E-01
441.57	7.3166E-01
441.92	7.1068E-01
442.27	7.4591E-01
442.63	7.1753E-01
442.98	7.6326E-01
443.33	7.4505E-01
443.68	7.1892E-01
444.03	6.6818E-01
444.39	6.6909E-01
444.74	7.2100E-01
445.09	7.3381E-01
445.44	7.2599E-01
445.79	6.5729E-01
446.15	7.2290E-01
446.50	7.0843E-01
446.85	6.7601E-01
447.20	6.6666E-01
447.55	6.8653E-01
447.91	6.9753E-01
448.26	6.9431E-01
448.61	7.0700E-01
448.96	6.8441E-01
449.31	6.8237E-01
449.66	7.1794E-01
450.02	6.7792E-01
450.37	7.0927E-01
450.72	6.7713E-01
451.07	7.1576E-01
451.42	7.1797E-01
451.77	6.9453E-01
452.12	6.9425E-01
452.47	7.3312E-01
452.83	6.5105E-01
453.18	7.0068E-01
453.53	6.8224E-01
453.88	6.4639E-01
454.23	6.5300E-01
454.58	6.5016E-01
454.93	6.8108E-01
455.28	6.7358E-01
455.63	6.7068E-01
455.98	6.5558E-01
456.34	6.8383E-01
456.69	6.7467E-01
457.04	6.5812E-01
457.39	6.3179E-01
457.74	6.2268E-01
458.09	6.4689E-01
458.44	6.2868E-01
458.79	6.0131E-01
459.14	6.2920E-01
459.49	6.4619E-01
459.84	6.2300E-01
460.19	6.5823E-01
460.54	6.4820E-01
460.89	6.0053E-01
461.24	6.6106E-01
461.59	6.3317E-01
461.94	6.5269E-01
462.29	6.0037E-01
462.64	6.4916E-01
462.99	6.5577E-01
463.34	6.6060E-01
463.69	6.2721E-01
464.04	5.9021E-01
464.39	6.0011E-01
464.74	6.1730E-01
465.09	6.3875E-01
465.44	6.0079E-01
465.79	6.2656E-01
466.14	6.2872E-01
466.49	6.0802E-01
466.84	6.1510E-01
467.19	6.1829E-01
467.54	6.4017E-01
467.89	6.0265E-01
468.24	5.7746E-01
468.59	5.8451E-01
468.94	5.7733E-01
469.29	5.8077E-01
469.64	5.9235E-01
469.99	5.7961E-01
470.34	5.5635E-01
470.68	5.9571E-01
471.03	5.7538E-01
471.38	5.5947E-01
471.73	5.6081E-01
472.08	5.3986E-01
472.43	5.2355E-01
472.78	5.4392E-01
473.13	5.4658E-01
473.48	5.4466E-01
473.83	5.2387E-01
474.17	5.3299E-01
474.52	5.3033E-01
474.87	5.0578E-01
475.22	5.1459E-01
475.57	4.8889E-01
475.92	4.7188E-01
476.27	5.0689E-01
476.61	4.8073E-01
476.96	4.7132E-01
477.31	4.5328E-01
477.66	4.6078E-01
478.01	4.5699E-01
478.36	4.5744E-01
478.70	4.4220E-01
479.05	4.5265E-01
479.40	4.3007E-01
479.75	4.3363E-01
480.10	4.3371E-01
480.45	4.1937E-01
480.79	4.2451E-01
481.14	4.3340E-01
481.49	4.1635E-01
481.84	4.0632E-01
482.19	4.0302E-01
482.53	4.0670E-01
482.88	3.9988E-01
483.23	3.9248E-01
483.58	3.9183E-01
483.92	3.9962E-01
484.27	3.8243E-01
484.62	3.8342E-01
484.97	3.7297E-01
485.31	3.7320E-01
485.66	3.7875E-01
486.01	3.8148E-01
486.36	3.6460E-01
486.70	3.6793E-01
487.05	3.6699E-01
487.40	3.6469E-01
487.75	3.5625E-01
488.09	3.5995E-01
488.44	3.6231E-01
488.79	3.6219E-01
489.13	3.5677E-01
489.48	3.5915E-01
489.83	3.5734E-01
490.17	3.4708E-01
490.52	3.4719E-01
490.87	3.4862E-01
491.22	3.4868E-01
491.56	3.4931E-01
491.91	3.5438E-01
492.26	3.4882E-01
492.60	3.4898E-01
492.95	3.5182E-01
493.30	3.5046E-01
493.64	3.4527E-01
493.99	3.4858E-01
494.34	3.4817E-01
494.68	3.4173E-01
495.03	3.5251E-01
495.37	3.4447E-01
495.72	3.5305E-01
496.07	3.4468E-01
496.41	3.4353E-01
496.76	3.4337E-01
497.11	3.4829E-01
497.45	3.4579E-01
497.80	3.4699E-01
498.14	3.4448E-01
498.49	3.4403E-01
498.84	3.4595E-01
499.18	3.4049E-01
499.53	3.4373E-01
499.87	3.4493E-01
500.22	3.4754E-01
500.56	3.4693E-01
500.91	3.4482E-01
501.26	3.4522E-01
501.60	3.4248E-01
501.95	3.4342E-01
502.29	3.4297E-01
502.64	3.4003E-01
502.98	3.4598E-01
503.33	3.3970E-01
503.67	3.4245E-01
504.02	3.4182E-01
504.36	3.3922E-01
504.71	3.4463E-01
505.06	3.4319E-01
505.40	3.3899E-01
505.75	3.3962E-01
506.09	3.4157E-01
506.44	3.3885E-01
506.78	3.3816E-01
507.13	3.3900E-01
507.47	3.3682E-01
507.82	3.3583E-01
508.16	3.3773E-01
508.51	3.3485E-01
508.85	3.3238E-01
509.19	3.3181E-01
509.54	3.3625E-01
509.88	3.3810E-01
510.23	3.3286E-01
510.57	3.3331E-01
510.92	3.3360E-01
511.26	3.3084E-01
511.61	3.3175E-01
511.95	3.3021E-01
512.30	3.2846E-01
512.64	3.2907E-01
512.98	3.2894E-01
513.33	3.2800E-01
513.67	3.3173E-01
514.02	3.2980E-01
514.36	3.2650E-01
514.70	3.3004E-01
515.05	3.2341E-01
515.39	3.2616E-01
515.74	3.2449E-01
516.08	3.2712E-01
516.42	3.2321E-01
516.77	3.2431E-01
517.11	3.2408E-01
517.46	3.2336E-01
517.80	3.2441E-01
518.14	3.2398E-01
518.49	3.2079E-01
518.83	3.2457E-01
519.17	3.2712E-01
519.52	3.2257E-01
519.86	3.2145E-01
520.20	3.2035E-01
520.55	3.1953E-01
520.89	3.1985E-01
521.23	3.2073E-01
521.58	3.2342E-01
521.92	3.2242E-01
522.26	3.2599E-01
522.61	3.1933E-01
522.95	3.2223E-01
523.29	3.1955E-01
523.64	3.2232E-01
523.98	3.2258E-01
524.32	3.2204E-01
524.66	3.2149E-01
525.01	3.2274E-01
525.35	3.2375E-01
525.69	3.2582E-01
526.04	3.2636E-01
526.38	3.2166E-01
526.72	3.2749E-01
527.06	3.2628E-01
527.41	3.2858E-01
527.75	3.2812E-01
528.09	3.2589E-01
528.43	3.2946E-01
528.78	3.2727E-01
529.12	3.3267E-01
529.46	3.3198E-01
529.80	3.3356E-01
530.15	3.3388E-01
530.49	3.3596E-01
530.83	3.3575E-01
531.17	3.3552E-01
531.51	3.3816E-01
531.86	3.3778E-01
532.20	3.4364E-01
532.54	3.3869E-01
532.88	3.4194E-01
533.22	3.4465E-01
533.57	3.4608E-01
533.91	3.4428E-01
534.25	3.4648E-01
534.59	3.4722E-01
534.93	3.4397E-01
535.27	3.4782E-01
535.62	3.5189E-01
535.96	3.5210E-01
536.30	3.5057E-01
536.64	3.5516E-01
536.98	3.5685E-01
537.32	3.5522E-01
537.66	3.5429E-01
538.01	3.6147E-01
538.35	3.6115E-01
538.69	3.5734E-01
539.03	3.6430E-01
539.37	3.6016E-01
539.71	3.6538E-01
540.05	3.6117E-01
540.39	3.6487E-01
540.73	3.6701E-01
541.07	3.6669E-01
541.42	3.6731E-01
541.76	3.6810E-01
542.10	3.6931E-01
542.44	3.7151E-01
542.78	3.7157E-01
543.12	3.6869E-01
543.46	3.7688E-01
543.80	3.7187E-01
544.14	3.7097E-01
544.48	3.6981E-01
544.82	3.7457E-01
545.16	3.7212E-01
545.50	3.7438E-01
545.84	3.8018E-01
546.18	3.7342E-01
546.52	3.7877E-01
546.86	3.7855E-01
547.20	3.7991E-01
547.54	3.8566E-01
547.88	3.7966E-01
548.22	3.7965E-01
548.56	3.8242E-01
548.90	3.7928E-01
549.24	3.8175E-01
549.58	3.8488E-01
549.92	3.8252E-01
550.26	3.8684E-01
550.60	3.8484E-01
550.94	3.7949E-01
551.28	3.8790E-01
551.62	3.8237E-01
551.96	3.8684E-01
552.30	3.9064E-01
552.64	3.8923E-01
552.98	3.8706E-01
553.32	3.8596E-01
553.66	3.8580E-01
554.00	3.8520E-01
554.34	3.8845E-01
554.68	3.9046E-01
555.02	3.8714E-01
555.36	3.9174E-01
555.69	3.9057E-01
556.03	3.8865E-01
556.37	3.8853E-01
556.71	3.8784E-01
557.05	3.8876E-01
557.39	3.8967E-01
557.73	3.9046E-01
558.07	3.9015E-01
558.41	3.8666E-01
558.75	3.9108E-01
559.08	3.8923E-01
559.42	3.8469E-01
559.76	3.9213E-01
560.10	3.9169E-01
560.44	3.9276E-01
560.78	3.8858E-01
561.12	3.8861E-01
561.45	3.9008E-01
561.79	3.9208E-01
562.13	3.9171E-01
562.47	3.9115E-01
562.81	3.9389E-01
563.15	3.9369E-01
563.48	3.9175E-01
563.82	3.8530E-01
564.16	3.9301E-01
564.50	3.9082E-01
564.84	3.9411E-01
565.17	3.9255E-01
565.51	3.8853E-01
565.85	3.9295E-01
566.19	3.9052E-01
566.52	3.9504E-01
566.86	3.9053E-01
567.20	3.9357E-01
567.54	3.9574E-01
567.88	3.9387E-01
568.21	3.9744E-01
568.55	3.9563E-01
568.89	3.9349E-01
569.23	3.9402E-01
569.56	3.9402E-01
569.90	3.9728E-01
570.24	3.9897E-01
570.57	3.9944E-01
570.91	3.9770E-01
571.25	3.9699E-01
571.59	3.9610E-01
571.92	3.9685E-01
572.26	3.9905E-01
572.60	4.0096E-01
572.93	4.0133E-01
573.27	4.0372E-01
573.61	4.0462E-01
573.95	3.9970E-01
574.28	4.0500E-01
574.62	4.0459E-01
574.96	4.1090E-01
575.29	4.0808E-01
575.63	4.1297E-01
575.97	4.0996E-01
576.30	4.1707E-01
576.64	4.1231E-01
576.98	4.1566E-01
577.31	4.1397E-01
577.65	4.1831E-01
577.98	4.1682E-01
578.32	4.2151E-01
578.66	4.2405E-01
578.99	4.2124E-01
579.33	4.2777E-01
579.67	4.2456E-01
580.00	4.2916E-01
580.34	4.2556E-01
580.67	4.3049E-01
581.01	4.3134E-01
581.35	4.3298E-01
581.68	4.3501E-01
582.02	4.3573E-01
582.35	4.3737E-01
582.69	4.3516E-01
583.02	4.4364E-01
583.36	4.4228E-01
583.70	4.3972E-01
584.03	4.4378E-01
584.37	4.4187E-01
584.70	4.4988E-01
585.04	4.4755E-01
585.37	4.4564E-01
585.71	4.5421E-01
586.04	4.4920E-01
586.38	4.5254E-01
586.72	4.5738E-01
587.05	4.5577E-01
587.39	4.5954E-01
587.72	4.5507E-01
588.06	4.6332E-01
588.39	4.5999E-01
588.73	4.6295E-01
589.06	4.6323E-01
589.40	4.6776E-01
589.73	4.6812E-01
590.07	4.7126E-01
590.40	4.7161E-01
590.73	4.7785E-01
591.07	4.7092E-01
591.40	4.7860E-01
591.74	4.7607E-01
592.07	4.8122E-01
592.41	4.8067E-01
592.74	4.8102E-01
593.08	4.7734E-01
593.41	4.7923E-01
593.75	4.8210E-01
594.08	4.8382E-01
594.41	4.8415E-01
594.75	4.8785E-01
595.08	4.8537E-01
595.42	4.8128E-01
595.75	4.8418E-01
596.09	4.8889E-01
596.42	4.8778E-01
596.75	4.8917E-01
597.09	4.9427E-01
597.42	4.8754E-01
597.75	4.9261E-01
598.09	4.9182E-01
598.42	4.9593E-01
598.76	4.9615E-01
599.09	4.9657E-01
599.42	5.0186E-01
599.76	4.9776E-01
600.09	4.9990E-01
600.42	5.0081E-01
600.76	4.9135E-01
601.09	4.9794E-01
601.42	5.0673E-01
601.76	4.9864E-01
602.09	5.0024E-01
602.42	5.0306E-01
602.76	5.0285E-01
603.09	5.0154E-01
603.42	5.0392E-01
603.76	4.9903E-01
604.09	5.0040E-01
604.42	5.0424E-01
604.76	5.0070E-01
605.09	5.0742E-01
605.42	5.0519E-01
605.75	5.0654E-01
606.09	5.0927E-01
606.42	5.0586E-01
606.75	5.0778E-01
607.09	5.1152E-01
607.42	5.0623E-01
607.75	5.1072E-01
608.08	5.1290E-01
608.42	5.1274E-01
608.75	5.0975E-01
609.08	5.1393E-01
609.41	5.1458E-01
609.75	5.1539E-01
610.08	5.0892E-01
610.41	5.1460E-01
610.74	5.1582E-01
611.07	5.1686E-01
611.41	5.1064E-01
611.74	5.1630E-01
612.07	5.1500E-01
612.40	5.1236E-01
612.73	5.1396E-01
613.07	5.1918E-01
613.40	5.1448E-01
613.73	5.1215E-01
614.06	5.1637E-01
614.39	5.1755E-01
614.72	5.2051E-01
615.06	5.1898E-01
615.39	5.2736E-01
615.72	5.1812E-01
616.05	5.2876E-01
616.38	5.2512E-01
616.71	5.2797E-01
617.05	5.1827E-01
617.38	5.2319E-01
617.71	5.1936E-01
618.04	5.2746E-01
618.37	5.1836E-01
618.70	5.2187E-01
619.03	5.2382E-01
619.36	5.1698E-01
619.69	5.2498E-01
620.03	5.2025E-01
620.36	5.2009E-01
620.69	5.1967E-01
621.02	5.2367E-01
621.35	5.1787E-01
621.68	5.1209E-01
622.01	5.1745E-01
622.34	5.1995E-01
622.67	5.1854E-01
623.00	5.2278E-01
623.33	5.1935E-01
623.66	5.2053E-01
623.99	5.2455E-01
624.32	5.1702E-01
624.65	5.1862E-01
624.99	5.1959E-01
625.32	5.2214E-01
625.65	5.2122E-01
625.98	5.1288E-01
626.31	5.1898E-01
626.64	5.2217E-01
626.97	5.1737E-01
627.30	5.1641E-01
627.63	5.1994E-01
627.96	5.1604E-01
628.29	5.1288E-01
628.62	5.1994E-01
628.95	5.2064E-01
629.28	5.1265E-01
629.61	5.2485E-01
629.94	5.2096E-01
630.26	5.2343E-01
630.59	5.2368E-01
630.92	5.1853E-01
631.25	5.2090E-01
631.58	5.2670E-01
631.91	5.2664E-01
632.24	5.3053E-01
632.57	5.2810E-01
632.90	5.2605E-01
633.23	5.2714E-01
633.56	5.3117E-01
633.89	5.3087E-01
634.22	5.3245E-01
634.55	5.3500E-01
634.88	5.3957E-01
635.20	5.3990E-01
635.53	5.4324E-01
635.86	5.4339E-01
636.19	5.4957E-01
636.52	5.4956E-01
636.85	5.4956E-01
637.18	5.5598E-01
637.51	5.5306E-01
637.83	5.5983E-01
638.16	5.5567E-01
638.49	5.6463E-01
638.82	5.6408E-01
639.15	5.6562E-01
639.48	5.6854E-01
639.81	5.7669E-01
640.13	5.7042E-01
640.46	5.7725E-01
640.79	5.7671E-01
641.12	5.8509E-01
641.45	5.8149E-01
641.77	5.8325E-01
642.10	5.9258E-01
642.43	5.9241E-01
642.76	5.9787E-01
643.09	5.9223E-01
643.41	5.9893E-01
643.74	6.0139E-01
644.07	5.9707E-01
644.40	6.0390E-01
644.73	6.1214E-01
645.05	6.1263E-01
645.38	6.1473E-01
645.71	6.1774E-01
646.04	6.1983E-01
646.36	6.1634E-01
646.69	6.2925E-01
647.02	6.2083E-01
647.35	6.2618E-01
647.67	6.3453E-01
648.00	6.2992E-01
648.33	6.4081E-01
648.66	6.3199E-01
648.98	6.4284E-01
649.31	6.3808E-01
649.64	6.4045E-01
649.96	6.4966E-01
650.29	6.5187E-01
650.62	6.5344E-01
650.94	6.5652E-01
651.27	6.5411E-01
651.60	6.5582E-01
651.92	6.6550E-01
652.25	6.6448E-01
652.58	6.6493E-01
652.90	6.6999E-01
653.23	6.6785E-01
653.56	6.7035E-01
653.88	6.7610E-01
654.21	6.7513E-01
654.54	6.8017E-01
654.86	6.8729E-01
655.19	6.7996E-01
655.52	6.9220E-01
655.84	6.8437E-01
656.17	6.8808E-01
656.49	6.9714E-01
656.82	6.8506E-01
657.15	6.9856E-01
657.47	6.9815E-01
657.80	6.9995E-01
658.13	7.0115E-01
658.45	7.0426E-01
658.78	7.0907E-01
659.10	7.1089E-01
659.43	7.1253E-01
659.75	7.0954E-01
660.08	7.0692E-01
660.41	7.1712E-01
660.73	7.1946E-01
661.06	7.2287E-01
661.38	7.2012E-01
661.71	7.2188E-01
662.03	7.1568E-01
662.36	7.2910E-01
662.68	7.2914E-01
663.01	7.2117E-01
663.33	7.3274E-01
663.66	7.3293E-01
663.98	7.3849E-01
664.31	7.3187E-01
664.63	7.4715E-01
664.96	7.3560E-01
665.28	7.4422E-01
665.61	7.4200E-01
665.93	7.4231E-01
666.26	7.4640E-01
666.58	7.4958E-01
666.91	7.4438E-01
667.23	7.5299E-01
667.56	7.4911E-01
667.88	7.5130E-01
668.21	7.6034E-01
668.53	7.5298E-01
668.86	7.5919E-01
669.18	7.5715E-01
669.50	7.6818E-01
669.83	7.6629E-01
670.15	7.6771E-01
670.48	7.7186E-01
670.80	7.6774E-01
671.13	7.6462E-01
671.45	7.7346E-01
671.77	7.7627E-01
672.10	7.7032E-01
672.42	7.8506E-01
672.75	7.7743E-01
673.07	7.8620E-01
673.39	7.8150E-01
673.72	7.8600E-01
674.04	7.9197E-01
674.37	7.8743E-01
674.69	7.8364E-01
675.01	7.9912E-01
675.34	7.9714E-01
675.66	7.9962E-01
675.98	7.8770E-01
676.31	8.0277E-01
676.63	7.9972E-01
676.95	7.9923E-01
677.28	8.0569E-01
677.60	8.0821E-01
677.92	8.1301E-01
678.25	8.1496E-01
678.57	8.1505E-01
678.89	8.1181E-01
679.22	8.2284E-01
679.54	8.1545E-01
679.86	8.2795E-01
680.18	8.1927E-01
680.51	8.1964E-01
680.83	8.3955E-01
681.15	8.2618E-01
681.48	8.3567E-01
681.80	8.3032E-01
682.12	8.3142E-01
682.44	8.4060E-01
682.77	8.4507E-01
683.09	8.5028E-01
683.41	8.4832E-01
683.73	8.5571E-01
684.06	8.5101E-01
684.38	8.5157E-01
684.70	8.5882E-01
685.02	8.6429E-01
685.34	8.6685E-01
685.67	8.6342E-01
685.99	8.7771E-01
686.31	8.6772E-01
686.63	8.8284E-01
686.96	8.8538E-01
687.28	8.8996E-01
687.60	8.7735E-01
687.92	8.8711E-01
688.24	8.9349E-01
688.56	9.0267E-01
688.89	8.9368E-01
689.21	9.0443E-01
689.53	9.0366E-01
689.85	9.1418E-01
690.17	9.0613E-01
690.49	9.2604E-01
690.82	9.1662E-01
691.14	9.2076E-01
691.46	9.1899E-01
691.78	9.2976E-01
692.10	9.2388E-01
692.42	9.3657E-01
692.74	9.3669E-01
693.06	9.4157E-01
693.39	9.5431E-01
693.71	9.6753E-01
694.03	9.6236E-01
694.35	9.6120E-01
694.67	9.6459E-01
694.99	9.7802E-01
695.31	9.7709E-01
695.63	9.8145E-01
695.95	9.8279E-01
696.27	9.8634E-01
696.59	9.8843E-01
696.91	9.9748E-01
697.23	1.0008E00
697.56	1.0046E00
697.88	1.0036E00
698.20	1.0109E00
698.52	1.0158E00
698.84	1.0297E00
699.16	1.0354E00
699.48	1.0247E00
699.80	1.0489E00
700.12	1.0382E00
700.44	1.0425E00
700.76	1.0510E00
701.08	1.0657E00
701.40	1.0650E00
701.72	1.0681E00
702.04	1.0765E00
702.36	1.0741E00
702.68	1.0857E00
703.00	1.0947E00
703.32	1.0907E00
703.64	1.1052E00
703.96	1.1028E00
704.28	1.1121E00
704.60	1.1200E00
704.91	1.1259E00
705.23	1.1263E00
705.55	1.1382E00
705.87	1.1398E00
706.19	1.1389E00
706.51	1.1515E00
706.83	1.1457E00
707.15	1.1750E00
707.47	1.1655E00
707.79	1.1795E00
708.11	1.1752E00
708.43	1.1835E00
708.74	1.1834E00
709.06	1.1942E00
709.38	1.2062E00
709.70	1.2045E00
710.02	1.2126E00
710.34	1.2073E00
710.66	1.2317E00
710.98	1.2285E00
711.29	1.2338E00
711.61	1.2534E00
711.93	1.2642E00
712.25	1.2521E00
712.57	1.2699E00
712.89	1.2759E00
713.20	1.2693E00
713.52	1.2872E00
713.84	1.2905E00
714.16	1.2833E00
714.48	1.2958E00
714.80	1.3145E00
715.11	1.3127E00
715.43	1.3273E00
715.75	1.3317E00
716.07	1.3360E00
716.39	1.3248E00
716.70	1.3368E00
717.02	1.3340E00
717.34	1.3630E00
717.66	1.3658E00
717.97	1.3783E00
718.29	1.3864E00
718.61	1.3926E00
718.93	1.4076E00
719.24	1.4028E00
719.56	1.4288E00
719.88	1.4275E00
720.20	1.4516E00
720.51	1.4671E00
720.83	1.4451E00
721.15	1.4760E00
721.46	1.4754E00
721.78	1.4851E00
722.10	1.5127E00
722.42	1.5072E00
722.73	1.5271E00
723.05	1.5165E00
723.37	1.5340E00
723.68	1.5516E00
724.00	1.5407E00
724.32	1.5658E00
724.63	1.5555E00
724.95	1.5698E00
725.27	1.5796E00
725.58	1.5782E00
725.90	1.5727E00
726.22	1.5975E00
726.53	1.5802E00
726.85	1.6036E00
727.16	1.6094E00
727.48	1.6221E00
727.80	1.6185E00
728.11	1.6186E00
728.43	1.6260E00
728.74	1.6294E00
729.06	1.6512E00
729.38	1.6518E00
729.69	1.6420E00
730.01	1.6599E00
730.32	1.6593E00
730.64	1.6558E00
730.96	1.6656E00
731.27	1.6952E00
731.59	1.6711E00
731.90	1.6925E00
732.22	1.6924E00
732.53	1.6940E00
732.85	1.7142E00
733.16	1.7190E00
733.48	1.7249E00
733.80	1.7005E00
734.11	1.7350E00
734.43	1.7284E00
734.74	1.7339E00
735.06	1.7633E00
735.37	1.7457E00
735.69	1.7667E00
736.00	1.7734E00
736.32	1.7756E00
736.63	1.7837E00
736.95	1.7877E00
737.26	1.8045E00
737.58	1.7953E00
737.89	1.8155E00
738.21	1.8167E00
738.52	1.8127E00
738.83	1.8322E00
739.15	1.8235E00
739.46	1.8437E00
739.78	1.8549E00
740.09	1.8559E00
740.41	1.8552E00
740.72	1.8528E00
741.04	1.8540E00
741.35	1.8558E00
741.66	1.8470E00
741.98	1.8736E00
742.29	1.8669E00
742.61	1.8767E00
742.92	1.8685E00
743.23	1.8776E00
743.55	1.8991E00
743.86	1.8945E00
744.18	1.8768E00
744.49	1.8916E00
744.80	1.8875E00
745.12	1.8867E00
745.43	1.8882E00
745.74	1.8816E00
746.06	1.8911E00
746.37	1.8708E00
746.68	1.8784E00
747.00	1.8889E00
747.31	1.8966E00
747.62	1.8703E00
747.94	1.8992E00
748.25	1.8890E00
748.56	1.8873E00
748.88	1.8860E00
749.19	1.8969E00
749.50	1.8955E00
749.82	1.8850E00
750.13	1.8915E00
750.44	1.8858E00
750.75	1.8722E00
751.07	1.8882E00
751.38	1.8951E00
751.69	1.8936E00
752.01	1.8919E00
752.32	1.9039E00
752.63	1.8879E00
752.94	1.8994E00
753.26	1.9228E00
753.57	1.9024E00
753.88	1.9320E00
754.19	1.9168E00
754.51	1.9148E00
754.82	1.9151E00
755.13	1.9497E00
755.44	1.9330E00
755.75	1.9296E00
756.07	1.9380E00
756.38	1.9568E00
756.69	1.9494E00
757.00	1.9600E00
757.31	1.9841E00
757.63	2.0070E00
757.94	2.0026E00
758.25	2.0017E00
758.56	1.9772E00
758.87	2.0151E00
759.18	2.0351E00
759.50	2.0321E00
759.81	2.0511E00
760.12	2.0438E00
760.43	2.0587E00
760.74	2.0754E00
761.05	2.0758E00
761.36	2.1009E00
761.67	2.1277E00
761.99	2.1324E00
762.30	2.1138E00
762.61	2.1473E00
762.92	2.1656E00
763.23	2.1732E00
763.54	2.1806E00
763.85	2.2167E00
764.16	2.2191E00
764.47	2.2254E00
764.78	2.2493E00
765.10	2.2615E00
765.41	2.2741E00
765.72	2.2798E00
766.03	2.3376E00
766.34	2.3404E00
766.65	2.3573E00
766.96	2.3835E00
767.27	2.3947E00
767.58	2.3767E00
767.89	2.4138E00
768.20	2.4497E00
768.51	2.4630E00
768.82	2.4696E00
769.13	2.4873E00
769.44	2.5410E00
769.75	2.5384E00
770.06	2.5758E00
770.37	2.5431E00
770.68	2.5958E00
770.99	2.6131E00
771.30	2.6535E00
771.61	2.6957E00
771.92	2.6671E00
772.23	2.6917E00
772.54	2.7319E00
772.85	2.7333E00
773.16	2.7963E00
773.47	2.8218E00
773.78	2.7972E00
774.09	2.8739E00
774.39	2.8676E00
774.70	2.9030E00
775.01	2.9220E00
775.32	2.9209E00
775.63	2.9698E00
775.94	3.0041E00
776.25	3.0113E00
776.56	3.0501E00
776.87	3.1172E00
777.18	3.1019E00
777.48	3.1221E00
777.79	3.1650E00
778.10	3.1843E00
778.41	3.2069E00
778.72	3.2421E00
779.03	3.2514E00
779.34	3.3376E00
779.65	3.3125E00
779.95	3.3523E00
780.26	3.3876E00
780.57	3.4173E00
780.88	3.4045E00
781.19	3.4781E00
781.50	3.4835E00
781.80	3.5152E00
782.11	3.5535E00
782.42	3.6254E00
782.73	3.5489E00
783.04	3.5979E00
783.34	3.6876E00
783.65	3.7181E00
783.96	3.7407E00
784.27	3.7336E00
784.57	3.7425E00
784.88	3.8435E00
785.19	3.8470E00
785.50	3.8504E00
785.81	3.8986E00
786.11	3.8714E00
786.42	4.0083E00
786.73	4.0177E00
787.04	3.9839E00
787.34	4.0437E00
787.65	4.0376E00
787.96	4.1428E00
788.26	4.1793E00
788.57	4.2281E00
788.88	4.1443E00
789.19	4.3104E00
789.49	4.3129E00
789.80	4.3375E00
790.11	4.3798E00
790.41	4.3581E00
790.72	4.4873E00
791.03	4.4727E00
791.33	4.5075E00
791.64	4.5191E00
791.95	4.5764E00
792.25	4.6652E00
792.56	4.6977E00
792.87	4.6605E00
793.17	4.7266E00
793.48	4.7095E00
793.79	4.7871E00
794.09	4.9648E00
794.40	4.7642E00
794.70	4.7999E00
795.01	4.9060E00
795.32	4.8883E00
795.62	5.0024E00
795.93	5.0260E00
796.23	5.0624E00
796.54	5.0754E00
796.85	5.0264E00
797.15	5.1692E00
797.46	5.1923E00
797.76	5.3009E00
798.07	5.2525E00
798.37	5.3727E00
798.68	5.3954E00
798.99	5.4591E00
799.29	5.4935E00
799.60	5.5187E00
799.90	5.5461E00
800.21	5.6493E00
800.51	5.6989E00
800.82	5.6694E00
801.12	5.7894E00
801.43	5.6952E00
801.73	5.8094E00
802.04	5.8592E00
802.34	5.8824E00
802.65	5.9952E00
802.95	6.0395E00
803.26	6.1230E00
803.56	6.0100E00
803.87	6.1073E00
804.17	6.1796E00
804.48	6.1491E00
804.78	6.1861E00
805.09	6.3257E00
805.39	6.2550E00
805.70	6.3226E00
806.00	6.4363E00
806.30	6.3373E00
806.61	6.4550E00
806.91	6.4812E00
807.22	6.5499E00
807.52	6.6345E00
807.83	6.5632E00
808.13	6.7227E00
808.43	6.6534E00
808.74	6.8752E00
809.04	6.8214E00
809.35	6.8522E00
809.65	7.0077E00
809.95	6.9362E00
810.26	7.1060E00
810.56	6.9509E00
810.86	7.2711E00
811.17	7.2281E00
811.47	7.3960E00
811.77	7.3703E00
812.08	7.4204E00
812.38	7.4346E00
812.69	7.3861E00
812.99	7.4412E00
813.29	7.4236E00
813.59	7.5969E00
813.90	7.7243E00
814.20	7.7720E00
814.50	7.8360E00
814.81	7.7884E00
815.11	7.9123E00
815.41	8.0051E00
815.72	7.9914E00
816.02	8.1427E00
816.32	8.0360E00
816.62	7.9955E00
816.93	8.0964E00
817.23	8.3387E00
817.53	8.3335E00
817.84	8.5392E00
818.14	8.5041E00
818.44	8.3078E00
818.74	8.6189E00
819.04	8.7571E00
819.35	8.7684E00
819.65	8.6691E00
819.95	8.8231E00
820.25	8.9706E00
820.56	9.0209E00
820.86	9.0178E00
821.16	9.0746E00
821.46	9.0513E00
821.76	9.0329E00
822.07	9.1651E00
822.37	9.4144E00
822.67	9.4302E00
822.97	9.6450E00
823.27	9.5372E00
823.57	9.5153E00
823.88	9.4786E00
824.18	9.7044E00
824.48	9.5011E00
824.78	9.7552E00
825.08	9.7514E00
825.38	9.9975E00
825.69	9.9116E00
825.99	9.9035E00
826.29	1.0111E01
826.59	1.0317E01
826.89	1.0318E01
827.19	1.0237E01
827.49	1.0461E01
827.79	1.0502E01
828.09	1.0511E01
828.39	1.0687E01
828.70	1.0535E01
829.00	1.0795E01
829.30	1.0865E01
829.60	1.0663E01
829.90	1.0901E01
830.20	1.1087E01
830.50	1.1245E01
830.80	1.1500E01
831.10	1.1320E01
831.40	1.1335E01
831.70	1.1365E01
832.00	1.1449E01
832.30	1.1764E01
832.60	1.1541E01
832.90	1.1699E01
833.20	1.1608E01
833.50	1.1707E01
833.80	1.2063E01
834.10	1.2046E01
834.40	1.2203E01
834.70	1.2163E01
835.00	1.2530E01
835.30	1.2443E01
835.60	1.2350E01
835.90	1.2504E01
836.20	1.2754E01
836.50	1.2461E01
836.80	1.2607E01
837.10	1.2859E01
837.40	1.2776E01
837.70	1.2943E01
838.00	1.3222E01
838.30	1.3156E01
838.60	1.3541E01
838.90	1.3370E01
839.19	1.3227E01
839.49	1.3913E01
839.79	1.3485E01
840.09	1.3641E01
840.39	1.3725E01
840.69	1.3828E01
840.99	1.4260E01
841.29	1.4236E01
841.59	1.4209E01
841.88	1.4394E01
842.18	1.4729E01
842.48	1.4579E01
842.78	1.4596E01
843.08	1.4850E01
843.38	1.5160E01
843.68	1.5260E01
843.97	1.5400E01
844.27	1.5161E01
844.57	1.5043E01
844.87	1.5481E01
845.17	1.5410E01
845.47	1.5830E01
845.76	1.5903E01
846.06	1.5954E01
846.36	1.5839E01
846.66	1.6060E01
846.96	1.6037E01
847.25	1.6348E01
847.55	1.6355E01
847.85	1.6534E01
848.15	1.6632E01
848.44	1.6869E01
848.74	1.7276E01
849.04	1.7182E01
849.34	1.7585E01
849.63	1.7143E01
849.93	1.6914E01
850.23	1.6659E01
850.53	1.7290E01
850.82	1.7246E01
851.12	1.7357E01
851.42	1.7063E01
851.71	1.7604E01
852.01	1.7605E01
852.31	1.7547E01
852.61	1.7346E01
852.90	1.7034E01
853.20	1.7582E01
853.50	1.7915E01
853.79	1.7192E01
854.09	1.7000E01
854.39	1.7465E01
854.68	1.6978E01
854.98	1.6500E01
855.28	1.7142E01
855.57	1.6944E01
855.87	1.7203E01
856.17	1.7354E01
856.46	1.6589E01
856.76	1.6488E01
857.05	1.6758E01
857.35	1.7196E01
857.65	1.7840E01
857.94	1.8028E01
858.24	1.8204E01
858.53	1.7780E01
858.83	1.8282E01
859.13	1.7979E01
859.42	1.7935E01
859.72	1.8263E01
860.01	1.7679E01
860.31	1.7957E01
860.60	1.8588E01
860.90	1.7953E01
861.20	1.8252E01
861.49	1.8490E01
861.79	1.8291E01
862.08	1.9631E01
862.38	1.8613E01
862.67	1.8198E01
862.97	1.8360E01
863.26	1.7731E01
863.56	1.8277E01
863.85	1.9161E01
864.15	1.8037E01
864.44	1.8295E01
864.74	1.8657E01
865.03	1.8772E01
865.33	1.8556E01
865.62	1.8643E01
865.92	1.8147E01
866.21	1.8161E01
866.51	1.7682E01
866.80	1.8307E01
867.10	1.8103E01
867.39	1.7218E01
867.69	1.7201E01
867.98	1.6701E01
868.27	1.6888E01
868.57	1.7248E01
868.86	1.7281E01
869.16	1.6918E01
869.45	1.7572E01
869.75	1.7395E01
870.04	1.8150E01
870.33	1.7833E01
870.63	1.7928E01
870.92	1.7733E01
871.22	2.0231E01
871.51	1.8632E01
871.80	1.8101E01
872.10	1.8101E01
>>>>>End Processed Spectral Data<<<<<
