SpectraSuite Data File
++++++++++++++++++++++++++++++++++++
Date: Thu May 14 11:32:35 PDT 2015
User: schluterlab
Dark Spectrum Present: Yes
Reference Spectrum Present: No
Number of Sampled Component Spectra: 1
Spectrometers: USB2E3373
Integration Time (usec): 2300000 (USB2E3373)
Spectra Averaged: 3 (USB2E3373)
Boxcar Smoothing: 0 (USB2E3373)
Correct for Electrical Dark: No (USB2E3373)
Strobe/Lamp Enabled: No (USB2E3373)
Correct for Detector Non-linearity: No (USB2E3373)
Correct for Stray Light: No (USB2E3373)
Number of Pixels in Processed Spectrum: 2048
>>>>>Begin Processed Spectral Data<<<<<
178.53	0.0000E00
178.91	0.0000E00
179.29	0.0000E00
179.67	0.0000E00
180.04	0.0000E00
180.42	0.0000E00
180.80	0.0000E00
181.18	0.0000E00
181.56	0.0000E00
181.94	0.0000E00
182.31	0.0000E00
182.69	0.0000E00
183.07	0.0000E00
183.45	0.0000E00
183.83	0.0000E00
184.20	0.0000E00
184.58	0.0000E00
184.96	0.0000E00
185.34	0.0000E00
185.72	0.0000E00
186.09	0.0000E00
186.47	0.0000E00
186.85	0.0000E00
187.23	0.0000E00
187.61	0.0000E00
187.98	0.0000E00
188.36	0.0000E00
188.74	0.0000E00
189.12	0.0000E00
189.49	0.0000E00
189.87	0.0000E00
190.25	0.0000E00
190.63	0.0000E00
191.00	0.0000E00
191.38	0.0000E00
191.76	0.0000E00
192.14	0.0000E00
192.51	0.0000E00
192.89	0.0000E00
193.27	0.0000E00
193.65	0.0000E00
194.02	0.0000E00
194.40	0.0000E00
194.78	0.0000E00
195.15	0.0000E00
195.53	0.0000E00
195.91	0.0000E00
196.29	0.0000E00
196.66	0.0000E00
197.04	0.0000E00
197.42	0.0000E00
197.79	0.0000E00
198.17	0.0000E00
198.55	0.0000E00
198.92	0.0000E00
199.30	0.0000E00
199.68	0.0000E00
200.05	0.0000E00
200.43	0.0000E00
200.81	0.0000E00
201.18	0.0000E00
201.56	0.0000E00
201.94	0.0000E00
202.31	0.0000E00
202.69	0.0000E00
203.07	0.0000E00
203.44	0.0000E00
203.82	0.0000E00
204.19	0.0000E00
204.57	0.0000E00
204.95	0.0000E00
205.32	0.0000E00
205.70	0.0000E00
206.08	-0.0000E00
206.45	0.0000E00
206.83	0.0000E00
207.20	0.0000E00
207.58	0.0000E00
207.96	0.0000E00
208.33	0.0000E00
208.71	0.0000E00
209.08	0.0000E00
209.46	0.0000E00
209.84	-0.0000E00
210.21	0.0000E00
210.59	0.0000E00
210.96	0.0000E00
211.34	0.0000E00
211.71	0.0000E00
212.09	0.0000E00
212.46	0.0000E00
212.84	0.0000E00
213.22	0.0000E00
213.59	0.0000E00
213.97	0.0000E00
214.34	0.0000E00
214.72	0.0000E00
215.09	0.0000E00
215.47	0.0000E00
215.84	0.0000E00
216.22	0.0000E00
216.59	0.0000E00
216.97	0.0000E00
217.34	0.0000E00
217.72	0.0000E00
218.09	0.0000E00
218.47	0.0000E00
218.84	0.0000E00
219.22	0.0000E00
219.59	0.0000E00
219.97	0.0000E00
220.34	0.0000E00
220.72	0.0000E00
221.09	0.0000E00
221.47	0.0000E00
221.84	0.0000E00
222.22	0.0000E00
222.59	0.0000E00
222.97	0.0000E00
223.34	0.0000E00
223.72	0.0000E00
224.09	0.0000E00
224.46	0.0000E00
224.84	0.0000E00
225.21	0.0000E00
225.59	0.0000E00
225.96	0.0000E00
226.34	0.0000E00
226.71	0.0000E00
227.08	0.0000E00
227.46	0.0000E00
227.83	0.0000E00
228.21	0.0000E00
228.58	0.0000E00
228.95	0.0000E00
229.33	0.0000E00
229.70	0.0000E00
230.08	0.0000E00
230.45	0.0000E00
230.82	0.0000E00
231.20	0.0000E00
231.57	0.0000E00
231.95	0.0000E00
232.32	0.0000E00
232.69	0.0000E00
233.07	0.0000E00
233.44	0.0000E00
233.81	0.0000E00
234.19	0.0000E00
234.56	0.0000E00
234.93	0.0000E00
235.31	0.0000E00
235.68	0.0000E00
236.05	0.0000E00
236.43	0.0000E00
236.80	0.0000E00
237.17	0.0000E00
237.55	0.0000E00
237.92	0.0000E00
238.29	0.0000E00
238.67	0.0000E00
239.04	0.0000E00
239.41	0.0000E00
239.79	0.0000E00
240.16	0.0000E00
240.53	0.0000E00
240.91	0.0000E00
241.28	0.0000E00
241.65	0.0000E00
242.02	0.0000E00
242.40	0.0000E00
242.77	0.0000E00
243.14	0.0000E00
243.51	0.0000E00
243.89	0.0000E00
244.26	0.0000E00
244.63	0.0000E00
245.00	0.0000E00
245.38	0.0000E00
245.75	0.0000E00
246.12	0.0000E00
246.49	0.0000E00
246.87	0.0000E00
247.24	0.0000E00
247.61	0.0000E00
247.98	0.0000E00
248.36	0.0000E00
248.73	0.0000E00
249.10	0.0000E00
249.47	0.0000E00
249.84	0.0000E00
250.22	0.0000E00
250.59	0.0000E00
250.96	0.0000E00
251.33	0.0000E00
251.70	0.0000E00
252.08	0.0000E00
252.45	0.0000E00
252.82	0.0000E00
253.19	0.0000E00
253.56	0.0000E00
253.94	0.0000E00
254.31	0.0000E00
254.68	0.0000E00
255.05	0.0000E00
255.42	0.0000E00
255.79	0.0000E00
256.16	0.0000E00
256.54	0.0000E00
256.91	0.0000E00
257.28	0.0000E00
257.65	0.0000E00
258.02	0.0000E00
258.39	0.0000E00
258.76	0.0000E00
259.14	0.0000E00
259.51	0.0000E00
259.88	0.0000E00
260.25	0.0000E00
260.62	0.0000E00
260.99	0.0000E00
261.36	0.0000E00
261.73	0.0000E00
262.10	0.0000E00
262.47	0.0000E00
262.85	0.0000E00
263.22	0.0000E00
263.59	0.0000E00
263.96	0.0000E00
264.33	0.0000E00
264.70	0.0000E00
265.07	0.0000E00
265.44	0.0000E00
265.81	0.0000E00
266.18	0.0000E00
266.55	0.0000E00
266.92	0.0000E00
267.29	0.0000E00
267.66	-0.0000E00
268.03	0.0000E00
268.40	0.0000E00
268.77	0.0000E00
269.14	0.0000E00
269.51	0.0000E00
269.88	0.0000E00
270.25	0.0000E00
270.62	0.0000E00
270.99	0.0000E00
271.36	0.0000E00
271.73	0.0000E00
272.10	0.0000E00
272.47	0.0000E00
272.84	0.0000E00
273.21	0.0000E00
273.58	0.0000E00
273.95	0.0000E00
274.32	0.0000E00
274.69	0.0000E00
275.06	0.0000E00
275.43	0.0000E00
275.80	0.0000E00
276.17	0.0000E00
276.54	0.0000E00
276.91	0.0000E00
277.28	0.0000E00
277.65	0.0000E00
278.02	0.0000E00
278.39	0.0000E00
278.76	0.0000E00
279.13	0.0000E00
279.50	0.0000E00
279.87	0.0000E00
280.23	0.0000E00
280.60	0.0000E00
280.97	0.0000E00
281.34	0.0000E00
281.71	0.0000E00
282.08	0.0000E00
282.45	0.0000E00
282.82	0.0000E00
283.19	0.0000E00
283.56	0.0000E00
283.92	0.0000E00
284.29	0.0000E00
284.66	0.0000E00
285.03	0.0000E00
285.40	0.0000E00
285.77	0.0000E00
286.14	0.0000E00
286.51	0.0000E00
286.87	0.0000E00
287.24	0.0000E00
287.61	0.0000E00
287.98	0.0000E00
288.35	0.0000E00
288.72	0.0000E00
289.08	0.0000E00
289.45	0.0000E00
289.82	0.0000E00
290.19	0.0000E00
290.56	0.0000E00
290.93	0.0000E00
291.29	0.0000E00
291.66	0.0000E00
292.03	0.0000E00
292.40	0.0000E00
292.77	0.0000E00
293.13	0.0000E00
293.50	0.0000E00
293.87	0.0000E00
294.24	0.0000E00
294.60	0.0000E00
294.97	0.0000E00
295.34	0.0000E00
295.71	0.0000E00
296.08	0.0000E00
296.44	0.0000E00
296.81	0.0000E00
297.18	0.0000E00
297.55	0.0000E00
297.91	0.0000E00
298.28	0.0000E00
298.65	0.0000E00
299.02	0.0000E00
299.38	0.0000E00
299.75	0.0000E00
300.12	7.7812E-02
300.48	1.0783E-01
300.85	7.3828E-02
301.22	1.5065E-01
301.59	9.2594E-02
301.95	1.0247E-01
302.32	6.9783E-02
302.69	8.5592E-02
303.05	7.7962E-02
303.42	1.2997E-01
303.79	1.2158E-01
304.15	8.6522E-02
304.52	9.4583E-02
304.89	1.0846E-01
305.25	6.4856E-02
305.62	7.9732E-02
305.99	9.8040E-02
306.35	7.0596E-02
306.72	8.7516E-02
307.09	1.5167E-01
307.45	1.2642E-01
307.82	1.2088E-01
308.19	4.4564E-01
308.55	9.3515E-02
308.92	8.7909E-02
309.29	7.4730E-02
309.65	1.6349E-01
310.02	1.2851E-01
310.38	8.7725E-02
310.75	6.4619E-02
311.12	9.5230E-02
311.48	7.7868E-02
311.85	1.3286E-01
312.22	9.7627E-02
312.58	1.4038E-01
312.95	6.1369E-02
313.31	7.2449E-02
313.68	9.9395E-02
314.05	8.7551E-02
314.41	9.9167E-02
314.78	9.0623E-02
315.14	4.6778E-01
315.51	9.1848E-02
315.87	6.7557E-02
316.24	1.5579E-01
316.61	9.3625E-02
316.97	9.3374E-02
317.34	1.1939E-01
317.70	7.2025E-02
318.07	9.2944E-02
318.43	9.5749E-02
318.80	1.3265E-01
319.16	8.9458E-02
319.53	2.2863E00
319.89	1.2687E-01
320.26	1.0569E-01
320.62	1.2607E-01
320.99	1.0307E-01
321.35	1.1059E-01
321.72	1.8778E-01
322.08	9.3781E-02
322.45	3.1295E-01
322.81	1.2375E-01
323.18	9.4029E-02
323.54	8.4736E-02
323.91	1.6173E-01
324.27	1.2554E-01
324.64	3.9701E-01
325.00	1.0159E-01
325.37	3.0428E-01
325.73	8.1414E-02
326.10	3.8182E-01
326.46	8.8413E-02
326.83	1.0603E-01
327.19	9.4152E-02
327.56	1.0146E-01
327.92	1.5115E-01
328.29	1.9454E-01
328.65	1.5703E-01
329.01	2.2617E-01
329.38	1.0034E-01
329.74	9.4688E-02
330.11	1.4081E-01
330.47	1.5228E-01
330.84	1.1208E-01
331.20	1.0371E-01
331.56	1.2867E-01
331.93	1.0256E-01
332.29	1.5754E-01
332.66	1.3125E-01
333.02	9.1115E-02
333.38	9.8163E-02
333.75	1.1942E-01
334.11	2.2132E-01
334.48	1.5384E-01
334.84	1.2435E-01
335.20	1.0328E-01
335.57	1.1764E-01
335.93	1.6808E-01
336.29	1.5327E-01
336.66	1.2060E-01
337.02	1.9131E-01
337.38	1.1598E-01
337.75	1.0668E-01
338.11	7.7203E-02
338.47	1.4013E-01
338.84	1.9421E-01
339.20	3.2417E-01
339.56	1.2318E-01
339.93	2.1190E-01
340.29	1.2056E-01
340.65	1.1771E-01
341.02	1.2345E-01
341.38	1.1458E-01
341.74	1.1780E-01
342.11	1.1857E-01
342.47	1.5859E-01
342.83	2.8637E-01
343.20	1.0273E-01
343.56	1.8463E-01
343.92	2.2664E-01
344.28	1.3777E-01
344.65	1.3394E-01
345.01	1.5130E-01
345.37	1.1767E-01
345.73	1.3565E-01
346.10	1.7316E-01
346.46	1.5953E-01
346.82	1.0083E-01
347.19	2.3478E-01
347.55	1.2117E-01
347.91	2.4423E-01
348.27	1.5740E-01
348.63	1.3033E-01
349.00	1.4262E-01
349.36	1.1796E-01
349.72	1.5071E-01
350.08	1.9683E-01
350.45	2.1143E-01
350.81	1.9064E-01
351.17	1.5753E-01
351.53	2.0168E-01
351.89	1.9750E-01
352.26	1.9218E-01
352.62	1.8348E-01
352.98	1.1125E-01
353.34	1.9952E-01
353.70	1.6231E-01
354.07	1.7986E-01
354.43	2.7530E-01
354.79	1.4971E-01
355.15	1.4351E-01
355.51	1.6399E-01
355.87	1.1497E-01
356.24	1.6160E-01
356.60	1.8490E-01
356.96	1.6895E-01
357.32	1.6834E-01
357.68	1.2669E-01
358.04	1.3633E-01
358.40	1.3981E-01
358.77	1.1641E-01
359.13	1.5730E-01
359.49	1.6446E-01
359.85	1.7428E-01
360.21	1.6208E-01
360.57	1.5148E-01
360.93	1.4122E-01
361.29	2.0756E-01
361.66	2.7332E-01
362.02	1.7447E-01
362.38	2.2733E-01
362.74	1.5519E-01
363.10	2.7569E-01
363.46	1.7064E-01
363.82	1.7267E-01
364.18	2.0623E-01
364.54	1.8914E-01
364.90	1.5179E-01
365.26	2.0598E-01
365.62	1.9822E-01
365.98	2.8728E-01
366.35	2.6150E-01
366.71	2.3488E-01
367.07	2.2828E-01
367.43	2.3415E-01
367.79	2.2667E-01
368.15	1.8150E-01
368.51	2.6299E-01
368.87	1.9987E-01
369.23	2.2795E-01
369.59	2.6754E-01
369.95	2.7692E-01
370.31	2.1205E-01
370.67	2.2624E-01
371.03	2.6350E-01
371.39	2.4773E-01
371.75	2.2652E-01
372.11	2.6694E-01
372.47	2.0751E-01
372.83	2.6319E-01
373.19	2.2274E-01
373.55	2.4127E-01
373.91	2.6853E-01
374.27	2.5952E-01
374.63	2.1833E-01
374.99	2.1896E-01
375.35	2.5173E-01
375.71	2.2127E-01
376.07	2.6817E-01
376.42	2.4518E-01
376.78	2.8235E-01
377.14	2.6620E-01
377.50	2.6583E-01
377.86	3.1631E-01
378.22	3.0911E-01
378.58	3.4423E-01
378.94	2.8000E-01
379.30	2.7637E-01
379.66	2.9683E-01
380.02	2.6876E-01
380.38	2.9302E-01
380.74	3.6296E-01
381.09	2.8540E-01
381.45	2.9909E-01
381.81	2.5029E-01
382.17	3.0206E-01
382.53	2.5140E-01
382.89	2.3987E-01
383.25	2.3369E-01
383.61	2.1910E-01
383.97	2.2774E-01
384.32	2.1878E-01
384.68	2.9380E-01
385.04	2.7935E-01
385.40	2.7493E-01
385.76	3.2636E-01
386.12	2.6614E-01
386.48	2.9012E-01
386.83	3.1661E-01
387.19	2.8470E-01
387.55	3.0470E-01
387.91	2.8324E-01
388.27	3.0959E-01
388.62	3.2752E-01
388.98	2.8038E-01
389.34	3.4472E-01
389.70	3.1698E-01
390.06	3.2715E-01
390.42	4.0131E-01
390.77	3.7077E-01
391.13	4.1265E-01
391.49	4.2357E-01
391.85	4.5966E-01
392.20	4.4141E-01
392.56	3.7781E-01
392.92	3.4311E-01
393.28	2.9403E-01
393.64	2.5710E-01
393.99	2.5312E-01
394.35	2.7865E-01
394.71	3.0658E-01
395.07	3.3478E-01
395.42	4.0884E-01
395.78	4.3189E-01
396.14	4.2502E-01
396.50	3.9464E-01
396.85	3.8087E-01
397.21	3.0148E-01
397.57	3.1973E-01
397.92	3.5890E-01
398.28	4.2775E-01
398.64	4.8032E-01
399.00	5.2302E-01
399.35	5.2947E-01
399.71	5.7765E-01
400.07	6.0519E-01
400.42	5.6990E-01
400.78	6.1157E-01
401.14	5.8335E-01
401.49	6.4700E-01
401.85	6.1770E-01
402.21	7.6240E-01
402.57	7.1496E-01
402.92	6.8762E-01
403.28	6.4707E-01
403.63	6.3305E-01
403.99	6.2522E-01
404.35	6.5678E-01
404.70	6.9747E-01
405.06	6.4106E-01
405.42	6.6639E-01
405.77	6.6021E-01
406.13	6.5701E-01
406.49	6.1598E-01
406.84	6.7481E-01
407.20	6.5565E-01
407.55	7.0609E-01
407.91	6.8181E-01
408.27	6.6547E-01
408.62	6.9063E-01
408.98	7.0238E-01
409.34	7.7043E-01
409.69	7.2083E-01
410.05	6.9974E-01
410.40	6.8587E-01
410.76	6.9725E-01
411.11	6.5439E-01
411.47	7.2081E-01
411.83	7.2033E-01
412.18	7.3872E-01
412.54	7.9517E-01
412.89	7.9605E-01
413.25	7.5759E-01
413.60	7.7920E-01
413.96	8.2657E-01
414.31	8.0675E-01
414.67	8.5244E-01
415.03	8.2412E-01
415.38	8.0481E-01
415.74	8.4245E-01
416.09	7.9188E-01
416.45	8.3361E-01
416.80	8.2345E-01
417.16	8.6545E-01
417.51	8.1150E-01
417.87	8.1718E-01
418.22	8.1801E-01
418.58	8.5115E-01
418.93	8.1223E-01
419.29	9.0233E-01
419.64	8.5340E-01
420.00	8.1644E-01
420.35	8.1916E-01
420.71	8.6844E-01
421.06	8.5664E-01
421.42	8.6834E-01
421.77	8.7237E-01
422.12	8.7198E-01
422.48	8.4482E-01
422.83	8.9203E-01
423.19	8.5467E-01
423.54	8.5374E-01
423.90	8.5415E-01
424.25	8.1260E-01
424.61	8.5315E-01
424.96	8.3552E-01
425.31	8.0415E-01
425.67	8.0430E-01
426.02	8.1641E-01
426.38	8.0993E-01
426.73	7.9397E-01
427.09	8.1286E-01
427.44	7.4997E-01
427.79	8.0561E-01
428.15	7.8853E-01
428.50	8.0343E-01
428.85	8.2959E-01
429.21	7.6705E-01
429.56	7.4171E-01
429.92	7.6229E-01
430.27	7.5169E-01
430.62	7.8648E-01
430.98	8.0550E-01
431.33	7.7239E-01
431.68	7.7083E-01
432.04	7.3908E-01
432.39	7.5635E-01
432.74	8.0551E-01
433.10	7.3085E-01
433.45	7.7214E-01
433.80	7.7645E-01
434.16	7.7975E-01
434.51	7.4715E-01
434.86	7.8268E-01
435.22	7.3874E-01
435.57	8.1370E-01
435.92	7.5856E-01
436.28	7.8537E-01
436.63	7.3271E-01
436.98	7.4108E-01
437.34	7.5745E-01
437.69	7.3079E-01
438.04	7.0826E-01
438.39	7.6359E-01
438.75	7.3403E-01
439.10	7.0605E-01
439.45	7.4655E-01
439.81	7.2481E-01
440.16	7.0683E-01
440.51	7.2603E-01
440.86	7.2451E-01
441.22	7.1729E-01
441.57	7.3217E-01
441.92	7.1092E-01
442.27	7.4629E-01
442.63	7.1728E-01
442.98	7.6294E-01
443.33	7.4498E-01
443.68	7.1904E-01
444.03	6.6864E-01
444.39	6.6915E-01
444.74	7.2125E-01
445.09	7.3406E-01
445.44	7.2618E-01
445.79	6.5746E-01
446.15	7.2278E-01
446.50	7.0886E-01
446.85	6.7578E-01
447.20	6.6666E-01
447.55	6.8671E-01
447.91	6.9711E-01
448.26	6.9413E-01
448.61	7.0694E-01
448.96	6.8435E-01
449.31	6.8220E-01
449.66	7.1732E-01
450.02	6.7821E-01
450.37	7.0970E-01
450.72	6.7730E-01
451.07	7.1606E-01
451.42	7.1834E-01
451.77	6.9441E-01
452.12	6.9371E-01
452.47	7.3300E-01
452.83	6.5083E-01
453.18	7.0020E-01
453.53	6.8300E-01
453.88	6.4622E-01
454.23	6.5289E-01
454.58	6.5038E-01
454.93	6.8114E-01
455.28	6.7364E-01
455.63	6.7056E-01
455.98	6.5597E-01
456.34	6.8366E-01
456.69	6.7514E-01
457.04	6.5801E-01
457.39	6.3217E-01
457.74	6.2257E-01
458.09	6.4683E-01
458.44	6.2889E-01
458.79	6.0172E-01
459.14	6.2882E-01
459.49	6.4669E-01
459.84	6.2338E-01
460.19	6.5863E-01
460.54	6.4814E-01
460.89	6.0064E-01
461.24	6.6134E-01
461.59	6.3317E-01
461.94	6.5325E-01
462.29	6.0052E-01
462.64	6.4921E-01
462.99	6.5593E-01
463.34	6.6071E-01
463.69	6.2705E-01
464.04	5.9026E-01
464.39	6.0037E-01
464.74	6.1778E-01
465.09	6.3881E-01
465.44	6.0094E-01
465.79	6.2640E-01
466.14	6.2926E-01
466.49	6.0813E-01
466.84	6.1500E-01
467.19	6.1888E-01
467.54	6.4012E-01
467.89	6.0332E-01
468.24	5.7756E-01
468.59	5.8461E-01
468.94	5.7738E-01
469.29	5.8072E-01
469.64	5.9214E-01
469.99	5.7976E-01
470.34	5.5664E-01
470.68	5.9540E-01
471.03	5.7582E-01
471.38	5.5957E-01
471.73	5.6062E-01
472.08	5.3977E-01
472.43	5.2350E-01
472.78	5.4429E-01
473.13	5.4649E-01
473.48	5.4461E-01
473.83	5.2387E-01
474.17	5.3281E-01
474.52	5.3047E-01
474.87	5.0574E-01
475.22	5.1485E-01
475.57	4.8910E-01
475.92	4.7236E-01
476.27	5.0702E-01
476.61	4.8102E-01
476.96	4.7108E-01
477.31	4.5328E-01
477.66	4.6082E-01
478.01	4.5726E-01
478.36	4.5744E-01
478.70	4.4224E-01
479.05	4.5253E-01
479.40	4.3018E-01
479.75	4.3356E-01
480.10	4.3393E-01
480.45	4.1926E-01
480.79	4.2491E-01
481.14	4.3351E-01
481.49	4.1635E-01
481.84	4.0621E-01
482.19	4.0329E-01
482.53	4.0702E-01
482.88	4.0040E-01
483.23	3.9282E-01
483.58	3.9172E-01
483.92	3.9966E-01
484.27	3.8243E-01
484.62	3.8375E-01
484.97	3.7333E-01
485.31	3.7348E-01
485.66	3.7882E-01
486.01	3.8138E-01
486.36	3.6476E-01
486.70	3.6793E-01
487.05	3.6711E-01
487.40	3.6482E-01
487.75	3.5644E-01
488.09	3.6029E-01
488.44	3.6269E-01
488.79	3.6222E-01
489.13	3.5684E-01
489.48	3.5940E-01
489.83	3.5792E-01
490.17	3.4732E-01
490.52	3.4752E-01
490.87	3.4880E-01
491.22	3.4907E-01
491.56	3.4940E-01
491.91	3.5447E-01
492.26	3.4891E-01
492.60	3.4901E-01
492.95	3.5194E-01
493.30	3.5097E-01
493.64	3.4539E-01
493.99	3.4870E-01
494.34	3.4870E-01
494.68	3.4196E-01
495.03	3.5279E-01
495.37	3.4464E-01
495.72	3.5350E-01
496.07	3.4494E-01
496.41	3.4412E-01
496.76	3.4369E-01
497.11	3.4862E-01
497.45	3.4596E-01
497.80	3.4732E-01
498.14	3.4460E-01
498.49	3.4415E-01
498.84	3.4604E-01
499.18	3.4058E-01
499.53	3.4382E-01
499.87	3.4516E-01
500.22	3.4793E-01
500.56	3.4720E-01
500.91	3.4497E-01
501.26	3.4563E-01
501.60	3.4272E-01
501.95	3.4360E-01
502.29	3.4330E-01
502.64	3.4020E-01
502.98	3.4639E-01
503.33	3.3985E-01
503.67	3.4286E-01
504.02	3.4218E-01
504.36	3.3949E-01
504.71	3.4496E-01
505.06	3.4366E-01
505.40	3.3913E-01
505.75	3.3971E-01
506.09	3.4183E-01
506.44	3.3911E-01
506.78	3.3848E-01
507.13	3.3926E-01
507.47	3.3702E-01
507.82	3.3580E-01
508.16	3.3802E-01
508.51	3.3528E-01
508.85	3.3243E-01
509.19	3.3190E-01
509.54	3.3620E-01
509.88	3.3842E-01
510.23	3.3315E-01
510.57	3.3346E-01
510.92	3.3362E-01
511.26	3.3098E-01
511.61	3.3232E-01
511.95	3.3063E-01
512.30	3.2858E-01
512.64	3.2935E-01
512.98	3.2917E-01
513.33	3.2825E-01
513.67	3.3221E-01
514.02	3.2980E-01
514.36	3.2692E-01
514.70	3.3036E-01
515.05	3.2369E-01
515.39	3.2639E-01
515.74	3.2471E-01
516.08	3.2721E-01
516.42	3.2326E-01
516.77	3.2448E-01
517.11	3.2436E-01
517.46	3.2347E-01
517.80	3.2441E-01
518.14	3.2423E-01
518.49	3.2121E-01
518.83	3.2457E-01
519.17	3.2749E-01
519.52	3.2262E-01
519.86	3.2183E-01
520.20	3.2049E-01
520.55	3.1973E-01
520.89	3.2013E-01
521.23	3.2081E-01
521.58	3.2372E-01
521.92	3.2273E-01
522.26	3.2616E-01
522.61	3.1966E-01
522.95	3.2253E-01
523.29	3.1988E-01
523.64	3.2235E-01
523.98	3.2281E-01
524.32	3.2249E-01
524.66	3.2171E-01
525.01	3.2304E-01
525.35	3.2389E-01
525.69	3.2619E-01
526.04	3.2650E-01
526.38	3.2166E-01
526.72	3.2778E-01
527.06	3.2623E-01
527.41	3.2875E-01
527.75	3.2812E-01
528.09	3.2608E-01
528.43	3.2971E-01
528.78	3.2761E-01
529.12	3.3287E-01
529.46	3.3218E-01
529.80	3.3382E-01
530.15	3.3423E-01
530.49	3.3646E-01
530.83	3.3581E-01
531.17	3.3601E-01
531.51	3.3866E-01
531.86	3.3813E-01
532.20	3.4364E-01
532.54	3.3896E-01
532.88	3.4212E-01
533.22	3.4491E-01
533.57	3.4659E-01
533.91	3.4458E-01
534.25	3.4684E-01
534.59	3.4731E-01
534.93	3.4403E-01
535.27	3.4817E-01
535.62	3.5222E-01
535.96	3.5231E-01
536.30	3.5087E-01
536.64	3.5540E-01
536.98	3.5694E-01
537.32	3.5549E-01
537.66	3.5474E-01
538.01	3.6178E-01
538.35	3.6152E-01
538.69	3.5758E-01
539.03	3.6421E-01
539.37	3.6013E-01
539.71	3.6563E-01
540.05	3.6157E-01
540.39	3.6515E-01
540.73	3.6751E-01
541.07	3.6687E-01
541.42	3.6776E-01
541.76	3.6854E-01
542.10	3.6940E-01
542.44	3.7186E-01
542.78	3.7182E-01
543.12	3.6888E-01
543.46	3.7707E-01
543.80	3.7219E-01
544.14	3.7116E-01
544.48	3.7025E-01
544.82	3.7473E-01
545.16	3.7279E-01
545.50	3.7448E-01
545.84	3.8064E-01
546.18	3.7374E-01
546.52	3.7903E-01
546.86	3.7894E-01
547.20	3.8036E-01
547.54	3.8576E-01
547.88	3.7999E-01
548.22	3.7965E-01
548.56	3.8285E-01
548.90	3.7973E-01
549.24	3.8215E-01
549.58	3.8504E-01
549.92	3.8295E-01
550.26	3.8734E-01
550.60	3.8510E-01
550.94	3.7969E-01
551.28	3.8803E-01
551.62	3.8260E-01
551.96	3.8708E-01
552.30	3.9094E-01
552.64	3.8956E-01
552.98	3.8742E-01
553.32	3.8630E-01
553.66	3.8619E-01
554.00	3.8573E-01
554.34	3.8889E-01
554.68	3.9043E-01
555.02	3.8730E-01
555.36	3.9194E-01
555.69	3.9081E-01
556.03	3.8898E-01
556.37	3.8886E-01
556.71	3.8831E-01
557.05	3.8923E-01
557.39	3.9024E-01
557.73	3.9083E-01
558.07	3.9058E-01
558.41	3.8699E-01
558.75	3.9145E-01
559.08	3.8947E-01
559.42	3.8482E-01
559.76	3.9250E-01
560.10	3.9179E-01
560.44	3.9324E-01
560.78	3.8895E-01
561.12	3.8891E-01
561.45	3.9042E-01
561.79	3.9225E-01
562.13	3.9177E-01
562.47	3.9156E-01
562.81	3.9406E-01
563.15	3.9416E-01
563.48	3.9199E-01
563.82	3.8550E-01
564.16	3.9321E-01
564.50	3.9116E-01
564.84	3.9431E-01
565.17	3.9262E-01
565.51	3.8893E-01
565.85	3.9345E-01
566.19	3.9092E-01
566.52	3.9548E-01
566.86	3.9083E-01
567.20	3.9408E-01
567.54	3.9604E-01
567.88	3.9428E-01
568.21	3.9799E-01
568.55	3.9574E-01
568.89	3.9376E-01
569.23	3.9419E-01
569.56	3.9429E-01
569.90	3.9724E-01
570.24	3.9941E-01
570.57	3.9972E-01
570.91	3.9821E-01
571.25	3.9692E-01
571.59	3.9644E-01
571.92	3.9739E-01
572.26	3.9918E-01
572.60	4.0120E-01
572.93	4.0140E-01
573.27	4.0358E-01
573.61	4.0497E-01
573.95	4.0001E-01
574.28	4.0553E-01
574.62	4.0459E-01
574.96	4.1118E-01
575.29	4.0836E-01
575.63	4.1325E-01
575.97	4.1021E-01
576.30	4.1771E-01
576.64	4.1270E-01
576.98	4.1608E-01
577.31	4.1447E-01
577.65	4.1885E-01
577.98	4.1725E-01
578.32	4.2166E-01
578.66	4.2445E-01
578.99	4.2178E-01
579.33	4.2832E-01
579.67	4.2514E-01
580.00	4.2928E-01
580.34	4.2574E-01
580.67	4.3090E-01
581.01	4.3178E-01
581.35	4.3324E-01
581.68	4.3560E-01
582.02	4.3614E-01
582.35	4.3771E-01
582.69	4.3568E-01
583.02	4.4391E-01
583.36	4.4259E-01
583.70	4.4021E-01
584.03	4.4385E-01
584.37	4.4232E-01
584.70	4.5046E-01
585.04	4.4790E-01
585.37	4.4595E-01
585.71	4.5433E-01
586.04	4.4970E-01
586.38	4.5278E-01
586.72	4.5769E-01
587.05	4.5585E-01
587.39	4.5986E-01
587.72	4.5573E-01
588.06	4.6371E-01
588.39	4.6034E-01
588.73	4.6311E-01
589.06	4.6363E-01
589.40	4.6804E-01
589.73	4.6852E-01
590.07	4.7166E-01
590.40	4.7194E-01
590.73	4.7785E-01
591.07	4.7092E-01
591.40	4.7901E-01
591.74	4.7648E-01
592.07	4.8130E-01
592.41	4.8063E-01
592.74	4.8106E-01
593.08	4.7722E-01
593.41	4.7981E-01
593.75	4.8235E-01
594.08	4.8395E-01
594.41	4.8440E-01
594.75	4.8814E-01
595.08	4.8566E-01
595.42	4.8157E-01
595.75	4.8455E-01
596.09	4.8927E-01
596.42	4.8778E-01
596.75	4.8925E-01
597.09	4.9444E-01
597.42	4.8746E-01
597.75	4.9312E-01
598.09	4.9233E-01
598.42	4.9602E-01
598.76	4.9619E-01
599.09	4.9695E-01
599.42	5.0199E-01
599.76	4.9781E-01
600.09	5.0063E-01
600.42	5.0116E-01
600.76	4.9140E-01
601.09	4.9794E-01
601.42	5.0668E-01
601.76	4.9881E-01
602.09	5.0059E-01
602.42	5.0315E-01
602.76	5.0294E-01
603.09	5.0167E-01
603.42	5.0418E-01
603.76	4.9942E-01
604.09	5.0087E-01
604.42	5.0445E-01
604.76	5.0066E-01
605.09	5.0764E-01
605.42	5.0540E-01
605.75	5.0693E-01
606.09	5.0936E-01
606.42	5.0643E-01
606.75	5.0817E-01
607.09	5.1143E-01
607.42	5.0615E-01
607.75	5.1120E-01
608.08	5.1268E-01
608.42	5.1301E-01
608.75	5.0988E-01
609.08	5.1419E-01
609.41	5.1485E-01
609.75	5.1575E-01
610.08	5.0932E-01
610.41	5.1474E-01
610.74	5.1568E-01
611.07	5.1713E-01
611.41	5.1060E-01
611.74	5.1665E-01
612.07	5.1535E-01
612.40	5.1218E-01
612.73	5.1418E-01
613.07	5.1980E-01
613.40	5.1470E-01
613.73	5.1233E-01
614.06	5.1663E-01
614.39	5.1751E-01
614.72	5.2051E-01
615.06	5.1920E-01
615.39	5.2718E-01
615.72	5.1848E-01
616.05	5.2921E-01
616.38	5.2539E-01
616.71	5.2806E-01
617.05	5.1845E-01
617.38	5.2319E-01
617.71	5.1905E-01
618.04	5.2773E-01
618.37	5.1822E-01
618.70	5.2201E-01
619.03	5.2386E-01
619.36	5.1698E-01
619.69	5.2480E-01
620.03	5.2048E-01
620.36	5.2004E-01
620.69	5.1998E-01
621.02	5.2421E-01
621.35	5.1814E-01
621.68	5.1235E-01
622.01	5.1780E-01
622.34	5.2022E-01
622.67	5.1899E-01
623.00	5.2246E-01
623.33	5.1975E-01
623.66	5.2080E-01
623.99	5.2419E-01
624.32	5.1724E-01
624.65	5.1902E-01
624.99	5.1994E-01
625.32	5.2219E-01
625.65	5.2171E-01
625.98	5.1283E-01
626.31	5.1943E-01
626.64	5.2212E-01
626.97	5.1817E-01
627.30	5.1645E-01
627.63	5.2043E-01
627.96	5.1613E-01
628.29	5.1301E-01
628.62	5.1985E-01
628.95	5.2104E-01
629.28	5.1270E-01
629.61	5.2485E-01
629.94	5.2141E-01
630.26	5.2334E-01
630.59	5.2368E-01
630.92	5.1889E-01
631.25	5.2121E-01
631.58	5.2711E-01
631.91	5.2650E-01
632.24	5.3076E-01
632.57	5.2865E-01
632.90	5.2619E-01
633.23	5.2737E-01
633.56	5.3122E-01
633.89	5.3137E-01
634.22	5.3232E-01
634.55	5.3537E-01
634.88	5.3975E-01
635.20	5.4032E-01
635.53	5.4342E-01
635.86	5.4371E-01
636.19	5.4976E-01
636.52	5.4947E-01
636.85	5.4961E-01
637.18	5.5607E-01
637.51	5.5292E-01
637.83	5.5993E-01
638.16	5.5577E-01
638.49	5.6492E-01
638.82	5.6422E-01
639.15	5.6600E-01
639.48	5.6879E-01
639.81	5.7704E-01
640.13	5.7077E-01
640.46	5.7720E-01
640.79	5.7656E-01
641.12	5.8549E-01
641.45	5.8194E-01
641.77	5.8340E-01
642.10	5.9243E-01
642.43	5.9195E-01
642.76	5.9792E-01
643.09	5.9198E-01
643.41	5.9868E-01
643.74	6.0113E-01
644.07	5.9743E-01
644.40	6.0349E-01
644.73	6.1219E-01
645.05	6.1269E-01
645.38	6.1467E-01
645.71	6.1753E-01
646.04	6.1967E-01
646.36	6.1655E-01
646.69	6.2919E-01
647.02	6.2083E-01
647.35	6.2613E-01
647.67	6.3447E-01
648.00	6.2992E-01
648.33	6.4059E-01
648.66	6.3221E-01
648.98	6.4306E-01
649.31	6.3781E-01
649.64	6.4050E-01
649.96	6.4927E-01
650.29	6.5209E-01
650.62	6.5305E-01
650.94	6.5664E-01
651.27	6.5355E-01
651.60	6.5531E-01
651.92	6.6562E-01
652.25	6.6459E-01
652.58	6.6505E-01
652.90	6.6987E-01
653.23	6.6739E-01
653.56	6.6995E-01
653.88	6.7599E-01
654.21	6.7583E-01
654.54	6.7994E-01
654.86	6.8741E-01
655.19	6.7949E-01
655.52	6.9191E-01
655.84	6.8454E-01
656.17	6.8796E-01
656.49	6.9690E-01
656.82	6.8464E-01
657.15	6.9844E-01
657.47	6.9779E-01
657.80	6.9947E-01
658.13	7.0091E-01
658.45	7.0492E-01
658.78	7.0895E-01
659.10	7.1077E-01
659.43	7.1204E-01
659.75	7.0942E-01
660.08	7.0619E-01
660.41	7.1681E-01
660.73	7.1928E-01
661.06	7.2243E-01
661.38	7.2067E-01
661.71	7.2182E-01
662.03	7.1586E-01
662.36	7.2923E-01
662.68	7.2902E-01
663.01	7.2148E-01
663.33	7.3249E-01
663.66	7.3299E-01
663.98	7.3811E-01
664.31	7.3175E-01
664.63	7.4715E-01
664.96	7.3547E-01
665.28	7.4397E-01
665.61	7.4219E-01
665.93	7.4180E-01
666.26	7.4646E-01
666.58	7.4932E-01
666.91	7.4470E-01
667.23	7.5286E-01
667.56	7.4917E-01
667.88	7.5162E-01
668.21	7.6008E-01
668.53	7.5272E-01
668.86	7.5899E-01
669.18	7.5708E-01
669.50	7.6851E-01
669.83	7.6636E-01
670.15	7.6751E-01
670.48	7.7179E-01
670.80	7.6793E-01
671.13	7.6416E-01
671.45	7.7300E-01
671.77	7.7607E-01
672.10	7.6999E-01
672.42	7.8519E-01
672.75	7.7729E-01
673.07	7.8633E-01
673.39	7.8143E-01
673.72	7.8613E-01
674.04	7.9197E-01
674.37	7.8743E-01
674.69	7.8391E-01
675.01	7.9877E-01
675.34	7.9673E-01
675.66	7.9907E-01
675.98	7.8804E-01
676.31	8.0304E-01
676.63	7.9986E-01
676.95	7.9840E-01
677.28	8.0611E-01
677.60	8.0772E-01
677.92	8.1259E-01
678.25	8.1489E-01
678.57	8.1512E-01
678.89	8.1139E-01
679.22	8.2277E-01
679.54	8.1594E-01
679.86	8.2802E-01
680.18	8.1913E-01
680.51	8.1971E-01
680.83	8.3832E-01
681.15	8.2597E-01
681.48	8.3581E-01
681.80	8.2989E-01
682.12	8.3149E-01
682.44	8.4046E-01
682.77	8.4500E-01
683.09	8.4976E-01
683.41	8.4861E-01
683.73	8.5593E-01
684.06	8.5115E-01
684.38	8.5099E-01
684.70	8.5911E-01
685.02	8.6369E-01
685.34	8.6618E-01
685.67	8.6253E-01
685.99	8.7711E-01
686.31	8.6705E-01
686.63	8.8292E-01
686.96	8.8485E-01
687.28	8.8981E-01
687.60	8.7750E-01
687.92	8.8673E-01
688.24	8.9341E-01
688.56	9.0252E-01
688.89	8.9268E-01
689.21	9.0427E-01
689.53	9.0312E-01
689.85	9.1371E-01
690.17	9.0613E-01
690.49	9.2644E-01
690.82	9.1638E-01
691.14	9.2021E-01
691.46	9.1883E-01
691.78	9.2952E-01
692.10	9.2356E-01
692.42	9.3649E-01
692.74	9.3701E-01
693.06	9.4206E-01
693.39	9.5365E-01
693.71	9.6703E-01
694.03	9.6194E-01
694.35	9.6112E-01
694.67	9.6368E-01
694.99	9.7785E-01
695.31	9.7676E-01
695.63	9.8086E-01
695.95	9.8271E-01
696.27	9.8541E-01
696.59	9.8817E-01
696.91	9.9714E-01
697.23	9.9999E-01
697.56	1.0048E00
697.88	1.0028E00
698.20	1.0106E00
698.52	1.0149E00
698.84	1.0296E00
699.16	1.0357E00
699.48	1.0241E00
699.80	1.0475E00
700.12	1.0381E00
700.44	1.0424E00
700.76	1.0502E00
701.08	1.0654E00
701.40	1.0645E00
701.72	1.0670E00
702.04	1.0754E00
702.36	1.0738E00
702.68	1.0848E00
703.00	1.0942E00
703.32	1.0901E00
703.64	1.1054E00
703.96	1.1024E00
704.28	1.1112E00
704.60	1.1188E00
704.91	1.1251E00
705.23	1.1256E00
705.55	1.1380E00
705.87	1.1394E00
706.19	1.1391E00
706.51	1.1515E00
706.83	1.1451E00
707.15	1.1741E00
707.47	1.1639E00
707.79	1.1782E00
708.11	1.1740E00
708.43	1.1820E00
708.74	1.1830E00
709.06	1.1943E00
709.38	1.2059E00
709.70	1.2044E00
710.02	1.2116E00
710.34	1.2069E00
710.66	1.2317E00
710.98	1.2280E00
711.29	1.2331E00
711.61	1.2530E00
711.93	1.2636E00
712.25	1.2523E00
712.57	1.2692E00
712.89	1.2749E00
713.20	1.2679E00
713.52	1.2874E00
713.84	1.2906E00
714.16	1.2825E00
714.48	1.2946E00
714.80	1.3136E00
715.11	1.3127E00
715.43	1.3267E00
715.75	1.3306E00
716.07	1.3352E00
716.39	1.3242E00
716.70	1.3367E00
717.02	1.3334E00
717.34	1.3620E00
717.66	1.3654E00
717.97	1.3774E00
718.29	1.3848E00
718.61	1.3919E00
718.93	1.4072E00
719.24	1.4023E00
719.56	1.4283E00
719.88	1.4267E00
720.20	1.4511E00
720.51	1.4677E00
720.83	1.4474E00
721.15	1.4755E00
721.46	1.4753E00
721.78	1.4844E00
722.10	1.5115E00
722.42	1.5061E00
722.73	1.5264E00
723.05	1.5160E00
723.37	1.5351E00
723.68	1.5526E00
724.00	1.5428E00
724.32	1.5693E00
724.63	1.5626E00
724.95	1.5803E00
725.27	1.5952E00
725.58	1.5980E00
725.90	1.5602E00
726.22	1.4110E00
726.53	1.3414E00
726.85	1.3415E00
727.16	1.3669E00
727.48	1.3326E00
727.80	1.2525E00
728.11	1.2282E00
728.43	1.2421E00
728.74	1.2774E00
729.06	1.2017E00
729.38	1.1660E00
729.69	1.1279E00
730.01	1.1343E00
730.32	1.0960E00
730.64	1.0771E00
730.96	1.0457E00
731.27	1.0356E00
731.59	1.0052E00
731.90	1.0060E00
732.22	1.0209E00
732.53	1.0200E00
732.85	1.0136E00
733.16	1.0112E00
733.48	9.9574E-01
733.80	9.9046E-01
734.11	9.8893E-01
734.43	9.7289E-01
734.74	9.5961E-01
735.06	9.6039E-01
735.37	9.2809E-01
735.69	9.3570E-01
736.00	9.0005E-01
736.32	8.6761E-01
736.63	1.0232E00
736.95	8.5257E-01
737.26	8.6220E-01
737.58	8.3469E-01
737.89	8.4206E-01
738.21	8.5504E-01
738.52	8.2674E-01
738.83	8.2376E-01
739.15	8.2456E-01
739.46	9.1669E-01
739.78	8.1338E-01
740.09	8.2269E-01
740.41	8.3120E-01
740.72	8.4605E-01
741.04	8.1844E-01
741.35	8.3193E-01
741.66	8.0108E-01
741.98	8.1135E-01
742.29	8.2567E-01
742.61	8.2201E-01
742.92	8.1610E-01
743.23	8.3176E-01
743.55	8.5141E-01
743.86	8.3462E-01
744.18	8.3708E-01
744.49	8.6080E-01
744.80	8.7784E-01
745.12	8.5916E-01
745.43	8.6291E-01
745.74	8.5027E-01
746.06	8.6669E-01
746.37	8.7472E-01
746.68	8.6510E-01
747.00	8.5979E-01
747.31	9.0805E-01
747.62	8.6272E-01
747.94	8.6758E-01
748.25	8.7209E-01
748.56	8.6606E-01
748.88	8.7340E-01
749.19	8.6683E-01
749.50	8.6767E-01
749.82	8.7890E-01
750.13	8.5963E-01
750.44	8.8086E-01
750.75	8.6248E-01
751.07	8.6489E-01
751.38	8.6670E-01
751.69	8.7020E-01
752.01	8.7094E-01
752.32	8.8017E-01
752.63	8.9493E-01
752.94	8.8084E-01
753.26	8.7389E-01
753.57	8.9473E-01
753.88	9.0755E-01
754.19	9.6383E-01
754.51	8.8143E-01
754.82	1.0078E00
755.13	9.2779E-01
755.44	8.8158E-01
755.75	9.0859E-01
756.07	9.0241E-01
756.38	8.9384E-01
756.69	9.2810E-01
757.00	8.9031E-01
757.31	8.9581E-01
757.63	9.2328E-01
757.94	9.0850E-01
758.25	8.9213E-01
758.56	9.0285E-01
758.87	9.0707E-01
759.18	8.6672E-01
759.50	7.9622E-01
759.81	7.3707E-01
760.12	5.3873E-01
760.43	4.3080E-01
760.74	3.8323E-01
761.05	3.3391E-01
761.36	3.6740E-01
761.67	4.4506E-01
761.99	4.7708E-01
762.30	5.1396E-01
762.61	5.1396E-01
762.92	4.9718E-01
763.23	5.0075E-01
763.54	4.9094E-01
763.85	4.9714E-01
764.16	5.1051E-01
764.47	6.6942E-01
764.78	5.5526E-01
765.10	6.7053E-01
765.41	6.2482E-01
765.72	7.5894E-01
766.03	6.8799E-01
766.34	7.1540E-01
766.65	7.5084E-01
766.96	8.8596E-01
767.27	8.1195E-01
767.58	8.4543E-01
767.89	8.7587E-01
768.20	9.0803E-01
768.51	8.9428E-01
768.82	9.0583E-01
769.13	9.6237E-01
769.44	9.2583E-01
769.75	9.8031E-01
770.06	9.5373E-01
770.37	9.6037E-01
770.68	9.7319E-01
770.99	9.7728E-01
771.30	9.7273E-01
771.61	9.8349E-01
771.92	1.0048E00
772.23	1.0294E00
772.54	9.9691E-01
772.85	1.0068E00
773.16	1.0251E00
773.47	1.0453E00
773.78	1.0377E00
774.09	1.0728E00
774.39	1.0785E00
774.70	1.0368E00
775.01	1.0548E00
775.32	1.0279E00
775.63	1.0837E00
775.94	1.0543E00
776.25	1.0645E00
776.56	1.0772E00
776.87	1.0767E00
777.18	1.0713E00
777.48	1.1153E00
777.79	1.0744E00
778.10	1.1349E00
778.41	1.1468E00
778.72	1.0974E00
779.03	1.1032E00
779.34	1.1562E00
779.65	1.1390E00
779.95	1.1391E00
780.26	1.1234E00
780.57	1.1901E00
780.88	1.1494E00
781.19	1.1826E00
781.50	1.1825E00
781.80	1.1603E00
782.11	1.1868E00
782.42	1.1953E00
782.73	1.2112E00
783.04	1.1707E00
783.34	1.1923E00
783.65	1.1978E00
783.96	1.2180E00
784.27	1.1948E00
784.57	1.2355E00
784.88	1.2246E00
785.19	1.2922E00
785.50	1.2505E00
785.81	1.2269E00
786.11	1.2335E00
786.42	1.2536E00
786.73	1.2671E00
787.04	1.3049E00
787.34	1.2267E00
787.65	1.2198E00
787.96	1.2423E00
788.26	1.2491E00
788.57	1.2947E00
788.88	1.2426E00
789.19	1.2621E00
789.49	1.2837E00
789.80	1.3382E00
790.11	1.2917E00
790.41	1.2614E00
790.72	1.3446E00
791.03	1.2652E00
791.33	1.2658E00
791.64	1.2811E00
791.95	1.3328E00
792.25	1.3409E00
792.56	1.3272E00
792.87	1.3830E00
793.17	1.3139E00
793.48	1.3562E00
793.79	1.3864E00
794.09	1.4253E00
794.40	1.4291E00
794.70	1.4169E00
795.01	1.5051E00
795.32	1.3966E00
795.62	1.4820E00
795.93	1.3933E00
796.23	1.4293E00
796.54	1.3708E00
796.85	1.4217E00
797.15	1.4285E00
797.46	1.4344E00
797.76	1.4511E00
798.07	1.5356E00
798.37	1.5293E00
798.68	1.4973E00
798.99	1.5368E00
799.29	1.5225E00
799.60	1.5479E00
799.90	1.4820E00
800.21	1.4891E00
800.51	1.4964E00
800.82	1.5787E00
801.12	1.5470E00
801.43	1.5422E00
801.73	1.5018E00
802.04	1.5085E00
802.34	1.5167E00
802.65	1.5719E00
802.95	1.5305E00
803.26	1.5970E00
803.56	1.5340E00
803.87	1.5260E00
804.17	1.5389E00
804.48	1.5394E00
804.78	1.5896E00
805.09	1.5616E00
805.39	1.5886E00
805.70	1.6515E00
806.00	1.6049E00
806.30	1.6394E00
806.61	1.6240E00
806.91	1.6267E00
807.22	1.6954E00
807.52	1.7044E00
807.83	1.6181E00
808.13	1.6821E00
808.43	1.6682E00
808.74	1.7350E00
809.04	1.6159E00
809.35	1.6140E00
809.65	1.6679E00
809.95	1.5761E00
810.26	1.5736E00
810.56	1.5384E00
810.86	1.6373E00
811.17	1.5625E00
811.47	1.5967E00
811.77	1.5439E00
812.08	1.5204E00
812.38	1.4842E00
812.69	1.4560E00
812.99	1.4921E00
813.29	1.3979E00
813.59	1.3705E00
813.90	1.4053E00
814.20	1.3973E00
814.50	1.3690E00
814.81	1.3419E00
815.11	1.3081E00
815.41	1.2119E00
815.72	1.2054E00
816.02	1.2002E00
816.32	1.1096E00
816.62	1.1119E00
816.93	1.1519E00
817.23	1.1175E00
817.53	1.1442E00
817.84	1.1403E00
818.14	1.1321E00
818.44	1.1757E00
818.74	1.2620E00
819.04	1.1375E00
819.35	1.1419E00
819.65	1.1339E00
819.95	1.1311E00
820.25	1.1569E00
820.56	1.2103E00
820.86	1.2305E00
821.16	1.3306E00
821.46	1.2379E00
821.76	1.2443E00
822.07	1.3802E00
822.37	1.2768E00
822.67	1.4242E00
822.97	1.3137E00
823.27	1.1120E00
823.57	1.0215E00
823.88	1.0201E00
824.18	1.0462E00
824.48	1.0396E00
824.78	1.0477E00
825.08	1.1464E00
825.38	1.1947E00
825.69	1.0833E00
825.99	1.0860E00
826.29	1.0968E00
826.59	1.0958E00
826.89	1.0512E00
827.19	1.2696E00
827.49	1.0706E00
827.79	9.8549E-01
828.09	9.7818E-01
828.39	9.5217E-01
828.70	9.3050E-01
829.00	1.0158E00
829.30	8.9509E-01
829.60	8.5551E-01
829.90	9.7629E-01
830.20	8.8616E-01
830.50	8.3413E-01
830.80	9.4087E-01
831.10	8.4911E-01
831.40	9.1229E-01
831.70	8.8097E-01
832.00	8.9536E-01
832.30	7.9435E-01
832.60	7.5752E-01
832.90	7.8218E-01
833.20	8.0008E-01
833.50	7.3985E-01
833.80	7.6609E-01
834.10	7.4341E-01
834.40	8.8304E-01
834.70	8.2981E-01
835.00	7.7067E-01
835.30	7.5540E-01
835.60	7.5684E-01
835.90	7.5541E-01
836.20	7.5752E-01
836.50	7.4967E-01
836.80	9.3169E-01
837.10	1.4104E00
837.40	8.1855E-01
837.70	9.4715E-01
838.00	7.5740E-01
838.30	8.1222E-01
838.60	8.6151E-01
838.90	8.7638E-01
839.19	1.2054E00
839.49	7.6852E-01
839.79	8.3802E-01
840.09	7.4556E-01
840.39	8.9323E-01
840.69	8.5111E-01
840.99	1.0810E00
841.29	8.9688E-01
841.59	7.8181E-01
841.88	7.5211E-01
842.18	8.6828E-01
842.48	7.8050E-01
842.78	7.4104E-01
843.08	8.0226E-01
843.38	7.9699E-01
843.68	1.0023E00
843.97	1.0147E00
844.27	8.6195E-01
844.57	7.5960E-01
844.87	7.9912E-01
845.17	7.9685E-01
845.47	7.7763E-01
845.76	8.9440E-01
846.06	8.9262E-01
846.36	1.5371E00
846.66	8.1618E-01
846.96	8.9714E-01
847.25	7.9522E-01
847.55	7.8107E-01
847.85	8.0876E-01
848.15	7.9395E-01
848.44	7.9495E-01
848.74	8.2652E-01
849.04	8.0834E-01
849.34	9.6700E-01
849.63	7.9188E-01
849.93	8.1070E-01
850.23	7.8136E-01
850.53	8.2734E-01
850.82	8.3028E-01
851.12	8.5100E-01
851.42	9.2105E-01
851.71	8.9995E-01
852.01	8.4182E-01
852.31	8.6285E-01
852.61	8.0315E-01
852.90	8.3544E-01
853.20	9.5622E-01
853.50	1.3367E00
853.79	1.0863E00
854.09	8.7454E-01
854.39	8.2521E-01
854.68	8.2478E-01
854.98	8.1202E-01
855.28	9.6396E-01
855.57	1.1561E00
855.87	1.0120E00
856.17	1.0584E00
856.46	8.6049E-01
856.76	8.4630E-01
857.05	9.9781E-01
857.35	8.7650E-01
857.65	1.2485E00
857.94	1.0556E00
858.24	1.1604E00
858.53	9.0312E-01
858.83	1.6159E00
859.13	9.2137E-01
859.42	1.0277E00
859.72	1.1254E00
860.01	9.3923E-01
860.31	9.5799E-01
860.60	9.4665E-01
860.90	1.1339E00
861.20	9.8519E-01
861.49	9.7251E-01
861.79	1.0003E00
862.08	2.4368E00
862.38	1.4328E00
862.67	1.0222E00
862.97	1.0128E00
863.26	1.0123E00
863.56	1.1930E00
863.85	1.4820E00
864.15	9.9893E-01
864.44	1.0317E00
864.74	1.0792E00
865.03	1.4082E00
865.33	1.2685E00
865.62	1.0401E00
865.92	1.0553E00
866.21	1.0753E00
866.51	9.9961E-01
866.80	1.3643E00
867.10	1.5579E00
867.39	1.2849E00
867.69	1.5000E00
867.98	1.0153E00
868.27	1.0429E00
868.57	1.0469E00
868.86	1.2939E00
869.16	1.0420E00
869.45	1.1700E00
869.75	1.0912E00
870.04	1.1709E00
870.33	1.3747E00
870.63	1.1044E00
870.92	1.0935E00
871.22	2.6343E00
871.51	1.2322E00
871.80	1.4501E00
872.10	1.4501E00
>>>>>End Processed Spectral Data<<<<<
