SpectraSuite Data File
++++++++++++++++++++++++++++++++++++
Date: Thu May 14 11:26:08 PDT 2015
User: schluterlab
Dark Spectrum Present: Yes
Reference Spectrum Present: No
Number of Sampled Component Spectra: 1
Spectrometers: USB2E3373
Integration Time (usec): 2300000 (USB2E3373)
Spectra Averaged: 3 (USB2E3373)
Boxcar Smoothing: 0 (USB2E3373)
Correct for Electrical Dark: No (USB2E3373)
Strobe/Lamp Enabled: No (USB2E3373)
Correct for Detector Non-linearity: No (USB2E3373)
Correct for Stray Light: No (USB2E3373)
Number of Pixels in Processed Spectrum: 2048
>>>>>Begin Processed Spectral Data<<<<<
178.53	0.0000E00
178.91	0.0000E00
179.29	0.0000E00
179.67	0.0000E00
180.04	0.0000E00
180.42	0.0000E00
180.80	0.0000E00
181.18	0.0000E00
181.56	0.0000E00
181.94	0.0000E00
182.31	0.0000E00
182.69	0.0000E00
183.07	0.0000E00
183.45	0.0000E00
183.83	0.0000E00
184.20	0.0000E00
184.58	0.0000E00
184.96	0.0000E00
185.34	0.0000E00
185.72	0.0000E00
186.09	0.0000E00
186.47	0.0000E00
186.85	0.0000E00
187.23	0.0000E00
187.61	0.0000E00
187.98	0.0000E00
188.36	0.0000E00
188.74	0.0000E00
189.12	0.0000E00
189.49	0.0000E00
189.87	0.0000E00
190.25	0.0000E00
190.63	0.0000E00
191.00	0.0000E00
191.38	0.0000E00
191.76	0.0000E00
192.14	0.0000E00
192.51	0.0000E00
192.89	0.0000E00
193.27	0.0000E00
193.65	0.0000E00
194.02	0.0000E00
194.40	0.0000E00
194.78	0.0000E00
195.15	0.0000E00
195.53	0.0000E00
195.91	0.0000E00
196.29	0.0000E00
196.66	0.0000E00
197.04	0.0000E00
197.42	0.0000E00
197.79	0.0000E00
198.17	0.0000E00
198.55	0.0000E00
198.92	0.0000E00
199.30	0.0000E00
199.68	0.0000E00
200.05	0.0000E00
200.43	0.0000E00
200.81	0.0000E00
201.18	0.0000E00
201.56	0.0000E00
201.94	0.0000E00
202.31	0.0000E00
202.69	0.0000E00
203.07	0.0000E00
203.44	0.0000E00
203.82	0.0000E00
204.19	0.0000E00
204.57	0.0000E00
204.95	0.0000E00
205.32	0.0000E00
205.70	0.0000E00
206.08	-0.0000E00
206.45	0.0000E00
206.83	0.0000E00
207.20	0.0000E00
207.58	0.0000E00
207.96	0.0000E00
208.33	0.0000E00
208.71	0.0000E00
209.08	0.0000E00
209.46	0.0000E00
209.84	-0.0000E00
210.21	0.0000E00
210.59	0.0000E00
210.96	0.0000E00
211.34	0.0000E00
211.71	0.0000E00
212.09	0.0000E00
212.46	0.0000E00
212.84	0.0000E00
213.22	0.0000E00
213.59	0.0000E00
213.97	0.0000E00
214.34	0.0000E00
214.72	0.0000E00
215.09	0.0000E00
215.47	0.0000E00
215.84	0.0000E00
216.22	0.0000E00
216.59	0.0000E00
216.97	0.0000E00
217.34	0.0000E00
217.72	0.0000E00
218.09	0.0000E00
218.47	0.0000E00
218.84	0.0000E00
219.22	0.0000E00
219.59	0.0000E00
219.97	0.0000E00
220.34	0.0000E00
220.72	0.0000E00
221.09	0.0000E00
221.47	0.0000E00
221.84	0.0000E00
222.22	0.0000E00
222.59	0.0000E00
222.97	0.0000E00
223.34	0.0000E00
223.72	0.0000E00
224.09	0.0000E00
224.46	0.0000E00
224.84	0.0000E00
225.21	0.0000E00
225.59	0.0000E00
225.96	0.0000E00
226.34	0.0000E00
226.71	0.0000E00
227.08	0.0000E00
227.46	0.0000E00
227.83	0.0000E00
228.21	0.0000E00
228.58	0.0000E00
228.95	0.0000E00
229.33	0.0000E00
229.70	0.0000E00
230.08	0.0000E00
230.45	0.0000E00
230.82	0.0000E00
231.20	0.0000E00
231.57	0.0000E00
231.95	0.0000E00
232.32	0.0000E00
232.69	0.0000E00
233.07	0.0000E00
233.44	0.0000E00
233.81	0.0000E00
234.19	0.0000E00
234.56	0.0000E00
234.93	0.0000E00
235.31	0.0000E00
235.68	0.0000E00
236.05	0.0000E00
236.43	0.0000E00
236.80	0.0000E00
237.17	0.0000E00
237.55	0.0000E00
237.92	0.0000E00
238.29	0.0000E00
238.67	0.0000E00
239.04	0.0000E00
239.41	0.0000E00
239.79	0.0000E00
240.16	0.0000E00
240.53	0.0000E00
240.91	0.0000E00
241.28	0.0000E00
241.65	0.0000E00
242.02	0.0000E00
242.40	0.0000E00
242.77	0.0000E00
243.14	0.0000E00
243.51	0.0000E00
243.89	0.0000E00
244.26	0.0000E00
244.63	0.0000E00
245.00	0.0000E00
245.38	0.0000E00
245.75	0.0000E00
246.12	0.0000E00
246.49	0.0000E00
246.87	0.0000E00
247.24	0.0000E00
247.61	0.0000E00
247.98	0.0000E00
248.36	0.0000E00
248.73	0.0000E00
249.10	0.0000E00
249.47	0.0000E00
249.84	0.0000E00
250.22	0.0000E00
250.59	0.0000E00
250.96	0.0000E00
251.33	0.0000E00
251.70	0.0000E00
252.08	0.0000E00
252.45	0.0000E00
252.82	0.0000E00
253.19	0.0000E00
253.56	0.0000E00
253.94	0.0000E00
254.31	0.0000E00
254.68	0.0000E00
255.05	0.0000E00
255.42	0.0000E00
255.79	0.0000E00
256.16	0.0000E00
256.54	0.0000E00
256.91	0.0000E00
257.28	0.0000E00
257.65	0.0000E00
258.02	0.0000E00
258.39	0.0000E00
258.76	0.0000E00
259.14	0.0000E00
259.51	0.0000E00
259.88	0.0000E00
260.25	0.0000E00
260.62	0.0000E00
260.99	0.0000E00
261.36	0.0000E00
261.73	0.0000E00
262.10	0.0000E00
262.47	0.0000E00
262.85	0.0000E00
263.22	0.0000E00
263.59	0.0000E00
263.96	0.0000E00
264.33	0.0000E00
264.70	0.0000E00
265.07	0.0000E00
265.44	0.0000E00
265.81	0.0000E00
266.18	0.0000E00
266.55	0.0000E00
266.92	0.0000E00
267.29	0.0000E00
267.66	-0.0000E00
268.03	0.0000E00
268.40	0.0000E00
268.77	0.0000E00
269.14	0.0000E00
269.51	0.0000E00
269.88	0.0000E00
270.25	0.0000E00
270.62	0.0000E00
270.99	0.0000E00
271.36	0.0000E00
271.73	0.0000E00
272.10	0.0000E00
272.47	0.0000E00
272.84	0.0000E00
273.21	0.0000E00
273.58	0.0000E00
273.95	0.0000E00
274.32	0.0000E00
274.69	0.0000E00
275.06	0.0000E00
275.43	0.0000E00
275.80	0.0000E00
276.17	0.0000E00
276.54	0.0000E00
276.91	0.0000E00
277.28	0.0000E00
277.65	0.0000E00
278.02	0.0000E00
278.39	0.0000E00
278.76	0.0000E00
279.13	0.0000E00
279.50	0.0000E00
279.87	0.0000E00
280.23	0.0000E00
280.60	0.0000E00
280.97	0.0000E00
281.34	0.0000E00
281.71	0.0000E00
282.08	0.0000E00
282.45	0.0000E00
282.82	0.0000E00
283.19	0.0000E00
283.56	0.0000E00
283.92	0.0000E00
284.29	0.0000E00
284.66	0.0000E00
285.03	0.0000E00
285.40	0.0000E00
285.77	0.0000E00
286.14	0.0000E00
286.51	0.0000E00
286.87	0.0000E00
287.24	0.0000E00
287.61	0.0000E00
287.98	0.0000E00
288.35	0.0000E00
288.72	0.0000E00
289.08	0.0000E00
289.45	0.0000E00
289.82	0.0000E00
290.19	0.0000E00
290.56	0.0000E00
290.93	0.0000E00
291.29	0.0000E00
291.66	0.0000E00
292.03	0.0000E00
292.40	0.0000E00
292.77	0.0000E00
293.13	0.0000E00
293.50	0.0000E00
293.87	0.0000E00
294.24	0.0000E00
294.60	0.0000E00
294.97	0.0000E00
295.34	0.0000E00
295.71	0.0000E00
296.08	0.0000E00
296.44	0.0000E00
296.81	0.0000E00
297.18	0.0000E00
297.55	0.0000E00
297.91	0.0000E00
298.28	0.0000E00
298.65	0.0000E00
299.02	0.0000E00
299.38	0.0000E00
299.75	0.0000E00
300.12	2.9833E-01
300.48	3.6695E-01
300.85	2.9282E-01
301.22	5.5544E-01
301.59	3.2317E-01
301.95	3.5139E-01
302.32	2.8548E-01
302.69	3.3706E-01
303.05	3.1626E-01
303.42	5.0892E-01
303.79	4.8419E-01
304.15	3.1667E-01
304.52	4.0436E-01
304.89	4.5802E-01
305.25	2.6426E-01
305.62	3.5497E-01
305.99	4.0046E-01
306.35	3.2878E-01
306.72	4.1869E-01
307.09	5.0440E-01
307.45	4.9012E-01
307.82	5.3708E-01
308.19	1.9700E00
308.55	4.8693E-01
308.92	4.2088E-01
309.29	3.9769E-01
309.65	4.5069E-01
310.02	6.1182E-01
310.38	4.7635E-01
310.75	3.9517E-01
311.12	6.1503E-01
311.48	5.1516E-01
311.85	7.1712E-01
312.22	5.1540E-01
312.58	9.3107E-01
312.95	4.1770E-01
313.31	5.2143E-01
313.68	7.0581E-01
314.05	6.3998E-01
314.41	7.5499E-01
314.78	6.2402E-01
315.14	1.8487E00
315.51	7.3048E-01
315.87	5.2401E-01
316.24	1.2520E00
316.61	7.7456E-01
316.97	7.8127E-01
317.34	8.3812E-01
317.70	6.6707E-01
318.07	7.8204E-01
318.43	7.8727E-01
318.80	1.2487E00
319.16	8.5205E-01
319.53	2.2624E01
319.89	1.2205E00
320.26	9.6483E-01
320.62	1.3132E00
320.99	9.4438E-01
321.35	1.0364E00
321.72	1.3968E00
322.08	9.7022E-01
322.45	1.8215E00
322.81	1.2943E00
323.18	7.8843E-01
323.54	8.1969E-01
323.91	1.7991E00
324.27	1.2870E00
324.64	4.2419E00
325.00	1.0230E00
325.37	4.1071E00
325.73	1.1853E00
326.10	4.7492E00
326.46	1.3311E00
326.83	1.3135E00
327.19	1.4462E00
327.56	1.4442E00
327.92	2.1402E00
328.29	2.7007E00
328.65	2.3754E00
329.01	3.2743E00
329.38	1.4680E00
329.74	1.5987E00
330.11	2.0970E00
330.47	2.4902E00
330.84	1.8671E00
331.20	1.7996E00
331.56	2.1413E00
331.93	1.7448E00
332.29	2.1081E00
332.66	2.1968E00
333.02	1.3691E00
333.38	1.6109E00
333.75	1.6588E00
334.11	1.7108E00
334.48	2.4812E00
334.84	2.0946E00
335.20	1.6941E00
335.57	1.9295E00
335.93	2.6884E00
336.29	2.2364E00
336.66	1.9848E00
337.02	2.0577E00
337.38	1.9105E00
337.75	1.5281E00
338.11	1.1874E00
338.47	2.0553E00
338.84	2.6778E00
339.20	4.8781E00
339.56	1.8563E00
339.93	1.8630E00
340.29	1.4668E00
340.65	1.7051E00
341.02	1.7702E00
341.38	1.6735E00
341.74	1.5034E00
342.11	1.5153E00
342.47	2.0932E00
342.83	2.1912E00
343.20	1.4385E00
343.56	2.4180E00
343.92	1.7220E00
344.28	1.9076E00
344.65	1.8660E00
345.01	1.9440E00
345.37	1.6445E00
345.73	1.6604E00
346.10	2.2162E00
346.46	1.7884E00
346.82	1.3443E00
347.19	3.0375E00
347.55	1.6087E00
347.91	3.0905E00
348.27	1.9839E00
348.63	1.6514E00
349.00	1.6216E00
349.36	1.4877E00
349.72	1.7284E00
350.08	2.1888E00
350.45	2.2006E00
350.81	2.1450E00
351.17	1.5005E00
351.53	2.0995E00
351.89	1.9326E00
352.26	1.7478E00
352.62	1.8971E00
352.98	1.2808E00
353.34	2.2099E00
353.70	1.6901E00
354.07	1.2956E00
354.43	1.5552E00
354.79	1.3535E00
355.15	1.3854E00
355.51	1.6070E00
355.87	1.0526E00
356.24	1.5853E00
356.60	1.7035E00
356.96	1.5002E00
357.32	1.8019E00
357.68	1.2594E00
358.04	1.4943E00
358.40	1.5333E00
358.77	1.2811E00
359.13	1.6913E00
359.49	1.6680E00
359.85	1.5470E00
360.21	1.4440E00
360.57	1.3328E00
360.93	1.2593E00
361.29	1.5110E00
361.66	2.3122E00
362.02	1.4601E00
362.38	1.9693E00
362.74	1.3047E00
363.10	1.5356E00
363.46	1.3351E00
363.82	1.3928E00
364.18	1.5336E00
364.54	1.4272E00
364.90	1.1183E00
365.26	1.5104E00
365.62	1.3897E00
365.98	1.9334E00
366.35	1.7070E00
366.71	1.4405E00
367.07	1.4568E00
367.43	1.4300E00
367.79	1.3671E00
368.15	1.1444E00
368.51	1.4185E00
368.87	1.2422E00
369.23	1.3555E00
369.59	1.5774E00
369.95	1.5713E00
370.31	1.2222E00
370.67	1.3269E00
371.03	1.5294E00
371.39	1.4240E00
371.75	1.2305E00
372.11	1.4718E00
372.47	1.2136E00
372.83	1.4794E00
373.19	1.3226E00
373.55	1.4692E00
373.91	1.4640E00
374.27	1.6194E00
374.63	1.3710E00
374.99	1.3527E00
375.35	1.4293E00
375.71	1.2513E00
376.07	1.3888E00
376.42	1.2722E00
376.78	1.3997E00
377.14	1.2974E00
377.50	1.1654E00
377.86	1.3613E00
378.22	1.2082E00
378.58	1.3165E00
378.94	1.0642E00
379.30	1.1365E00
379.66	1.2649E00
380.02	1.1674E00
380.38	1.1886E00
380.74	1.3126E00
381.09	1.0982E00
381.45	1.1614E00
381.81	1.0014E00
382.17	1.3143E00
382.53	1.1678E00
382.89	1.1326E00
383.25	1.2000E00
383.61	1.1466E00
383.97	1.1499E00
384.32	1.0943E00
384.68	1.2779E00
385.04	1.0844E00
385.40	1.0796E00
385.76	1.2248E00
386.12	1.0715E00
386.48	1.1342E00
386.83	1.2135E00
387.19	1.0667E00
387.55	1.1340E00
387.91	1.0334E00
388.27	1.1259E00
388.62	1.2167E00
388.98	1.0249E00
389.34	1.2064E00
389.70	1.0325E00
390.06	1.0000E00
390.42	1.2143E00
390.77	1.0928E00
391.13	1.0571E00
391.49	1.1831E00
391.85	1.2752E00
392.20	1.2196E00
392.56	1.1481E00
392.92	1.0861E00
393.28	1.0765E00
393.64	1.0854E00
393.99	1.1330E00
394.35	1.0872E00
394.71	1.0961E00
395.07	1.0121E00
395.42	1.1093E00
395.78	1.1556E00
396.14	1.0986E00
396.50	1.0562E00
396.85	1.1736E00
397.21	1.0240E00
397.57	1.1194E00
397.92	1.0947E00
398.28	1.0652E00
398.64	1.1246E00
399.00	1.0245E00
399.35	9.9555E-01
399.71	1.0278E00
400.07	1.0795E00
400.42	1.0216E00
400.78	1.0350E00
401.14	9.7089E-01
401.49	1.0299E00
401.85	9.6250E-01
402.21	1.0427E00
402.57	1.0433E00
402.92	1.0127E00
403.28	9.8106E-01
403.63	9.7705E-01
403.99	9.7033E-01
404.35	9.7915E-01
404.70	1.0273E00
405.06	9.3129E-01
405.42	1.0337E00
405.77	9.5451E-01
406.13	9.4125E-01
406.49	8.9626E-01
406.84	9.6877E-01
407.20	9.2733E-01
407.55	1.0152E00
407.91	1.0127E00
408.27	9.2223E-01
408.62	9.0689E-01
408.98	9.1392E-01
409.34	9.0511E-01
409.69	9.5844E-01
410.05	9.2648E-01
410.40	9.1673E-01
410.76	8.7775E-01
411.11	8.3568E-01
411.47	9.1804E-01
411.83	8.5199E-01
412.18	8.5728E-01
412.54	9.1903E-01
412.89	9.1875E-01
413.25	8.5089E-01
413.60	8.7960E-01
413.96	9.4289E-01
414.31	9.0535E-01
414.67	9.5872E-01
415.03	9.6043E-01
415.38	9.2022E-01
415.74	9.5309E-01
416.09	8.8037E-01
416.45	9.4346E-01
416.80	8.8274E-01
417.16	9.5166E-01
417.51	8.9062E-01
417.87	8.7825E-01
418.22	8.5991E-01
418.58	9.2522E-01
418.93	8.3095E-01
419.29	9.0490E-01
419.64	8.7217E-01
420.00	8.3557E-01
420.35	8.0955E-01
420.71	8.5934E-01
421.06	8.4875E-01
421.42	8.5772E-01
421.77	8.6119E-01
422.12	8.6044E-01
422.48	8.3357E-01
422.83	8.8052E-01
423.19	8.4407E-01
423.54	8.4344E-01
423.90	8.4485E-01
424.25	8.0608E-01
424.61	8.4862E-01
424.96	8.3330E-01
425.31	8.0270E-01
425.67	8.0292E-01
426.02	8.1599E-01
426.38	8.0931E-01
426.73	7.9316E-01
427.09	8.1188E-01
427.44	7.4927E-01
427.79	8.0492E-01
428.15	7.8778E-01
428.50	8.0267E-01
428.85	8.2860E-01
429.21	7.6672E-01
429.56	7.4069E-01
429.92	7.6104E-01
430.27	7.5105E-01
430.62	7.8473E-01
430.98	8.0308E-01
431.33	7.7113E-01
431.68	7.7004E-01
432.04	7.3851E-01
432.39	7.5622E-01
432.74	8.0503E-01
433.10	7.3016E-01
433.45	7.7122E-01
433.80	7.7578E-01
434.16	7.7921E-01
434.51	7.4644E-01
434.86	7.8241E-01
435.22	7.3792E-01
435.57	8.1314E-01
435.92	7.5772E-01
436.28	7.8429E-01
436.63	7.3220E-01
436.98	7.4025E-01
437.34	7.5706E-01
437.69	7.3016E-01
438.04	7.0771E-01
438.39	7.6254E-01
438.75	7.3347E-01
439.10	7.0495E-01
439.45	7.4578E-01
439.81	7.2350E-01
440.16	7.0622E-01
440.51	7.2553E-01
440.86	7.2327E-01
441.22	7.1686E-01
441.57	7.3078E-01
441.92	7.1062E-01
442.27	7.4578E-01
442.63	7.1648E-01
442.98	7.6189E-01
443.33	7.4422E-01
443.68	7.1756E-01
444.03	6.6726E-01
444.39	6.6880E-01
444.74	7.2007E-01
445.09	7.3299E-01
445.44	7.2499E-01
445.79	6.5678E-01
446.15	7.2235E-01
446.50	7.0801E-01
446.85	6.7497E-01
447.20	6.6552E-01
447.55	6.8530E-01
447.91	6.9657E-01
448.26	6.9324E-01
448.61	7.0621E-01
448.96	6.8406E-01
449.31	6.8155E-01
449.66	7.1726E-01
450.02	6.7716E-01
450.37	7.0848E-01
450.72	6.7637E-01
451.07	7.1569E-01
451.42	7.1736E-01
451.77	6.9363E-01
452.12	6.9288E-01
452.47	7.3193E-01
452.83	6.5033E-01
453.18	6.9936E-01
453.53	6.8171E-01
453.88	6.4583E-01
454.23	6.5205E-01
454.58	6.4944E-01
454.93	6.8050E-01
455.28	6.7272E-01
455.63	6.6999E-01
455.98	6.5524E-01
456.34	6.8307E-01
456.69	6.7438E-01
457.04	6.5711E-01
457.39	6.3151E-01
457.74	6.2199E-01
458.09	6.4589E-01
458.44	6.2814E-01
458.79	6.0048E-01
459.14	6.2850E-01
459.49	6.4585E-01
459.84	6.2257E-01
460.19	6.5761E-01
460.54	6.4742E-01
460.89	5.9955E-01
461.24	6.6026E-01
461.59	6.3252E-01
461.94	6.5180E-01
462.29	6.0001E-01
462.64	6.4827E-01
462.99	6.5509E-01
463.34	6.5969E-01
463.69	6.2657E-01
464.04	5.8940E-01
464.39	6.0006E-01
464.74	6.1688E-01
465.09	6.3788E-01
465.44	5.9991E-01
465.79	6.2537E-01
466.14	6.2845E-01
466.49	6.0745E-01
466.84	6.1389E-01
467.19	6.1787E-01
467.54	6.3957E-01
467.89	6.0249E-01
468.24	5.7682E-01
468.59	5.8401E-01
468.94	5.7668E-01
469.29	5.8008E-01
469.64	5.9164E-01
469.99	5.7911E-01
470.34	5.5587E-01
470.68	5.9443E-01
471.03	5.7493E-01
471.38	5.5856E-01
471.73	5.6004E-01
472.08	5.3912E-01
472.43	5.2328E-01
472.78	5.4345E-01
473.13	5.4602E-01
473.48	5.4340E-01
473.83	5.2315E-01
474.17	5.3212E-01
474.52	5.2970E-01
474.87	5.0530E-01
475.22	5.1397E-01
475.57	4.8800E-01
475.92	4.7139E-01
476.27	5.0619E-01
476.61	4.7995E-01
476.96	4.7063E-01
477.31	4.5250E-01
477.66	4.6023E-01
478.01	4.5640E-01
478.36	4.5721E-01
478.70	4.4186E-01
479.05	4.5195E-01
479.40	4.2959E-01
479.75	4.3293E-01
480.10	4.3323E-01
480.45	4.1886E-01
480.79	4.2418E-01
481.14	4.3247E-01
481.49	4.1564E-01
481.84	4.0576E-01
482.19	4.0260E-01
482.53	4.0618E-01
482.88	3.9954E-01
483.23	3.9214E-01
483.58	3.9112E-01
483.92	3.9914E-01
484.27	3.8191E-01
484.62	3.8312E-01
484.97	3.7246E-01
485.31	3.7284E-01
485.66	3.7830E-01
486.01	3.8108E-01
486.36	3.6410E-01
486.70	3.6761E-01
487.05	3.6651E-01
487.40	3.6425E-01
487.75	3.5580E-01
488.09	3.5961E-01
488.44	3.6175E-01
488.79	3.6178E-01
489.13	3.5632E-01
489.48	3.5866E-01
489.83	3.5712E-01
490.17	3.4669E-01
490.52	3.4683E-01
490.87	3.4820E-01
491.22	3.4856E-01
491.56	3.4871E-01
491.91	3.5402E-01
492.26	3.4837E-01
492.60	3.4829E-01
492.95	3.5161E-01
493.30	3.5028E-01
493.64	3.4498E-01
493.99	3.4807E-01
494.34	3.4793E-01
494.68	3.4129E-01
495.03	3.5218E-01
495.37	3.4393E-01
495.72	3.5275E-01
496.07	3.4429E-01
496.41	3.4330E-01
496.76	3.4319E-01
497.11	3.4799E-01
497.45	3.4546E-01
497.80	3.4666E-01
498.14	3.4421E-01
498.49	3.4359E-01
498.84	3.4539E-01
499.18	3.4005E-01
499.53	3.4323E-01
499.87	3.4460E-01
500.22	3.4718E-01
500.56	3.4652E-01
500.91	3.4459E-01
501.26	3.4477E-01
501.60	3.4189E-01
501.95	3.4313E-01
502.29	3.4274E-01
502.64	3.3953E-01
502.98	3.4565E-01
503.33	3.3917E-01
503.67	3.4219E-01
504.02	3.4127E-01
504.36	3.3899E-01
504.71	3.4404E-01
505.06	3.4283E-01
505.40	3.3829E-01
505.75	3.3912E-01
506.09	3.4110E-01
506.44	3.3841E-01
506.78	3.3781E-01
507.13	3.3859E-01
507.47	3.3641E-01
507.82	3.3520E-01
508.16	3.3727E-01
508.51	3.3448E-01
508.85	3.3192E-01
509.19	3.3130E-01
509.54	3.3565E-01
509.88	3.3813E-01
510.23	3.3235E-01
510.57	3.3291E-01
510.92	3.3314E-01
511.26	3.3030E-01
511.61	3.3175E-01
511.95	3.2978E-01
512.30	3.2784E-01
512.64	3.2862E-01
512.98	3.2866E-01
513.33	3.2746E-01
513.67	3.3136E-01
514.02	3.2943E-01
514.36	3.2605E-01
514.70	3.2951E-01
515.05	3.2297E-01
515.39	3.2566E-01
515.74	3.2391E-01
516.08	3.2636E-01
516.42	3.2268E-01
516.77	3.2370E-01
517.11	3.2344E-01
517.46	3.2286E-01
517.80	3.2382E-01
518.14	3.2354E-01
518.49	3.2057E-01
518.83	3.2382E-01
519.17	3.2665E-01
519.52	3.2193E-01
519.86	3.2103E-01
520.20	3.1974E-01
520.55	3.1904E-01
520.89	3.1922E-01
521.23	3.2004E-01
521.58	3.2300E-01
521.92	3.2190E-01
522.26	3.2543E-01
522.61	3.1917E-01
522.95	3.2179E-01
523.29	3.1916E-01
523.64	3.2193E-01
523.98	3.2209E-01
524.32	3.2169E-01
524.66	3.2108E-01
525.01	3.2224E-01
525.35	3.2333E-01
525.69	3.2543E-01
526.04	3.2580E-01
526.38	3.2105E-01
526.72	3.2685E-01
527.06	3.2558E-01
527.41	3.2796E-01
527.75	3.2744E-01
528.09	3.2547E-01
528.43	3.2903E-01
528.78	3.2693E-01
529.12	3.3216E-01
529.46	3.3169E-01
529.80	3.3298E-01
530.15	3.3362E-01
530.49	3.3559E-01
530.83	3.3520E-01
531.17	3.3506E-01
531.51	3.3787E-01
531.86	3.3732E-01
532.20	3.4296E-01
532.54	3.3820E-01
532.88	3.4156E-01
533.22	3.4408E-01
533.57	3.4570E-01
533.91	3.4390E-01
534.25	3.4594E-01
534.59	3.4680E-01
534.93	3.4350E-01
535.27	3.4731E-01
535.62	3.5128E-01
535.96	3.5141E-01
536.30	3.4996E-01
536.64	3.5470E-01
536.98	3.5596E-01
537.32	3.5449E-01
537.66	3.5380E-01
538.01	3.6082E-01
538.35	3.6056E-01
538.69	3.5685E-01
539.03	3.6355E-01
539.37	3.5960E-01
539.71	3.6488E-01
540.05	3.6104E-01
540.39	3.6421E-01
540.73	3.6669E-01
541.07	3.6612E-01
541.42	3.6703E-01
541.76	3.6747E-01
542.10	3.6867E-01
542.44	3.7132E-01
542.78	3.7138E-01
543.12	3.6787E-01
543.46	3.7623E-01
543.80	3.7140E-01
544.14	3.7065E-01
544.48	3.6949E-01
544.82	3.7415E-01
545.16	3.7192E-01
545.50	3.7387E-01
545.84	3.7969E-01
546.18	3.7294E-01
546.52	3.7825E-01
546.86	3.7806E-01
547.20	3.7968E-01
547.54	3.8507E-01
547.88	3.7931E-01
548.22	3.7922E-01
548.56	3.8206E-01
548.90	3.7911E-01
549.24	3.8152E-01
549.58	3.8448E-01
549.92	3.8236E-01
550.26	3.8668E-01
550.60	3.8467E-01
550.94	3.7930E-01
551.28	3.8733E-01
551.62	3.8227E-01
551.96	3.8661E-01
552.30	3.9004E-01
552.64	3.8889E-01
552.98	3.8662E-01
553.32	3.8583E-01
553.66	3.8553E-01
554.00	3.8490E-01
554.34	3.8812E-01
554.68	3.8996E-01
555.02	3.8697E-01
555.36	3.9110E-01
555.69	3.9010E-01
556.03	3.8818E-01
556.37	3.8806E-01
556.71	3.8764E-01
557.05	3.8863E-01
557.39	3.8933E-01
557.73	3.9003E-01
558.07	3.8995E-01
558.41	3.8616E-01
558.75	3.9054E-01
559.08	3.8886E-01
559.42	3.8416E-01
559.76	3.9183E-01
560.10	3.9105E-01
560.44	3.9276E-01
560.78	3.8828E-01
561.12	3.8811E-01
561.45	3.8961E-01
561.79	3.9148E-01
562.13	3.9103E-01
562.47	3.9109E-01
562.81	3.9341E-01
563.15	3.9328E-01
563.48	3.9131E-01
563.82	3.8490E-01
564.16	3.9237E-01
564.50	3.9056E-01
564.84	3.9377E-01
565.17	3.9218E-01
565.51	3.8806E-01
565.85	3.9251E-01
566.19	3.9022E-01
566.52	3.9480E-01
566.86	3.9010E-01
567.20	3.9320E-01
567.54	3.9520E-01
567.88	3.9377E-01
568.21	3.9738E-01
568.55	3.9499E-01
568.89	3.9305E-01
569.23	3.9331E-01
569.56	3.9365E-01
569.90	3.9677E-01
570.24	3.9866E-01
570.57	3.9913E-01
570.91	3.9767E-01
571.25	3.9620E-01
571.59	3.9552E-01
571.92	3.9651E-01
572.26	3.9857E-01
572.60	4.0048E-01
572.93	4.0108E-01
573.27	4.0306E-01
573.61	4.0410E-01
573.95	3.9936E-01
574.28	4.0459E-01
574.62	4.0396E-01
574.96	4.1016E-01
575.29	4.0762E-01
575.63	4.1258E-01
575.97	4.0961E-01
576.30	4.1682E-01
576.64	4.1199E-01
576.98	4.1541E-01
577.31	4.1348E-01
577.65	4.1796E-01
577.98	4.1678E-01
578.32	4.2104E-01
578.66	4.2380E-01
578.99	4.2128E-01
579.33	4.2751E-01
579.67	4.2405E-01
580.00	4.2887E-01
580.34	4.2482E-01
580.67	4.3016E-01
581.01	4.3104E-01
581.35	4.3257E-01
581.68	4.3459E-01
582.02	4.3565E-01
582.35	4.3688E-01
582.69	4.3490E-01
583.02	4.4349E-01
583.36	4.4164E-01
583.70	4.3923E-01
584.03	4.4313E-01
584.37	4.4168E-01
584.70	4.4981E-01
585.04	4.4717E-01
585.37	4.4533E-01
585.71	4.5351E-01
586.04	4.4889E-01
586.38	4.5227E-01
586.72	4.5698E-01
587.05	4.5526E-01
587.39	4.5911E-01
587.72	4.5503E-01
588.06	4.6304E-01
588.39	4.5940E-01
588.73	4.6267E-01
589.06	4.6271E-01
589.40	4.6716E-01
589.73	4.6768E-01
590.07	4.7110E-01
590.40	4.7141E-01
590.73	4.7736E-01
591.07	4.7007E-01
591.40	4.7803E-01
591.74	4.7567E-01
592.07	4.8043E-01
592.41	4.7992E-01
592.74	4.8052E-01
593.08	4.7685E-01
593.41	4.7894E-01
593.75	4.8173E-01
594.08	4.8328E-01
594.41	4.8353E-01
594.75	4.8751E-01
595.08	4.8474E-01
595.42	4.8079E-01
595.75	4.8414E-01
596.09	4.8818E-01
596.42	4.8765E-01
596.75	4.8875E-01
597.09	4.9385E-01
597.42	4.8729E-01
597.75	4.9206E-01
598.09	4.9174E-01
598.42	4.9525E-01
598.76	4.9564E-01
599.09	4.9606E-01
599.42	5.0125E-01
599.76	4.9717E-01
600.09	4.9973E-01
600.42	5.0055E-01
600.76	4.9106E-01
601.09	4.9755E-01
601.42	5.0594E-01
601.76	4.9787E-01
602.09	4.9964E-01
602.42	5.0246E-01
602.76	5.0237E-01
603.09	5.0068E-01
603.42	5.0314E-01
603.76	4.9856E-01
604.09	5.0001E-01
604.42	5.0380E-01
604.76	5.0027E-01
605.09	5.0725E-01
605.42	5.0445E-01
605.75	5.0623E-01
606.09	5.0857E-01
606.42	5.0560E-01
606.75	5.0743E-01
607.09	5.1086E-01
607.42	5.0610E-01
607.75	5.1041E-01
608.08	5.1241E-01
608.42	5.1244E-01
608.75	5.0914E-01
609.08	5.1371E-01
609.41	5.1436E-01
609.75	5.1464E-01
610.08	5.0888E-01
610.41	5.1390E-01
610.74	5.1511E-01
611.07	5.1633E-01
611.41	5.0998E-01
611.74	5.1594E-01
612.07	5.1447E-01
612.40	5.1178E-01
612.73	5.1365E-01
613.07	5.1869E-01
613.40	5.1382E-01
613.73	5.1176E-01
614.06	5.1592E-01
614.39	5.1680E-01
614.72	5.1958E-01
615.06	5.1845E-01
615.39	5.2700E-01
615.72	5.1768E-01
616.05	5.2839E-01
616.38	5.2494E-01
616.71	5.2733E-01
617.05	5.1791E-01
617.38	5.2270E-01
617.71	5.1887E-01
618.04	5.2714E-01
618.37	5.1805E-01
618.70	5.2120E-01
619.03	5.2305E-01
619.36	5.1596E-01
619.69	5.2435E-01
620.03	5.1999E-01
620.36	5.1978E-01
620.69	5.1945E-01
621.02	5.2349E-01
621.35	5.1743E-01
621.68	5.1121E-01
622.01	5.1696E-01
622.34	5.1941E-01
622.67	5.1858E-01
623.00	5.2215E-01
623.33	5.1890E-01
623.66	5.1995E-01
623.99	5.2401E-01
624.32	5.1644E-01
624.65	5.1840E-01
624.99	5.1945E-01
625.32	5.2143E-01
625.65	5.2077E-01
625.98	5.1248E-01
626.31	5.1867E-01
626.64	5.2158E-01
626.97	5.1715E-01
627.30	5.1565E-01
627.63	5.2003E-01
627.96	5.1542E-01
628.29	5.1218E-01
628.62	5.1900E-01
628.95	5.2001E-01
629.28	5.1204E-01
629.61	5.2413E-01
629.94	5.2051E-01
630.26	5.2280E-01
630.59	5.2350E-01
630.92	5.1813E-01
631.25	5.2081E-01
631.58	5.2625E-01
631.91	5.2605E-01
632.24	5.3003E-01
632.57	5.2774E-01
632.90	5.2537E-01
633.23	5.2692E-01
633.56	5.3062E-01
633.89	5.3055E-01
634.22	5.3209E-01
634.55	5.3473E-01
634.88	5.3920E-01
635.20	5.3949E-01
635.53	5.4282E-01
635.86	5.4301E-01
636.19	5.4862E-01
636.52	5.4867E-01
636.85	5.4895E-01
637.18	5.5574E-01
637.51	5.5254E-01
637.83	5.5949E-01
638.16	5.5538E-01
638.49	5.6410E-01
638.82	5.6359E-01
639.15	5.6518E-01
639.48	5.6766E-01
639.81	5.7615E-01
640.13	5.7008E-01
640.46	5.7690E-01
640.79	5.7557E-01
641.12	5.8469E-01
641.45	5.8110E-01
641.77	5.8250E-01
642.10	5.9197E-01
642.43	5.9180E-01
642.76	5.9731E-01
643.09	5.9121E-01
643.41	5.9816E-01
643.74	6.0067E-01
644.07	5.9672E-01
644.40	6.0271E-01
644.73	6.1156E-01
645.05	6.1190E-01
645.38	6.1393E-01
645.71	6.1753E-01
646.04	6.1930E-01
646.36	6.1602E-01
646.69	6.2860E-01
647.02	6.2046E-01
647.35	6.2581E-01
647.67	6.3404E-01
648.00	6.2927E-01
648.33	6.3970E-01
648.66	6.3161E-01
648.98	6.4267E-01
649.31	6.3759E-01
649.64	6.3984E-01
649.96	6.4911E-01
650.29	6.5159E-01
650.62	6.5293E-01
650.94	6.5568E-01
651.27	6.5355E-01
651.60	6.5498E-01
651.92	6.6499E-01
652.25	6.6391E-01
652.58	6.6413E-01
652.90	6.6935E-01
653.23	6.6699E-01
653.56	6.7001E-01
653.88	6.7570E-01
654.21	6.7536E-01
654.54	6.7929E-01
654.86	6.8688E-01
655.19	6.7891E-01
655.52	6.9113E-01
655.84	6.8390E-01
656.17	6.8761E-01
656.49	6.9636E-01
656.82	6.8441E-01
657.15	6.9814E-01
657.47	6.9779E-01
657.80	6.9941E-01
658.13	7.0001E-01
658.45	7.0407E-01
658.78	7.0840E-01
659.10	7.1028E-01
659.43	7.1204E-01
659.75	7.0912E-01
660.08	7.0595E-01
660.41	7.1613E-01
660.73	7.1897E-01
661.06	7.2193E-01
661.38	7.1968E-01
661.71	7.2107E-01
662.03	7.1500E-01
662.36	7.2841E-01
662.68	7.2846E-01
663.01	7.2037E-01
663.33	7.3211E-01
663.66	7.3230E-01
663.98	7.3786E-01
664.31	7.3112E-01
664.63	7.4573E-01
664.96	7.3472E-01
665.28	7.4365E-01
665.61	7.4137E-01
665.93	7.4148E-01
666.26	7.4569E-01
666.58	7.4900E-01
666.91	7.4374E-01
667.23	7.5183E-01
667.56	7.4872E-01
667.88	7.5111E-01
668.21	7.5962E-01
668.53	7.5265E-01
668.86	7.5834E-01
669.18	7.5682E-01
669.50	7.6805E-01
669.83	7.6563E-01
670.15	7.6652E-01
670.48	7.7133E-01
670.80	7.6708E-01
671.13	7.6429E-01
671.45	7.7247E-01
671.77	7.7587E-01
672.10	7.6999E-01
672.42	7.8452E-01
672.75	7.7676E-01
673.07	7.8559E-01
673.39	7.8056E-01
673.72	7.8525E-01
674.04	7.9088E-01
674.37	7.8689E-01
674.69	7.8223E-01
675.01	7.9864E-01
675.34	7.9666E-01
675.66	7.9866E-01
675.98	7.8737E-01
676.31	8.0229E-01
676.63	7.9917E-01
676.95	7.9792E-01
677.28	8.0479E-01
677.60	8.0724E-01
677.92	8.1211E-01
678.25	8.1412E-01
678.57	8.1463E-01
678.89	8.1069E-01
679.22	8.2171E-01
679.54	8.1461E-01
679.86	8.2760E-01
680.18	8.1849E-01
680.51	8.1907E-01
680.83	8.3854E-01
681.15	8.2555E-01
681.48	8.3510E-01
681.80	8.2896E-01
682.12	8.3106E-01
682.44	8.3973E-01
682.77	8.4377E-01
683.09	8.4947E-01
683.41	8.4781E-01
683.73	8.5512E-01
684.06	8.5057E-01
684.38	8.5077E-01
684.70	8.5808E-01
685.02	8.6332E-01
685.34	8.6633E-01
685.67	8.6275E-01
685.99	8.7628E-01
686.31	8.6668E-01
686.63	8.8254E-01
686.96	8.8447E-01
687.28	8.8935E-01
687.60	8.7728E-01
687.92	8.8589E-01
688.24	8.9280E-01
688.56	9.0182E-01
688.89	8.9245E-01
689.21	9.0396E-01
689.53	9.0312E-01
689.85	9.1308E-01
690.17	9.0589E-01
690.49	9.2620E-01
690.82	9.1615E-01
691.14	9.1942E-01
691.46	9.1812E-01
691.78	9.2968E-01
692.10	9.2277E-01
692.42	9.3617E-01
692.74	9.3629E-01
693.06	9.4149E-01
693.39	9.5308E-01
693.71	9.6670E-01
694.03	9.6145E-01
694.35	9.6104E-01
694.67	9.6351E-01
694.99	9.7735E-01
695.31	9.7575E-01
695.63	9.8052E-01
695.95	9.8245E-01
696.27	9.8524E-01
696.59	9.8741E-01
696.91	9.9671E-01
697.23	9.9973E-01
697.56	1.0035E00
697.88	1.0018E00
698.20	1.0102E00
698.52	1.0147E00
698.84	1.0282E00
699.16	1.0354E00
699.48	1.0237E00
699.80	1.0468E00
700.12	1.0374E00
700.44	1.0415E00
700.76	1.0496E00
701.08	1.0646E00
701.40	1.0639E00
701.72	1.0667E00
702.04	1.0747E00
702.36	1.0733E00
702.68	1.0848E00
703.00	1.0939E00
703.32	1.0898E00
703.64	1.1045E00
703.96	1.1020E00
704.28	1.1110E00
704.60	1.1184E00
704.91	1.1253E00
705.23	1.1252E00
705.55	1.1371E00
705.87	1.1388E00
706.19	1.1379E00
706.51	1.1505E00
706.83	1.1448E00
707.15	1.1734E00
707.47	1.1647E00
707.79	1.1785E00
708.11	1.1735E00
708.43	1.1816E00
708.74	1.1823E00
709.06	1.1929E00
709.38	1.2057E00
709.70	1.2040E00
710.02	1.2109E00
710.34	1.2064E00
710.66	1.2306E00
710.98	1.2267E00
711.29	1.2325E00
711.61	1.2530E00
711.93	1.2635E00
712.25	1.2513E00
712.57	1.2685E00
712.89	1.2747E00
713.20	1.2674E00
713.52	1.2862E00
713.84	1.2893E00
714.16	1.2830E00
714.48	1.2947E00
714.80	1.3137E00
715.11	1.3109E00
715.43	1.3268E00
715.75	1.3306E00
716.07	1.3347E00
716.39	1.3239E00
716.70	1.3350E00
717.02	1.3333E00
717.34	1.3609E00
717.66	1.3642E00
717.97	1.3770E00
718.29	1.3851E00
718.61	1.3908E00
718.93	1.4073E00
719.24	1.4011E00
719.56	1.4270E00
719.88	1.4253E00
720.20	1.4512E00
720.51	1.4657E00
720.83	1.4438E00
721.15	1.4741E00
721.46	1.4739E00
721.78	1.4842E00
722.10	1.5100E00
722.42	1.5047E00
722.73	1.5264E00
723.05	1.5150E00
723.37	1.5330E00
723.68	1.5518E00
724.00	1.5398E00
724.32	1.5629E00
724.63	1.5536E00
724.95	1.5674E00
725.27	1.5784E00
725.58	1.5769E00
725.90	1.5715E00
726.22	1.5958E00
726.53	1.5783E00
726.85	1.6020E00
727.16	1.6085E00
727.48	1.6200E00
727.80	1.6183E00
728.11	1.6183E00
728.43	1.6246E00
728.74	1.6274E00
729.06	1.6506E00
729.38	1.6504E00
729.69	1.6409E00
730.01	1.6580E00
730.32	1.6574E00
730.64	1.6552E00
730.96	1.6650E00
731.27	1.6932E00
731.59	1.6686E00
731.90	1.6902E00
732.22	1.6911E00
732.53	1.6927E00
732.85	1.7121E00
733.16	1.7190E00
733.48	1.7232E00
733.80	1.6997E00
734.11	1.7327E00
734.43	1.7268E00
734.74	1.7313E00
735.06	1.7617E00
735.37	1.7430E00
735.69	1.7647E00
736.00	1.7728E00
736.32	1.7752E00
736.63	1.7820E00
736.95	1.7835E00
737.26	1.8019E00
737.58	1.7925E00
737.89	1.8148E00
738.21	1.8171E00
738.52	1.8115E00
738.83	1.8309E00
739.15	1.8215E00
739.46	1.8413E00
739.78	1.8531E00
740.09	1.8544E00
740.41	1.8534E00
740.72	1.8510E00
741.04	1.8530E00
741.35	1.8550E00
741.66	1.8451E00
741.98	1.8729E00
742.29	1.8659E00
742.61	1.8747E00
742.92	1.8658E00
743.23	1.8754E00
743.55	1.8978E00
743.86	1.8931E00
744.18	1.8757E00
744.49	1.8889E00
744.80	1.8842E00
745.12	1.8847E00
745.43	1.8864E00
745.74	1.8784E00
746.06	1.8890E00
746.37	1.8703E00
746.68	1.8784E00
747.00	1.8860E00
747.31	1.8943E00
747.62	1.8681E00
747.94	1.8974E00
748.25	1.8869E00
748.56	1.8849E00
748.88	1.8837E00
749.19	1.8947E00
749.50	1.8929E00
749.82	1.8826E00
750.13	1.8905E00
750.44	1.8835E00
750.75	1.8698E00
751.07	1.8869E00
751.38	1.8936E00
751.69	1.8928E00
752.01	1.8902E00
752.32	1.9021E00
752.63	1.8863E00
752.94	1.8979E00
753.26	1.9195E00
753.57	1.9027E00
753.88	1.9290E00
754.19	1.9150E00
754.51	1.9137E00
754.82	1.9148E00
755.13	1.9472E00
755.44	1.9298E00
755.75	1.9275E00
756.07	1.9355E00
756.38	1.9548E00
756.69	1.9485E00
757.00	1.9576E00
757.31	1.9822E00
757.63	2.0061E00
757.94	1.9993E00
758.25	1.9979E00
758.56	1.9762E00
758.87	2.0133E00
759.18	2.0347E00
759.50	2.0297E00
759.81	2.0499E00
760.12	2.0438E00
760.43	2.0567E00
760.74	2.0747E00
761.05	2.0733E00
761.36	2.0985E00
761.67	2.1263E00
761.99	2.1311E00
762.30	2.1131E00
762.61	2.1452E00
762.92	2.1638E00
763.23	2.1715E00
763.54	2.1787E00
763.85	2.2160E00
764.16	2.2189E00
764.47	2.2250E00
764.78	2.2475E00
765.10	2.2584E00
765.41	2.2717E00
765.72	2.2800E00
766.03	2.3362E00
766.34	2.3378E00
766.65	2.3547E00
766.96	2.3821E00
767.27	2.3929E00
767.58	2.3714E00
767.89	2.4105E00
768.20	2.4471E00
768.51	2.4619E00
768.82	2.4660E00
769.13	2.4858E00
769.44	2.5395E00
769.75	2.5358E00
770.06	2.5736E00
770.37	2.5398E00
770.68	2.5931E00
770.99	2.6118E00
771.30	2.6532E00
771.61	2.6951E00
771.92	2.6642E00
772.23	2.6904E00
772.54	2.7301E00
772.85	2.7318E00
773.16	2.7937E00
773.47	2.8177E00
773.78	2.7955E00
774.09	2.8717E00
774.39	2.8651E00
774.70	2.9007E00
775.01	2.9195E00
775.32	2.9179E00
775.63	2.9670E00
775.94	2.9997E00
776.25	3.0089E00
776.56	3.0480E00
776.87	3.1151E00
777.18	3.0997E00
777.48	3.1202E00
777.79	3.1601E00
778.10	3.1813E00
778.41	3.2066E00
778.72	3.2384E00
779.03	3.2478E00
779.34	3.3344E00
779.65	3.3097E00
779.95	3.3494E00
780.26	3.3879E00
780.57	3.4118E00
780.88	3.3998E00
781.19	3.4748E00
781.50	3.4787E00
781.80	3.5092E00
782.11	3.5502E00
782.42	3.6210E00
782.73	3.5468E00
783.04	3.5942E00
783.34	3.6841E00
783.65	3.7130E00
783.96	3.7353E00
784.27	3.7310E00
784.57	3.7390E00
784.88	3.8402E00
785.19	3.8453E00
785.50	3.8445E00
785.81	3.8922E00
786.11	3.8671E00
786.42	4.0045E00
786.73	4.0142E00
787.04	3.9788E00
787.34	4.0440E00
787.65	4.0338E00
787.96	4.1406E00
788.26	4.1750E00
788.57	4.2234E00
788.88	4.1393E00
789.19	4.3082E00
789.49	4.3092E00
789.80	4.3357E00
790.11	4.3779E00
790.41	4.3551E00
790.72	4.4827E00
791.03	4.4681E00
791.33	4.5048E00
791.64	4.5140E00
791.95	4.5733E00
792.25	4.6608E00
792.56	4.6941E00
792.87	4.6565E00
793.17	4.7221E00
793.48	4.7038E00
793.79	4.7863E00
794.09	4.9614E00
794.40	4.7577E00
794.70	4.7962E00
795.01	4.8976E00
795.32	4.8887E00
795.62	4.9976E00
795.93	5.0200E00
796.23	5.0576E00
796.54	5.0702E00
796.85	5.0238E00
797.15	5.1670E00
797.46	5.1869E00
797.76	5.2936E00
798.07	5.2498E00
798.37	5.3663E00
798.68	5.3931E00
798.99	5.4568E00
799.29	5.4865E00
799.60	5.5202E00
799.90	5.5403E00
800.21	5.6459E00
800.51	5.6955E00
800.82	5.6655E00
801.12	5.7830E00
801.43	5.6894E00
801.73	5.8019E00
802.04	5.8602E00
802.34	5.8783E00
802.65	5.9885E00
802.95	6.0338E00
803.26	6.1167E00
803.56	6.0054E00
803.87	6.1015E00
804.17	6.1716E00
804.48	6.1428E00
804.78	6.1803E00
805.09	6.3225E00
805.39	6.2507E00
805.70	6.3177E00
806.00	6.4330E00
806.30	6.3329E00
806.61	6.4534E00
806.91	6.4740E00
807.22	6.5409E00
807.52	6.6288E00
807.83	6.5576E00
808.13	6.7146E00
808.43	6.6511E00
808.74	6.8740E00
809.04	6.8196E00
809.35	6.8475E00
809.65	6.9993E00
809.95	6.9309E00
810.26	7.1018E00
810.56	6.9396E00
810.86	7.2648E00
811.17	7.2237E00
811.47	7.3871E00
811.77	7.3608E00
812.08	7.4192E00
812.38	7.4295E00
812.69	7.3658E00
812.99	7.4367E00
813.29	7.4141E00
813.59	7.5885E00
813.90	7.7117E00
814.20	7.7614E00
814.50	7.8232E00
814.81	7.7804E00
815.11	7.8967E00
815.41	7.9934E00
815.72	7.9838E00
816.02	8.1301E00
816.32	8.0229E00
816.62	7.9818E00
816.93	8.0818E00
817.23	8.3258E00
817.53	8.3242E00
817.84	8.5209E00
818.14	8.4975E00
818.44	8.3014E00
818.74	8.6130E00
819.04	8.7504E00
819.35	8.7571E00
819.65	8.6601E00
819.95	8.8162E00
820.25	8.9629E00
820.56	9.0109E00
820.86	9.0108E00
821.16	9.0684E00
821.46	9.0412E00
821.76	9.0220E00
822.07	9.1580E00
822.37	9.4087E00
822.67	9.4221E00
822.97	9.6384E00
823.27	9.5331E00
823.57	9.5243E00
823.88	9.4924E00
824.18	9.7085E00
824.48	9.5011E00
824.78	9.7552E00
825.08	9.7548E00
825.38	9.9872E00
825.69	9.9023E00
825.99	9.8891E00
826.29	1.0096E01
826.59	1.0309E01
826.89	1.0312E01
827.19	1.0229E01
827.49	1.0460E01
827.79	1.0497E01
828.09	1.0523E01
828.39	1.0716E01
828.70	1.0576E01
829.00	1.0841E01
829.30	1.0953E01
829.60	1.0766E01
829.90	1.0969E01
830.20	1.0686E01
830.50	1.0209E01
830.80	9.7764E00
831.10	9.5415E00
831.40	9.4374E00
831.70	9.3918E00
832.00	9.3373E00
832.30	9.2260E00
832.60	9.1150E00
832.90	9.0684E00
833.20	8.9134E00
833.50	8.9254E00
833.80	8.9422E00
834.10	8.8412E00
834.40	9.1807E00
834.70	9.0684E00
835.00	9.2104E00
835.30	9.2421E00
835.60	9.0821E00
835.90	9.0564E00
836.20	9.2799E00
836.50	9.1064E00
836.80	9.3841E00
837.10	9.9256E00
837.40	9.3754E00
837.70	9.4437E00
838.00	9.4010E00
838.30	9.4163E00
838.60	9.5197E00
838.90	9.3473E00
839.19	9.6378E00
839.49	9.5378E00
839.79	9.5173E00
840.09	9.3020E00
840.39	9.7146E00
840.69	9.5975E00
840.99	9.6319E00
841.29	9.7813E00
841.59	9.4343E00
841.88	9.4744E00
842.18	9.8143E00
842.48	9.5514E00
842.78	9.4742E00
843.08	9.6182E00
843.38	9.7462E00
843.68	9.7808E00
843.97	9.9233E00
844.27	9.5179E00
844.57	9.3930E00
844.87	9.5482E00
845.17	9.5489E00
845.47	9.7667E00
845.76	9.8029E00
846.06	9.8298E00
846.36	1.0383E01
846.66	9.6880E00
846.96	9.7296E00
847.25	9.6815E00
847.55	9.6140E00
847.85	9.6428E00
848.15	9.6828E00
848.44	9.6074E00
848.74	9.8429E00
849.04	9.6295E00
849.34	9.9528E00
849.63	9.5232E00
849.93	9.3695E00
850.23	9.1124E00
850.53	9.4537E00
850.82	9.3496E00
851.12	9.2793E00
851.42	9.2599E00
851.71	9.4041E00
852.01	9.2600E00
852.31	9.2664E00
852.61	9.2265E00
852.90	9.2842E00
853.20	9.5755E00
853.50	9.9965E00
853.79	9.3734E00
854.09	9.0281E00
854.39	9.1220E00
854.68	8.7816E00
854.98	8.4542E00
855.28	8.8457E00
855.57	8.9213E00
855.87	8.7827E00
856.17	8.9324E00
856.46	8.8358E00
856.76	8.7433E00
857.05	8.9500E00
857.35	9.0547E00
857.65	9.6260E00
857.94	9.5964E00
858.24	9.6803E00
858.53	9.3629E00
858.83	1.0000E01
859.13	9.4322E00
859.42	9.4738E00
859.72	9.6954E00
860.01	9.3259E00
860.31	9.4724E00
860.60	9.7073E00
860.90	9.5208E00
861.20	9.6359E00
861.49	9.7525E00
861.79	9.6087E00
862.08	1.1045E01
862.38	9.9669E00
862.67	9.4775E00
862.97	9.5931E00
863.26	9.3608E00
863.56	9.7349E00
863.85	1.0374E01
864.15	9.4966E00
864.44	9.6791E00
864.74	9.7311E00
865.03	1.0015E01
865.33	9.8139E00
865.62	9.7781E00
865.92	9.4836E00
866.21	9.5828E00
866.51	9.2332E00
866.80	9.8618E00
867.10	9.8229E00
867.39	9.2589E00
867.69	9.4014E00
867.98	8.8743E00
868.27	8.9028E00
868.57	9.0592E00
868.86	9.2304E00
869.16	8.9785E00
869.45	9.1583E00
869.75	9.1160E00
870.04	9.6173E00
870.33	9.4519E00
870.63	9.4470E00
870.92	9.3223E00
871.22	1.1409E01
871.51	9.6816E00
871.80	9.4773E00
872.10	9.4773E00
>>>>>End Processed Spectral Data<<<<<
