SpectraSuite Data File
++++++++++++++++++++++++++++++++++++
Date: Thu May 14 11:22:07 PDT 2015
User: schluterlab
Dark Spectrum Present: Yes
Reference Spectrum Present: No
Number of Sampled Component Spectra: 1
Spectrometers: USB2E3373
Integration Time (usec): 2300000 (USB2E3373)
Spectra Averaged: 3 (USB2E3373)
Boxcar Smoothing: 0 (USB2E3373)
Correct for Electrical Dark: No (USB2E3373)
Strobe/Lamp Enabled: No (USB2E3373)
Correct for Detector Non-linearity: No (USB2E3373)
Correct for Stray Light: No (USB2E3373)
Number of Pixels in Processed Spectrum: 2048
>>>>>Begin Processed Spectral Data<<<<<
178.53	0.0000E00
178.91	0.0000E00
179.29	0.0000E00
179.67	0.0000E00
180.04	0.0000E00
180.42	0.0000E00
180.80	0.0000E00
181.18	0.0000E00
181.56	0.0000E00
181.94	0.0000E00
182.31	0.0000E00
182.69	0.0000E00
183.07	0.0000E00
183.45	0.0000E00
183.83	0.0000E00
184.20	0.0000E00
184.58	0.0000E00
184.96	0.0000E00
185.34	0.0000E00
185.72	0.0000E00
186.09	0.0000E00
186.47	0.0000E00
186.85	0.0000E00
187.23	0.0000E00
187.61	0.0000E00
187.98	0.0000E00
188.36	0.0000E00
188.74	0.0000E00
189.12	0.0000E00
189.49	0.0000E00
189.87	0.0000E00
190.25	0.0000E00
190.63	0.0000E00
191.00	0.0000E00
191.38	0.0000E00
191.76	0.0000E00
192.14	0.0000E00
192.51	0.0000E00
192.89	0.0000E00
193.27	0.0000E00
193.65	0.0000E00
194.02	0.0000E00
194.40	0.0000E00
194.78	0.0000E00
195.15	0.0000E00
195.53	0.0000E00
195.91	0.0000E00
196.29	0.0000E00
196.66	0.0000E00
197.04	0.0000E00
197.42	0.0000E00
197.79	0.0000E00
198.17	0.0000E00
198.55	0.0000E00
198.92	0.0000E00
199.30	0.0000E00
199.68	0.0000E00
200.05	0.0000E00
200.43	0.0000E00
200.81	0.0000E00
201.18	0.0000E00
201.56	0.0000E00
201.94	0.0000E00
202.31	0.0000E00
202.69	0.0000E00
203.07	0.0000E00
203.44	0.0000E00
203.82	0.0000E00
204.19	0.0000E00
204.57	0.0000E00
204.95	0.0000E00
205.32	0.0000E00
205.70	0.0000E00
206.08	-0.0000E00
206.45	0.0000E00
206.83	0.0000E00
207.20	0.0000E00
207.58	0.0000E00
207.96	0.0000E00
208.33	0.0000E00
208.71	0.0000E00
209.08	0.0000E00
209.46	0.0000E00
209.84	-0.0000E00
210.21	0.0000E00
210.59	0.0000E00
210.96	0.0000E00
211.34	0.0000E00
211.71	0.0000E00
212.09	0.0000E00
212.46	0.0000E00
212.84	0.0000E00
213.22	0.0000E00
213.59	0.0000E00
213.97	0.0000E00
214.34	0.0000E00
214.72	0.0000E00
215.09	0.0000E00
215.47	0.0000E00
215.84	0.0000E00
216.22	0.0000E00
216.59	0.0000E00
216.97	0.0000E00
217.34	0.0000E00
217.72	0.0000E00
218.09	0.0000E00
218.47	0.0000E00
218.84	0.0000E00
219.22	0.0000E00
219.59	0.0000E00
219.97	0.0000E00
220.34	0.0000E00
220.72	0.0000E00
221.09	0.0000E00
221.47	0.0000E00
221.84	0.0000E00
222.22	0.0000E00
222.59	0.0000E00
222.97	0.0000E00
223.34	0.0000E00
223.72	0.0000E00
224.09	0.0000E00
224.46	0.0000E00
224.84	0.0000E00
225.21	0.0000E00
225.59	0.0000E00
225.96	0.0000E00
226.34	0.0000E00
226.71	0.0000E00
227.08	0.0000E00
227.46	0.0000E00
227.83	0.0000E00
228.21	0.0000E00
228.58	0.0000E00
228.95	0.0000E00
229.33	0.0000E00
229.70	0.0000E00
230.08	0.0000E00
230.45	0.0000E00
230.82	0.0000E00
231.20	0.0000E00
231.57	0.0000E00
231.95	0.0000E00
232.32	0.0000E00
232.69	0.0000E00
233.07	0.0000E00
233.44	0.0000E00
233.81	0.0000E00
234.19	0.0000E00
234.56	0.0000E00
234.93	0.0000E00
235.31	0.0000E00
235.68	0.0000E00
236.05	0.0000E00
236.43	0.0000E00
236.80	0.0000E00
237.17	0.0000E00
237.55	0.0000E00
237.92	0.0000E00
238.29	0.0000E00
238.67	0.0000E00
239.04	0.0000E00
239.41	0.0000E00
239.79	0.0000E00
240.16	0.0000E00
240.53	0.0000E00
240.91	0.0000E00
241.28	0.0000E00
241.65	0.0000E00
242.02	0.0000E00
242.40	0.0000E00
242.77	0.0000E00
243.14	0.0000E00
243.51	0.0000E00
243.89	0.0000E00
244.26	0.0000E00
244.63	0.0000E00
245.00	0.0000E00
245.38	0.0000E00
245.75	0.0000E00
246.12	0.0000E00
246.49	0.0000E00
246.87	0.0000E00
247.24	0.0000E00
247.61	0.0000E00
247.98	0.0000E00
248.36	0.0000E00
248.73	0.0000E00
249.10	0.0000E00
249.47	0.0000E00
249.84	0.0000E00
250.22	0.0000E00
250.59	0.0000E00
250.96	0.0000E00
251.33	0.0000E00
251.70	0.0000E00
252.08	0.0000E00
252.45	0.0000E00
252.82	0.0000E00
253.19	0.0000E00
253.56	0.0000E00
253.94	0.0000E00
254.31	0.0000E00
254.68	0.0000E00
255.05	0.0000E00
255.42	0.0000E00
255.79	0.0000E00
256.16	0.0000E00
256.54	0.0000E00
256.91	0.0000E00
257.28	0.0000E00
257.65	0.0000E00
258.02	0.0000E00
258.39	0.0000E00
258.76	0.0000E00
259.14	0.0000E00
259.51	0.0000E00
259.88	0.0000E00
260.25	0.0000E00
260.62	0.0000E00
260.99	0.0000E00
261.36	0.0000E00
261.73	0.0000E00
262.10	0.0000E00
262.47	0.0000E00
262.85	0.0000E00
263.22	0.0000E00
263.59	0.0000E00
263.96	0.0000E00
264.33	0.0000E00
264.70	0.0000E00
265.07	0.0000E00
265.44	0.0000E00
265.81	0.0000E00
266.18	0.0000E00
266.55	0.0000E00
266.92	0.0000E00
267.29	0.0000E00
267.66	-0.0000E00
268.03	0.0000E00
268.40	0.0000E00
268.77	0.0000E00
269.14	0.0000E00
269.51	0.0000E00
269.88	0.0000E00
270.25	0.0000E00
270.62	0.0000E00
270.99	0.0000E00
271.36	0.0000E00
271.73	0.0000E00
272.10	0.0000E00
272.47	0.0000E00
272.84	0.0000E00
273.21	0.0000E00
273.58	0.0000E00
273.95	0.0000E00
274.32	0.0000E00
274.69	0.0000E00
275.06	0.0000E00
275.43	0.0000E00
275.80	0.0000E00
276.17	0.0000E00
276.54	0.0000E00
276.91	0.0000E00
277.28	0.0000E00
277.65	0.0000E00
278.02	0.0000E00
278.39	0.0000E00
278.76	0.0000E00
279.13	0.0000E00
279.50	0.0000E00
279.87	0.0000E00
280.23	0.0000E00
280.60	0.0000E00
280.97	0.0000E00
281.34	0.0000E00
281.71	0.0000E00
282.08	0.0000E00
282.45	0.0000E00
282.82	0.0000E00
283.19	0.0000E00
283.56	0.0000E00
283.92	0.0000E00
284.29	0.0000E00
284.66	0.0000E00
285.03	0.0000E00
285.40	0.0000E00
285.77	0.0000E00
286.14	0.0000E00
286.51	0.0000E00
286.87	0.0000E00
287.24	0.0000E00
287.61	0.0000E00
287.98	0.0000E00
288.35	0.0000E00
288.72	0.0000E00
289.08	0.0000E00
289.45	0.0000E00
289.82	0.0000E00
290.19	0.0000E00
290.56	0.0000E00
290.93	0.0000E00
291.29	0.0000E00
291.66	0.0000E00
292.03	0.0000E00
292.40	0.0000E00
292.77	0.0000E00
293.13	0.0000E00
293.50	0.0000E00
293.87	0.0000E00
294.24	0.0000E00
294.60	0.0000E00
294.97	0.0000E00
295.34	0.0000E00
295.71	0.0000E00
296.08	0.0000E00
296.44	0.0000E00
296.81	0.0000E00
297.18	0.0000E00
297.55	0.0000E00
297.91	0.0000E00
298.28	0.0000E00
298.65	0.0000E00
299.02	0.0000E00
299.38	0.0000E00
299.75	0.0000E00
300.12	8.5386E-02
300.48	1.1865E-01
300.85	8.4689E-02
301.22	1.6311E-01
301.59	1.0013E-01
301.95	1.0670E-01
302.32	7.9712E-02
302.69	9.5728E-02
303.05	8.7817E-02
303.42	1.4368E-01
303.79	1.3782E-01
304.15	9.4145E-02
304.52	1.0643E-01
304.89	1.2293E-01
305.25	7.2923E-02
305.62	8.9000E-02
305.99	1.0906E-01
306.35	8.5522E-02
306.72	1.0227E-01
307.09	1.7125E-01
307.45	1.4196E-01
307.82	1.4307E-01
308.19	5.2461E-01
308.55	1.1390E-01
308.92	1.0629E-01
309.29	9.3173E-02
309.65	1.8315E-01
310.02	1.5461E-01
310.38	1.0744E-01
310.75	8.6362E-02
311.12	1.3004E-01
311.48	1.0607E-01
311.85	1.6904E-01
312.22	1.2729E-01
312.58	1.8453E-01
312.95	8.6985E-02
313.31	1.0335E-01
313.68	1.3394E-01
314.05	1.2501E-01
314.41	1.4518E-01
314.78	1.2725E-01
315.14	5.7190E-01
315.51	1.3587E-01
315.87	9.9502E-02
316.24	2.3084E-01
316.61	1.4120E-01
316.97	1.4202E-01
317.34	1.6907E-01
317.70	1.1339E-01
318.07	1.3984E-01
318.43	1.4463E-01
318.80	2.0934E-01
319.16	1.4201E-01
319.53	3.6884E00
319.89	2.0215E-01
320.26	1.7134E-01
320.62	2.0502E-01
320.99	1.6704E-01
321.35	1.8028E-01
321.72	2.7494E-01
322.08	1.5500E-01
322.45	4.2029E-01
322.81	2.0086E-01
323.18	1.4381E-01
323.54	1.3495E-01
323.91	2.7733E-01
324.27	2.0813E-01
324.64	6.7709E-01
325.00	1.6756E-01
325.37	5.6746E-01
325.73	1.6118E-01
326.10	7.0229E-01
326.46	1.8072E-01
326.83	1.9246E-01
327.19	1.9027E-01
327.56	1.9978E-01
327.92	2.9074E-01
328.29	3.7400E-01
328.65	3.0350E-01
329.01	4.4826E-01
329.38	1.9462E-01
329.74	1.9796E-01
330.11	2.7962E-01
330.47	3.1594E-01
330.84	2.3035E-01
331.20	2.2159E-01
331.56	2.6092E-01
331.93	2.1181E-01
332.29	2.9013E-01
332.66	2.7752E-01
333.02	1.7684E-01
333.38	2.0293E-01
333.75	2.2613E-01
334.11	3.3546E-01
334.48	3.1358E-01
334.84	2.6136E-01
335.20	2.1580E-01
335.57	2.4829E-01
335.93	3.4515E-01
336.29	2.9849E-01
336.66	2.4102E-01
337.02	3.2156E-01
337.38	2.2835E-01
337.75	1.9959E-01
338.11	1.5563E-01
338.47	2.8132E-01
338.84	3.7899E-01
339.20	6.6386E-01
339.56	2.5434E-01
339.93	3.5461E-01
340.29	2.3217E-01
340.65	2.4979E-01
341.02	2.6046E-01
341.38	2.3953E-01
341.74	2.3211E-01
342.11	2.3832E-01
342.47	3.2456E-01
342.83	4.6848E-01
343.20	2.1659E-01
343.56	3.7986E-01
343.92	3.5951E-01
344.28	2.7897E-01
344.65	2.5954E-01
345.01	2.9156E-01
345.37	2.4014E-01
345.73	2.6645E-01
346.10	3.4766E-01
346.46	3.0522E-01
346.82	2.1450E-01
347.19	4.8470E-01
347.55	2.5563E-01
347.91	5.0892E-01
348.27	3.1872E-01
348.63	2.6405E-01
349.00	2.7980E-01
349.36	2.4577E-01
349.72	2.9592E-01
350.08	3.8199E-01
350.45	4.1491E-01
350.81	3.9972E-01
351.17	3.0385E-01
351.53	4.0498E-01
351.89	3.7622E-01
352.26	3.6152E-01
352.62	3.6387E-01
352.98	2.2888E-01
353.34	4.0056E-01
353.70	3.2709E-01
354.07	3.1717E-01
354.43	4.4582E-01
354.79	2.9651E-01
355.15	2.9846E-01
355.51	3.4179E-01
355.87	2.2443E-01
356.24	3.2047E-01
356.60	3.5253E-01
356.96	3.1170E-01
357.32	3.2382E-01
357.68	2.3628E-01
358.04	2.6238E-01
358.40	2.6775E-01
358.77	2.1926E-01
359.13	2.9802E-01
359.49	3.1703E-01
359.85	3.3101E-01
360.21	3.1597E-01
360.57	2.9849E-01
360.93	2.7788E-01
361.29	3.6703E-01
361.66	4.9734E-01
362.02	3.2510E-01
362.38	4.3301E-01
362.74	2.9984E-01
363.10	4.5671E-01
363.46	3.2281E-01
363.82	3.3264E-01
364.18	3.8465E-01
364.54	3.5670E-01
364.90	2.8848E-01
365.26	3.8937E-01
365.62	3.7733E-01
365.98	5.5097E-01
366.35	5.0055E-01
366.71	4.4043E-01
367.07	4.3690E-01
367.43	4.4124E-01
367.79	4.1855E-01
368.15	3.3969E-01
368.51	4.4966E-01
368.87	3.6930E-01
369.23	4.0896E-01
369.59	4.8301E-01
369.95	5.0469E-01
370.31	3.8911E-01
370.67	4.1212E-01
371.03	4.6865E-01
371.39	4.3989E-01
371.75	3.9160E-01
372.11	4.6901E-01
372.47	3.6599E-01
372.83	4.5731E-01
373.19	3.8548E-01
373.55	4.1369E-01
373.91	4.3269E-01
374.27	4.4525E-01
374.63	3.7406E-01
374.99	3.7059E-01
375.35	4.1745E-01
375.71	3.7501E-01
376.07	4.4698E-01
376.42	4.1614E-01
376.78	4.7391E-01
377.14	4.4448E-01
377.50	4.3651E-01
377.86	5.2450E-01
378.22	5.0532E-01
378.58	5.6779E-01
378.94	4.5189E-01
379.30	4.4996E-01
379.66	4.7471E-01
380.02	4.3656E-01
380.38	4.6569E-01
380.74	5.6374E-01
381.09	4.5051E-01
381.45	4.7696E-01
381.81	3.9023E-01
382.17	4.6709E-01
382.53	3.9061E-01
382.89	3.6595E-01
383.25	3.5570E-01
383.61	3.3068E-01
383.97	3.3747E-01
384.32	3.2944E-01
384.68	4.3735E-01
385.04	4.1642E-01
385.40	4.1671E-01
385.76	4.8586E-01
386.12	3.9944E-01
386.48	4.2690E-01
386.83	4.6464E-01
387.19	4.2109E-01
387.55	4.4470E-01
387.91	4.1176E-01
388.27	4.4449E-01
388.62	4.6906E-01
388.98	4.0573E-01
389.34	4.9393E-01
389.70	4.6284E-01
390.06	4.6717E-01
390.42	5.7103E-01
390.77	5.2167E-01
391.13	5.7009E-01
391.49	5.8835E-01
391.85	6.4188E-01
392.20	6.1013E-01
392.56	5.2207E-01
392.92	4.6517E-01
393.28	3.9657E-01
393.64	3.4121E-01
393.99	3.3934E-01
394.35	3.7047E-01
394.71	4.1427E-01
395.07	4.5037E-01
395.42	5.5296E-01
395.78	5.8040E-01
396.14	5.5953E-01
396.50	5.1002E-01
396.85	4.9502E-01
397.21	3.8934E-01
397.57	4.1779E-01
397.92	4.7246E-01
398.28	5.5941E-01
398.64	6.2049E-01
399.00	6.7264E-01
399.35	6.8312E-01
399.71	7.3431E-01
400.07	7.7387E-01
400.42	7.2844E-01
400.78	7.7371E-01
401.14	7.3615E-01
401.49	8.0933E-01
401.85	7.7244E-01
402.21	9.2711E-01
402.57	8.8101E-01
402.92	8.4675E-01
403.28	7.9493E-01
403.63	7.7800E-01
403.99	7.6732E-01
404.35	8.0517E-01
404.70	8.3900E-01
405.06	7.7361E-01
405.42	8.0574E-01
405.77	7.9189E-01
406.13	7.7880E-01
406.49	7.3040E-01
406.84	7.9684E-01
407.20	7.7320E-01
407.55	8.2393E-01
407.91	7.9972E-01
408.27	7.8013E-01
408.62	8.0219E-01
408.98	8.1476E-01
409.34	8.7476E-01
409.69	8.3094E-01
410.05	7.9997E-01
410.40	7.9026E-01
410.76	7.8753E-01
411.11	7.4097E-01
411.47	8.1094E-01
411.83	8.1050E-01
412.18	8.2646E-01
412.54	8.9057E-01
412.89	8.9023E-01
413.25	8.3750E-01
413.60	8.6235E-01
413.96	9.1103E-01
414.31	8.8317E-01
414.67	9.3266E-01
415.03	9.0248E-01
415.38	8.7059E-01
415.74	9.1288E-01
416.09	8.5170E-01
416.45	8.9742E-01
416.80	8.7591E-01
417.16	9.2800E-01
417.51	8.6627E-01
417.87	8.6097E-01
418.22	8.5503E-01
418.58	9.0454E-01
418.93	8.3538E-01
419.29	9.1494E-01
419.64	8.8246E-01
420.00	8.4355E-01
420.35	8.1923E-01
420.71	8.6969E-01
421.06	8.5839E-01
421.42	8.6665E-01
421.77	8.6852E-01
422.12	8.6643E-01
422.48	8.3830E-01
422.83	8.8484E-01
423.19	8.4778E-01
423.54	8.4714E-01
423.90	8.4826E-01
424.25	8.0712E-01
424.61	8.4957E-01
424.96	8.3344E-01
425.31	8.0215E-01
425.67	8.0326E-01
426.02	8.1550E-01
426.38	8.0931E-01
426.73	7.9275E-01
427.09	8.1188E-01
427.44	7.4920E-01
427.79	8.0527E-01
428.15	7.8792E-01
428.50	8.0191E-01
428.85	8.2860E-01
429.21	7.6626E-01
429.56	7.4031E-01
429.92	7.6137E-01
430.27	7.5131E-01
430.62	7.8682E-01
430.98	8.0639E-01
431.33	7.7345E-01
431.68	7.7163E-01
432.04	7.3889E-01
432.39	7.5635E-01
432.74	8.0461E-01
433.10	7.2985E-01
433.45	7.7122E-01
433.80	7.7551E-01
434.16	7.7901E-01
434.51	7.4676E-01
434.86	7.8194E-01
435.22	7.3773E-01
435.57	8.1307E-01
435.92	7.5765E-01
436.28	7.8409E-01
436.63	7.3252E-01
436.98	7.4000E-01
437.34	7.5647E-01
437.69	7.3047E-01
438.04	7.0765E-01
438.39	7.6241E-01
438.75	7.3290E-01
439.10	7.0483E-01
439.45	7.4553E-01
439.81	7.2369E-01
440.16	7.0610E-01
440.51	7.2547E-01
440.86	7.2339E-01
441.22	7.1680E-01
441.57	7.3078E-01
441.92	7.1025E-01
442.27	7.4539E-01
442.63	7.1691E-01
442.98	7.6241E-01
443.33	7.4390E-01
443.68	7.1799E-01
444.03	6.6755E-01
444.39	6.6817E-01
444.74	7.2001E-01
445.09	7.3324E-01
445.44	7.2499E-01
445.79	6.5700E-01
446.15	7.2216E-01
446.50	7.0813E-01
446.85	6.7520E-01
447.20	6.6546E-01
447.55	6.8577E-01
447.91	6.9663E-01
448.26	6.9336E-01
448.61	7.0591E-01
448.96	6.8382E-01
449.31	6.8155E-01
449.66	7.1726E-01
450.02	6.7722E-01
450.37	7.0854E-01
450.72	6.7654E-01
451.07	7.1551E-01
451.42	7.1760E-01
451.77	6.9369E-01
452.12	6.9294E-01
452.47	7.3212E-01
452.83	6.5038E-01
453.18	6.9984E-01
453.53	6.8212E-01
453.88	6.4605E-01
454.23	6.5222E-01
454.58	6.4944E-01
454.93	6.8020E-01
455.28	6.7318E-01
455.63	6.6970E-01
455.98	6.5535E-01
456.34	6.8307E-01
456.69	6.7392E-01
457.04	6.5711E-01
457.39	6.3135E-01
457.74	6.2204E-01
458.09	6.4606E-01
458.44	6.2808E-01
458.79	6.0064E-01
459.14	6.2850E-01
459.49	6.4602E-01
459.84	6.2295E-01
460.19	6.5806E-01
460.54	6.4725E-01
460.89	5.9991E-01
461.24	6.6066E-01
461.59	6.3219E-01
461.94	6.5230E-01
462.29	5.9991E-01
462.64	6.4854E-01
462.99	6.5537E-01
463.34	6.5969E-01
463.69	6.2662E-01
464.04	5.8920E-01
464.39	5.9986E-01
464.74	6.1672E-01
465.09	6.3744E-01
465.44	5.9986E-01
465.79	6.2575E-01
466.14	6.2845E-01
466.49	6.0781E-01
466.84	6.1436E-01
467.19	6.1782E-01
467.54	6.3957E-01
467.89	6.0254E-01
468.24	5.7726E-01
468.59	5.8346E-01
468.94	5.7688E-01
469.29	5.8008E-01
469.64	5.9143E-01
469.99	5.7916E-01
470.34	5.5578E-01
470.68	5.9474E-01
471.03	5.7479E-01
471.38	5.5880E-01
471.73	5.6004E-01
472.08	5.3921E-01
472.43	5.2278E-01
472.78	5.4331E-01
473.13	5.4579E-01
473.48	5.4354E-01
473.83	5.2310E-01
474.17	5.3185E-01
474.52	5.2965E-01
474.87	5.0521E-01
475.22	5.1397E-01
475.57	4.8851E-01
475.92	4.7119E-01
476.27	5.0658E-01
476.61	4.8044E-01
476.96	4.7075E-01
477.31	4.5289E-01
477.66	4.6031E-01
478.01	4.5683E-01
478.36	4.5709E-01
478.70	4.4194E-01
479.05	4.5207E-01
479.40	4.2951E-01
479.75	4.3322E-01
480.10	4.3338E-01
480.45	4.1897E-01
480.79	4.2432E-01
481.14	4.3303E-01
481.49	4.1574E-01
481.84	4.0597E-01
482.19	4.0309E-01
482.53	4.0660E-01
482.88	3.9974E-01
483.23	3.9201E-01
483.58	3.9135E-01
483.92	3.9938E-01
484.27	3.8207E-01
484.62	3.8345E-01
484.97	3.7262E-01
485.31	3.7284E-01
485.66	3.7817E-01
486.01	3.8105E-01
486.36	3.6426E-01
486.70	3.6748E-01
487.05	3.6664E-01
487.40	3.6438E-01
487.75	3.5595E-01
488.09	3.5971E-01
488.44	3.6200E-01
488.79	3.6206E-01
489.13	3.5638E-01
489.48	3.5894E-01
489.83	3.5734E-01
490.17	3.4699E-01
490.52	3.4707E-01
490.87	3.4817E-01
491.22	3.4853E-01
491.56	3.4886E-01
491.91	3.5405E-01
492.26	3.4840E-01
492.60	3.4847E-01
492.95	3.5173E-01
493.30	3.5040E-01
493.64	3.4492E-01
493.99	3.4840E-01
494.34	3.4796E-01
494.68	3.4147E-01
495.03	3.5203E-01
495.37	3.4408E-01
495.72	3.5272E-01
496.07	3.4438E-01
496.41	3.4371E-01
496.76	3.4307E-01
497.11	3.4811E-01
497.45	3.4558E-01
497.80	3.4693E-01
498.14	3.4418E-01
498.49	3.4365E-01
498.84	3.4547E-01
499.18	3.4014E-01
499.53	3.4344E-01
499.87	3.4463E-01
500.22	3.4733E-01
500.56	3.4687E-01
500.91	3.4471E-01
501.26	3.4492E-01
501.60	3.4228E-01
501.95	3.4310E-01
502.29	3.4274E-01
502.64	3.3985E-01
502.98	3.4586E-01
503.33	3.3926E-01
503.67	3.4225E-01
504.02	3.4147E-01
504.36	3.3882E-01
504.71	3.4440E-01
505.06	3.4298E-01
505.40	3.3852E-01
505.75	3.3942E-01
506.09	3.4119E-01
506.44	3.3850E-01
506.78	3.3770E-01
507.13	3.3871E-01
507.47	3.3659E-01
507.82	3.3528E-01
508.16	3.3735E-01
508.51	3.3451E-01
508.85	3.3195E-01
509.19	3.3170E-01
509.54	3.3588E-01
509.88	3.3816E-01
510.23	3.3260E-01
510.57	3.3311E-01
510.92	3.3334E-01
511.26	3.3047E-01
511.61	3.3192E-01
511.95	3.3027E-01
512.30	3.2807E-01
512.64	3.2879E-01
512.98	3.2869E-01
513.33	3.2780E-01
513.67	3.3147E-01
514.02	3.2954E-01
514.36	3.2627E-01
514.70	3.2979E-01
515.05	3.2319E-01
515.39	3.2591E-01
515.74	3.2399E-01
516.08	3.2667E-01
516.42	3.2309E-01
516.77	3.2393E-01
517.11	3.2391E-01
517.46	3.2305E-01
517.80	3.2399E-01
518.14	3.2382E-01
518.49	3.2090E-01
518.83	3.2424E-01
519.17	3.2701E-01
519.52	3.2240E-01
519.86	3.2122E-01
520.20	3.1985E-01
520.55	3.1920E-01
520.89	3.1952E-01
521.23	3.2037E-01
521.58	3.2292E-01
521.92	3.2229E-01
522.26	3.2571E-01
522.61	3.1914E-01
522.95	3.2201E-01
523.29	3.1957E-01
523.64	3.2221E-01
523.98	3.2228E-01
524.32	3.2174E-01
524.66	3.2138E-01
525.01	3.2238E-01
525.35	3.2342E-01
525.69	3.2557E-01
526.04	3.2608E-01
526.38	3.2122E-01
526.72	3.2733E-01
527.06	3.2578E-01
527.41	3.2836E-01
527.75	3.2781E-01
528.09	3.2561E-01
528.43	3.2912E-01
528.78	3.2721E-01
529.12	3.3239E-01
529.46	3.3180E-01
529.80	3.3321E-01
530.15	3.3362E-01
530.49	3.3576E-01
530.83	3.3532E-01
531.17	3.3546E-01
531.51	3.3825E-01
531.86	3.3741E-01
532.20	3.4346E-01
532.54	3.3858E-01
532.88	3.4168E-01
533.22	3.4447E-01
533.57	3.4614E-01
533.91	3.4407E-01
534.25	3.4636E-01
534.59	3.4692E-01
534.93	3.4386E-01
535.27	3.4755E-01
535.62	3.5173E-01
535.96	3.5195E-01
536.30	3.5032E-01
536.64	3.5504E-01
536.98	3.5663E-01
537.32	3.5476E-01
537.66	3.5407E-01
538.01	3.6103E-01
538.35	3.6078E-01
538.69	3.5728E-01
539.03	3.6387E-01
539.37	3.5988E-01
539.71	3.6491E-01
540.05	3.6123E-01
540.39	3.6440E-01
540.73	3.6682E-01
541.07	3.6650E-01
541.42	3.6725E-01
541.76	3.6778E-01
542.10	3.6883E-01
542.44	3.7145E-01
542.78	3.7134E-01
543.12	3.6822E-01
543.46	3.7645E-01
543.80	3.7149E-01
544.14	3.7052E-01
544.48	3.6958E-01
544.82	3.7434E-01
545.16	3.7192E-01
545.50	3.7432E-01
545.84	3.8018E-01
546.18	3.7326E-01
546.52	3.7851E-01
546.86	3.7810E-01
547.20	3.8004E-01
547.54	3.8526E-01
547.88	3.7950E-01
548.22	3.7913E-01
548.56	3.8212E-01
548.90	3.7925E-01
549.24	3.8172E-01
549.58	3.8455E-01
549.92	3.8236E-01
550.26	3.8665E-01
550.60	3.8444E-01
550.94	3.7910E-01
551.28	3.8750E-01
551.62	3.8247E-01
551.96	3.8668E-01
552.30	3.9027E-01
552.64	3.8916E-01
552.98	3.8692E-01
553.32	3.8586E-01
553.66	3.8556E-01
554.00	3.8510E-01
554.34	3.8835E-01
554.68	3.9013E-01
555.02	3.8714E-01
555.36	3.9140E-01
555.69	3.9034E-01
556.03	3.8822E-01
556.37	3.8813E-01
556.71	3.8797E-01
557.05	3.8876E-01
557.39	3.8950E-01
557.73	3.9016E-01
558.07	3.8975E-01
558.41	3.8636E-01
558.75	3.9064E-01
559.08	3.8903E-01
559.42	3.8439E-01
559.76	3.9193E-01
560.10	3.9125E-01
560.44	3.9276E-01
560.78	3.8825E-01
561.12	3.8825E-01
561.45	3.8985E-01
561.79	3.9158E-01
562.13	3.9140E-01
562.47	3.9102E-01
562.81	3.9331E-01
563.15	3.9338E-01
563.48	3.9152E-01
563.82	3.8494E-01
564.16	3.9267E-01
564.50	3.9039E-01
564.84	3.9360E-01
565.17	3.9225E-01
565.51	3.8836E-01
565.85	3.9278E-01
566.19	3.9025E-01
566.52	3.9497E-01
566.86	3.9030E-01
567.20	3.9350E-01
567.54	3.9533E-01
567.88	3.9360E-01
568.21	3.9741E-01
568.55	3.9529E-01
568.89	3.9325E-01
569.23	3.9364E-01
569.56	3.9354E-01
569.90	3.9663E-01
570.24	3.9876E-01
570.57	3.9924E-01
570.91	3.9750E-01
571.25	3.9634E-01
571.59	3.9552E-01
571.92	3.9654E-01
572.26	3.9887E-01
572.60	4.0086E-01
572.93	4.0095E-01
573.27	4.0313E-01
573.61	4.0406E-01
573.95	3.9946E-01
574.28	4.0469E-01
574.62	4.0434E-01
574.96	4.1058E-01
575.29	4.0780E-01
575.63	4.1279E-01
575.97	4.0986E-01
576.30	4.1682E-01
576.64	4.1203E-01
576.98	4.1548E-01
577.31	4.1348E-01
577.65	4.1803E-01
577.98	4.1671E-01
578.32	4.2104E-01
578.66	4.2362E-01
578.99	4.2099E-01
579.33	4.2744E-01
579.67	4.2427E-01
580.00	4.2909E-01
580.34	4.2534E-01
580.67	4.3034E-01
581.01	4.3119E-01
581.35	4.3268E-01
581.68	4.3486E-01
582.02	4.3554E-01
582.35	4.3703E-01
582.69	4.3516E-01
583.02	4.4338E-01
583.36	4.4187E-01
583.70	4.3942E-01
584.03	4.4332E-01
584.37	4.4172E-01
584.70	4.4984E-01
585.04	4.4717E-01
585.37	4.4526E-01
585.71	4.5358E-01
586.04	4.4893E-01
586.38	4.5289E-01
586.72	4.5698E-01
587.05	4.5518E-01
587.39	4.5931E-01
587.72	4.5526E-01
588.06	4.6288E-01
588.39	4.5979E-01
588.73	4.6243E-01
589.06	4.6247E-01
589.40	4.6732E-01
589.73	4.6772E-01
590.07	4.7122E-01
590.40	4.7157E-01
590.73	4.7740E-01
591.07	4.7039E-01
591.40	4.7819E-01
591.74	4.7538E-01
592.07	4.8068E-01
592.41	4.7984E-01
592.74	4.8056E-01
593.08	4.7681E-01
593.41	4.7902E-01
593.75	4.8156E-01
594.08	4.8308E-01
594.41	4.8340E-01
594.75	4.8722E-01
595.08	4.8474E-01
595.42	4.8070E-01
595.75	4.8376E-01
596.09	4.8814E-01
596.42	4.8749E-01
596.75	4.8862E-01
597.09	4.9372E-01
597.42	4.8687E-01
597.75	4.9223E-01
598.09	4.9132E-01
598.42	4.9572E-01
598.76	4.9555E-01
599.09	4.9627E-01
599.42	5.0138E-01
599.76	4.9717E-01
600.09	4.9951E-01
600.42	5.0064E-01
600.76	4.9034E-01
601.09	4.9738E-01
601.42	5.0608E-01
601.76	4.9813E-01
602.09	4.9960E-01
602.42	5.0255E-01
602.76	5.0242E-01
603.09	5.0093E-01
603.42	5.0318E-01
603.76	4.9860E-01
604.09	4.9975E-01
604.42	5.0398E-01
604.76	4.9997E-01
605.09	5.0734E-01
605.42	5.0454E-01
605.75	5.0610E-01
606.09	5.0857E-01
606.42	5.0551E-01
606.75	5.0752E-01
607.09	5.1090E-01
607.42	5.0567E-01
607.75	5.1032E-01
608.08	5.1219E-01
608.42	5.1239E-01
608.75	5.0905E-01
609.08	5.1371E-01
609.41	5.1392E-01
609.75	5.1508E-01
610.08	5.0844E-01
610.41	5.1398E-01
610.74	5.1511E-01
611.07	5.1611E-01
611.41	5.0998E-01
611.74	5.1585E-01
612.07	5.1456E-01
612.40	5.1174E-01
612.73	5.1369E-01
613.07	5.1856E-01
613.40	5.1417E-01
613.73	5.1141E-01
614.06	5.1583E-01
614.39	5.1684E-01
614.72	5.1962E-01
615.06	5.1867E-01
615.39	5.2645E-01
615.72	5.1772E-01
616.05	5.2830E-01
616.38	5.2440E-01
616.71	5.2733E-01
617.05	5.1778E-01
617.38	5.2248E-01
617.71	5.1856E-01
618.04	5.2728E-01
618.37	5.1773E-01
618.70	5.2138E-01
619.03	5.2305E-01
619.36	5.1618E-01
619.69	5.2453E-01
620.03	5.1972E-01
620.36	5.1955E-01
620.69	5.1940E-01
621.02	5.2313E-01
621.35	5.1747E-01
621.68	5.1147E-01
622.01	5.1709E-01
622.34	5.1941E-01
622.67	5.1827E-01
623.00	5.2224E-01
623.33	5.1895E-01
623.66	5.1977E-01
623.99	5.2379E-01
624.32	5.1657E-01
624.65	5.1826E-01
624.99	5.1887E-01
625.32	5.2170E-01
625.65	5.2068E-01
625.98	5.1217E-01
626.31	5.1872E-01
626.64	5.2167E-01
626.97	5.1724E-01
627.30	5.1539E-01
627.63	5.1941E-01
627.96	5.1529E-01
628.29	5.1196E-01
628.62	5.1904E-01
628.95	5.1992E-01
629.28	5.1186E-01
629.61	5.2408E-01
629.94	5.2042E-01
630.26	5.2302E-01
630.59	5.2292E-01
630.92	5.1813E-01
631.25	5.2036E-01
631.58	5.2648E-01
631.91	5.2596E-01
632.24	5.2966E-01
632.57	5.2788E-01
632.90	5.2555E-01
633.23	5.2660E-01
633.56	5.3040E-01
633.89	5.3046E-01
634.22	5.3168E-01
634.55	5.3436E-01
634.88	5.3901E-01
635.20	5.3930E-01
635.53	5.4291E-01
635.86	5.4278E-01
636.19	5.4891E-01
636.52	5.4848E-01
636.85	5.4886E-01
637.18	5.5521E-01
637.51	5.5235E-01
637.83	5.5935E-01
638.16	5.5491E-01
638.49	5.6376E-01
638.82	5.6349E-01
639.15	5.6489E-01
639.48	5.6761E-01
639.81	5.7580E-01
640.13	5.6964E-01
640.46	5.7665E-01
640.79	5.7562E-01
641.12	5.8438E-01
641.45	5.8065E-01
641.77	5.8255E-01
642.10	5.9182E-01
642.43	5.9195E-01
642.76	5.9680E-01
643.09	5.9121E-01
643.41	5.9796E-01
643.74	6.0025E-01
644.07	5.9672E-01
644.40	6.0251E-01
644.73	6.1114E-01
645.05	6.1211E-01
645.38	6.1357E-01
645.71	6.1679E-01
646.04	6.1882E-01
646.36	6.1565E-01
646.69	6.2881E-01
647.02	6.2067E-01
647.35	6.2500E-01
647.67	6.3360E-01
648.00	6.2900E-01
648.33	6.3970E-01
648.66	6.3102E-01
648.98	6.4262E-01
649.31	6.3737E-01
649.64	6.3968E-01
649.96	6.4877E-01
650.29	6.5142E-01
650.62	6.5237E-01
650.94	6.5540E-01
651.27	6.5343E-01
651.60	6.5520E-01
651.92	6.6510E-01
652.25	6.6351E-01
652.58	6.6408E-01
652.90	6.6918E-01
653.23	6.6659E-01
653.56	6.6932E-01
653.88	6.7541E-01
654.21	6.7467E-01
654.54	6.7918E-01
654.86	6.8611E-01
655.19	6.7879E-01
655.52	6.9107E-01
655.84	6.8348E-01
656.17	6.8719E-01
656.49	6.9600E-01
656.82	6.8370E-01
657.15	6.9736E-01
657.47	6.9713E-01
657.80	6.9911E-01
658.13	6.9995E-01
658.45	7.0365E-01
658.78	7.0828E-01
659.10	7.0961E-01
659.43	7.1155E-01
659.75	7.0875E-01
660.08	7.0564E-01
660.41	7.1613E-01
660.73	7.1823E-01
661.06	7.2181E-01
661.38	7.1931E-01
661.71	7.2089E-01
662.03	7.1463E-01
662.36	7.2773E-01
662.68	7.2820E-01
663.01	7.1987E-01
663.33	7.3174E-01
663.66	7.3192E-01
663.98	7.3729E-01
664.31	7.3087E-01
664.63	7.4599E-01
664.96	7.3427E-01
665.28	7.4288E-01
665.61	7.4067E-01
665.93	7.4110E-01
666.26	7.4556E-01
666.58	7.4862E-01
666.91	7.4362E-01
667.23	7.5234E-01
667.56	7.4821E-01
667.88	7.5072E-01
668.21	7.5936E-01
668.53	7.5181E-01
668.86	7.5788E-01
669.18	7.5578E-01
669.50	7.6785E-01
669.83	7.6517E-01
670.15	7.6645E-01
670.48	7.7113E-01
670.80	7.6681E-01
671.13	7.6344E-01
671.45	7.7167E-01
671.77	7.7520E-01
672.10	7.6946E-01
672.42	7.8412E-01
672.75	7.7649E-01
673.07	7.8518E-01
673.39	7.8043E-01
673.72	7.8505E-01
674.04	7.9061E-01
674.37	7.8628E-01
674.69	7.8263E-01
675.01	7.9816E-01
675.34	7.9556E-01
675.66	7.9818E-01
675.98	7.8696E-01
676.31	8.0173E-01
676.63	7.9856E-01
676.95	7.9744E-01
677.28	8.0500E-01
677.60	8.0682E-01
677.92	8.1211E-01
678.25	8.1328E-01
678.57	8.1407E-01
678.89	8.1076E-01
679.22	8.2186E-01
679.54	8.1419E-01
679.86	8.2688E-01
680.18	8.1800E-01
680.51	8.1823E-01
680.83	8.3803E-01
681.15	8.2519E-01
681.48	8.3423E-01
681.80	8.2839E-01
682.12	8.3007E-01
682.44	8.3937E-01
682.77	8.4326E-01
683.09	8.4903E-01
683.41	8.4766E-01
683.73	8.5461E-01
684.06	8.5013E-01
684.38	8.5033E-01
684.70	8.5742E-01
685.02	8.6295E-01
685.34	8.6581E-01
685.67	8.6179E-01
685.99	8.7567E-01
686.31	8.6615E-01
686.63	8.8155E-01
686.96	8.8341E-01
687.28	8.8881E-01
687.60	8.7652E-01
687.92	8.8589E-01
688.24	8.9195E-01
688.56	9.0143E-01
688.89	8.9153E-01
689.21	9.0357E-01
689.53	9.0188E-01
689.85	9.1277E-01
690.17	9.0551E-01
690.49	9.2508E-01
690.82	9.1575E-01
691.14	9.1894E-01
691.46	9.1717E-01
691.78	9.2840E-01
692.10	9.2277E-01
692.42	9.3513E-01
692.74	9.3581E-01
693.06	9.4044E-01
693.39	9.5251E-01
693.71	9.6637E-01
694.03	9.6095E-01
694.35	9.6038E-01
694.67	9.6310E-01
694.99	9.7701E-01
695.31	9.7583E-01
695.63	9.8010E-01
695.95	9.8144E-01
696.27	9.8507E-01
696.59	9.8741E-01
696.91	9.9628E-01
697.23	9.9922E-01
697.56	1.0030E00
697.88	1.0016E00
698.20	1.0101E00
698.52	1.0143E00
698.84	1.0284E00
699.16	1.0347E00
699.48	1.0229E00
699.80	1.0465E00
700.12	1.0365E00
700.44	1.0412E00
700.76	1.0492E00
701.08	1.0642E00
701.40	1.0637E00
701.72	1.0659E00
702.04	1.0740E00
702.36	1.0730E00
702.68	1.0834E00
703.00	1.0933E00
703.32	1.0888E00
703.64	1.1047E00
703.96	1.1014E00
704.28	1.1096E00
704.60	1.1171E00
704.91	1.1242E00
705.23	1.1240E00
705.55	1.1368E00
705.87	1.1383E00
706.19	1.1371E00
706.51	1.1497E00
706.83	1.1442E00
707.15	1.1730E00
707.47	1.1636E00
707.79	1.1788E00
708.11	1.1735E00
708.43	1.1813E00
708.74	1.1814E00
709.06	1.1928E00
709.38	1.2048E00
709.70	1.2032E00
710.02	1.2103E00
710.34	1.2054E00
710.66	1.2305E00
710.98	1.2270E00
711.29	1.2320E00
711.61	1.2518E00
711.93	1.2621E00
712.25	1.2503E00
712.57	1.2678E00
712.89	1.2738E00
713.20	1.2668E00
713.52	1.2852E00
713.84	1.2891E00
714.16	1.2818E00
714.48	1.2940E00
714.80	1.3128E00
715.11	1.3103E00
715.43	1.3258E00
715.75	1.3293E00
716.07	1.3336E00
716.39	1.3232E00
716.70	1.3346E00
717.02	1.3324E00
717.34	1.3608E00
717.66	1.3644E00
717.97	1.3758E00
718.29	1.3829E00
718.61	1.3900E00
718.93	1.4057E00
719.24	1.3993E00
719.56	1.4261E00
719.88	1.4254E00
720.20	1.4488E00
720.51	1.4649E00
720.83	1.4427E00
721.15	1.4738E00
721.46	1.4726E00
721.78	1.4841E00
722.10	1.5104E00
722.42	1.5044E00
722.73	1.5251E00
723.05	1.5146E00
723.37	1.5319E00
723.68	1.5495E00
724.00	1.5385E00
724.32	1.5624E00
724.63	1.5524E00
724.95	1.5668E00
725.27	1.5777E00
725.58	1.5763E00
725.90	1.5693E00
726.22	1.5950E00
726.53	1.5775E00
726.85	1.6009E00
727.16	1.6077E00
727.48	1.6187E00
727.80	1.6170E00
728.11	1.6179E00
728.43	1.6236E00
728.74	1.6259E00
729.06	1.6500E00
729.38	1.6488E00
729.69	1.6410E00
730.01	1.6592E00
730.32	1.6587E00
730.64	1.6565E00
730.96	1.6676E00
731.27	1.6977E00
731.59	1.6742E00
731.90	1.6961E00
732.22	1.6970E00
732.53	1.6984E00
732.85	1.7189E00
733.16	1.7240E00
733.48	1.7286E00
733.80	1.7047E00
734.11	1.7369E00
734.43	1.7314E00
734.74	1.7363E00
735.06	1.7662E00
735.37	1.7489E00
735.69	1.7699E00
736.00	1.7778E00
736.32	1.7816E00
736.63	1.7857E00
736.95	1.7915E00
737.26	1.8099E00
737.58	1.8030E00
737.89	1.8238E00
738.21	1.8256E00
738.52	1.8214E00
738.83	1.8338E00
739.15	1.8119E00
739.46	1.8434E00
739.78	1.8353E00
740.09	1.8340E00
740.41	1.8410E00
740.72	1.8477E00
741.04	1.8465E00
741.35	1.8513E00
741.66	1.8366E00
741.98	1.8660E00
742.29	1.8628E00
742.61	1.8735E00
742.92	1.8716E00
743.23	1.8834E00
743.55	1.9091E00
743.86	1.9035E00
744.18	1.8865E00
744.49	1.9022E00
744.80	1.8956E00
745.12	1.8946E00
745.43	1.8958E00
745.74	1.8889E00
746.06	1.8970E00
746.37	1.8752E00
746.68	1.8825E00
747.00	1.8912E00
747.31	1.8981E00
747.62	1.8705E00
747.94	1.8989E00
748.25	1.8885E00
748.56	1.8852E00
748.88	1.8827E00
749.19	1.8947E00
749.50	1.8939E00
749.82	1.8829E00
750.13	1.8894E00
750.44	1.8843E00
750.75	1.8692E00
751.07	1.8859E00
751.38	1.8925E00
751.69	1.8919E00
752.01	1.8893E00
752.32	1.9007E00
752.63	1.8864E00
752.94	1.8974E00
753.26	1.9192E00
753.57	1.8994E00
753.88	1.9282E00
754.19	1.9143E00
754.51	1.9114E00
754.82	1.9125E00
755.13	1.9467E00
755.44	1.9297E00
755.75	1.9280E00
756.07	1.9348E00
756.38	1.9546E00
756.69	1.9474E00
757.00	1.9574E00
757.31	1.9825E00
757.63	2.0049E00
757.94	2.0000E00
758.25	1.9989E00
758.56	1.9743E00
758.87	2.0139E00
759.18	2.0366E00
759.50	2.0370E00
759.81	2.0694E00
760.12	1.8309E00
760.43	8.8796E-01
760.74	7.6520E-01
761.05	6.7601E-01
761.36	7.4471E-01
761.67	9.1168E-01
761.99	1.0232E00
762.30	1.1229E00
762.61	1.1116E00
762.92	1.0623E00
763.23	1.0489E00
763.54	1.0399E00
763.85	1.0659E00
764.16	1.0937E00
764.47	1.2861E00
764.78	1.2106E00
765.10	1.3706E00
765.41	1.3713E00
765.72	1.5404E00
766.03	1.5172E00
766.34	1.5856E00
766.65	1.6773E00
766.96	1.8407E00
767.27	1.8456E00
767.58	1.8939E00
767.89	1.9738E00
768.20	2.0230E00
768.51	2.0414E00
768.82	2.0807E00
769.13	2.1288E00
769.44	2.1323E00
769.75	2.1699E00
770.06	2.1769E00
770.37	2.1705E00
770.68	2.2098E00
770.99	2.2089E00
771.30	2.2104E00
771.61	2.2194E00
771.92	2.2356E00
772.23	2.2681E00
772.54	2.2413E00
772.85	2.2540E00
773.16	2.2810E00
773.47	2.3021E00
773.78	2.2856E00
774.09	2.3372E00
774.39	2.3467E00
774.70	2.3021E00
775.01	2.3121E00
775.32	2.2757E00
775.63	2.3415E00
775.94	2.3107E00
776.25	2.3417E00
776.56	2.3554E00
776.87	2.3591E00
777.18	2.3508E00
777.48	2.3809E00
777.79	2.3556E00
778.10	2.4039E00
778.41	2.4072E00
778.72	2.3786E00
779.03	2.3776E00
779.34	2.4477E00
779.65	2.4081E00
779.95	2.4237E00
780.26	2.3870E00
780.57	2.4744E00
780.88	2.4282E00
781.19	2.4595E00
781.50	2.4553E00
781.80	2.4367E00
782.11	2.4665E00
782.42	2.4974E00
782.73	2.4798E00
783.04	2.4272E00
783.34	2.4665E00
783.65	2.4504E00
783.96	2.4999E00
784.27	2.4695E00
784.57	2.5086E00
784.88	2.4971E00
785.19	2.5646E00
785.50	2.5239E00
785.81	2.4953E00
786.11	2.4930E00
786.42	2.5149E00
786.73	2.5101E00
787.04	2.5235E00
787.34	2.4684E00
787.65	2.4378E00
787.96	2.4482E00
788.26	2.4760E00
788.57	2.4939E00
788.88	2.4146E00
789.19	2.4260E00
789.49	2.4371E00
789.80	2.4640E00
790.11	2.4284E00
790.41	2.4048E00
790.72	2.5043E00
791.03	2.4268E00
791.33	2.4271E00
791.64	2.4194E00
791.95	2.4919E00
792.25	2.5087E00
792.56	2.4952E00
792.87	2.5326E00
793.17	2.4809E00
793.48	2.5252E00
793.79	2.5697E00
794.09	2.6350E00
794.40	2.6282E00
794.70	2.6037E00
795.01	2.6981E00
795.32	2.5748E00
795.62	2.6625E00
795.93	2.5477E00
796.23	2.5744E00
796.54	2.5046E00
796.85	2.4959E00
797.15	2.5811E00
797.46	2.5830E00
797.76	2.6263E00
798.07	2.6923E00
798.37	2.7136E00
798.68	2.6836E00
798.99	2.7207E00
799.29	2.6781E00
799.60	2.6963E00
799.90	2.6344E00
800.21	2.6346E00
800.51	2.6264E00
800.82	2.7057E00
801.12	2.7153E00
801.43	2.6729E00
801.73	2.6386E00
802.04	2.6579E00
802.34	2.6167E00
802.65	2.7269E00
802.95	2.6502E00
803.26	2.7166E00
803.56	2.6434E00
803.87	2.6476E00
804.17	2.6918E00
804.48	2.6561E00
804.78	2.7155E00
805.09	2.7063E00
805.39	2.7446E00
805.70	2.8251E00
806.00	2.8285E00
806.30	2.8109E00
806.61	2.7767E00
806.91	2.8132E00
807.22	2.8705E00
807.52	2.8631E00
807.83	2.7914E00
808.13	2.8799E00
808.43	2.8415E00
808.74	2.9063E00
809.04	2.7493E00
809.35	2.7516E00
809.65	2.7970E00
809.95	2.6833E00
810.26	2.6881E00
810.56	2.6397E00
810.86	2.7482E00
811.17	2.6212E00
811.47	2.6656E00
811.77	2.5859E00
812.08	2.5517E00
812.38	2.5199E00
812.69	2.4842E00
812.99	2.4567E00
813.29	2.3460E00
813.59	2.2844E00
813.90	2.2861E00
814.20	2.2384E00
814.50	2.2012E00
814.81	2.1546E00
815.11	2.0993E00
815.41	1.9578E00
815.72	1.9412E00
816.02	1.9255E00
816.32	1.8444E00
816.62	1.8165E00
816.93	1.8693E00
817.23	1.8395E00
817.53	1.8365E00
817.84	1.8516E00
818.14	1.8534E00
818.44	1.8532E00
818.74	2.0089E00
819.04	1.8718E00
819.35	1.8989E00
819.65	1.8894E00
819.95	1.8855E00
820.25	1.9392E00
820.56	2.0487E00
820.86	2.0921E00
821.16	2.2488E00
821.46	2.1641E00
821.76	2.1605E00
822.07	2.3135E00
822.37	2.1637E00
822.67	2.2664E00
822.97	2.0779E00
823.27	1.8070E00
823.57	1.7135E00
823.88	1.7339E00
824.18	1.7940E00
824.48	1.7999E00
824.78	1.8515E00
825.08	2.0046E00
825.38	2.0717E00
825.69	2.0023E00
825.99	1.9765E00
826.29	2.0278E00
826.59	2.0337E00
826.89	2.0262E00
827.19	2.2646E00
827.49	2.0234E00
827.79	1.8970E00
828.09	1.8344E00
828.39	1.8098E00
828.70	1.8040E00
829.00	1.8915E00
829.30	1.7678E00
829.60	1.7129E00
829.90	1.8224E00
830.20	1.7390E00
830.50	1.7185E00
830.80	1.8323E00
831.10	1.7342E00
831.40	1.8197E00
831.70	1.7639E00
832.00	1.7956E00
832.30	1.6665E00
832.60	1.6915E00
832.90	1.6890E00
833.20	1.6669E00
833.50	1.6476E00
833.80	1.6576E00
834.10	1.6276E00
834.40	1.8395E00
834.70	1.7694E00
835.00	1.7351E00
835.30	1.7256E00
835.60	1.6973E00
835.90	1.7182E00
836.20	1.7803E00
836.50	1.7275E00
836.80	1.9154E00
837.10	2.4314E00
837.40	1.8261E00
837.70	1.9477E00
838.00	1.8112E00
838.30	1.8337E00
838.60	1.9163E00
838.90	1.9044E00
839.19	2.2473E00
839.49	1.8239E00
839.79	1.9160E00
840.09	1.8252E00
840.39	1.9540E00
840.69	1.9483E00
840.99	2.1693E00
841.29	2.0360E00
841.59	1.8226E00
841.88	1.8407E00
842.18	2.0201E00
842.48	1.8817E00
842.78	1.8783E00
843.08	1.9208E00
843.38	1.9091E00
843.68	2.1239E00
843.97	2.1617E00
844.27	1.9700E00
844.57	1.8473E00
844.87	1.9227E00
845.17	1.9220E00
845.47	1.9441E00
845.76	2.0524E00
846.06	2.0659E00
846.36	2.7014E00
846.66	1.9495E00
846.96	2.0392E00
847.25	1.9523E00
847.55	1.9253E00
847.85	1.9617E00
848.15	1.9728E00
848.44	1.9686E00
848.74	2.0449E00
849.04	1.9474E00
849.34	2.1671E00
849.63	1.9170E00
849.93	1.9056E00
850.23	1.8972E00
850.53	1.9766E00
850.82	1.9861E00
851.12	1.9631E00
851.42	1.9933E00
851.71	2.0388E00
852.01	1.9317E00
852.31	1.9825E00
852.61	1.9250E00
852.90	1.9819E00
853.20	2.1490E00
853.50	2.5228E00
853.79	2.2348E00
854.09	2.0004E00
854.39	1.9243E00
854.68	1.8872E00
854.98	1.8410E00
855.28	2.0413E00
855.57	2.1745E00
855.87	2.0451E00
856.17	2.0844E00
856.46	1.9302E00
856.76	1.9334E00
857.05	2.0758E00
857.35	1.9822E00
857.65	2.3782E00
857.94	2.2280E00
858.24	2.2661E00
858.53	2.0911E00
858.83	2.7077E00
859.13	2.0935E00
859.42	2.1533E00
859.72	2.3200E00
860.01	2.0796E00
860.31	2.0713E00
860.60	2.2151E00
860.90	2.2857E00
861.20	2.1596E00
861.49	2.1871E00
861.79	2.1837E00
862.08	3.6147E00
862.38	2.5751E00
862.67	2.1692E00
862.97	2.1662E00
863.26	2.1687E00
863.56	2.3771E00
863.85	2.7481E00
864.15	2.1950E00
864.44	2.2142E00
864.74	2.2829E00
865.03	2.6080E00
865.33	2.4879E00
865.62	2.2480E00
865.92	2.2485E00
866.21	2.2353E00
866.51	2.1905E00
866.80	2.5689E00
867.10	2.7332E00
867.39	2.4077E00
867.69	2.5889E00
867.98	2.1258E00
868.27	2.2033E00
868.57	2.2156E00
868.86	2.4480E00
869.16	2.1721E00
869.45	2.2593E00
869.75	2.3095E00
870.04	2.4196E00
870.33	2.5216E00
870.63	2.3306E00
870.92	2.2687E00
871.22	3.8707E00
871.51	2.4292E00
871.80	2.6120E00
872.10	2.6120E00
>>>>>End Processed Spectral Data<<<<<
