SpectraSuite Data File
++++++++++++++++++++++++++++++++++++
Date: Thu May 14 11:17:26 PDT 2015
User: schluterlab
Dark Spectrum Present: Yes
Reference Spectrum Present: No
Number of Sampled Component Spectra: 1
Spectrometers: USB2E3373
Integration Time (usec): 2300000 (USB2E3373)
Spectra Averaged: 3 (USB2E3373)
Boxcar Smoothing: 0 (USB2E3373)
Correct for Electrical Dark: No (USB2E3373)
Strobe/Lamp Enabled: No (USB2E3373)
Correct for Detector Non-linearity: No (USB2E3373)
Correct for Stray Light: No (USB2E3373)
Number of Pixels in Processed Spectrum: 2048
>>>>>Begin Processed Spectral Data<<<<<
178.53	0.0000E00
178.91	0.0000E00
179.29	0.0000E00
179.67	0.0000E00
180.04	0.0000E00
180.42	0.0000E00
180.80	0.0000E00
181.18	0.0000E00
181.56	0.0000E00
181.94	0.0000E00
182.31	0.0000E00
182.69	0.0000E00
183.07	0.0000E00
183.45	0.0000E00
183.83	0.0000E00
184.20	0.0000E00
184.58	0.0000E00
184.96	0.0000E00
185.34	0.0000E00
185.72	0.0000E00
186.09	0.0000E00
186.47	0.0000E00
186.85	0.0000E00
187.23	0.0000E00
187.61	0.0000E00
187.98	0.0000E00
188.36	0.0000E00
188.74	0.0000E00
189.12	0.0000E00
189.49	0.0000E00
189.87	0.0000E00
190.25	0.0000E00
190.63	0.0000E00
191.00	0.0000E00
191.38	0.0000E00
191.76	0.0000E00
192.14	0.0000E00
192.51	0.0000E00
192.89	0.0000E00
193.27	0.0000E00
193.65	0.0000E00
194.02	0.0000E00
194.40	0.0000E00
194.78	0.0000E00
195.15	0.0000E00
195.53	0.0000E00
195.91	0.0000E00
196.29	0.0000E00
196.66	0.0000E00
197.04	0.0000E00
197.42	0.0000E00
197.79	0.0000E00
198.17	0.0000E00
198.55	0.0000E00
198.92	0.0000E00
199.30	0.0000E00
199.68	0.0000E00
200.05	0.0000E00
200.43	0.0000E00
200.81	0.0000E00
201.18	0.0000E00
201.56	0.0000E00
201.94	0.0000E00
202.31	0.0000E00
202.69	0.0000E00
203.07	0.0000E00
203.44	0.0000E00
203.82	0.0000E00
204.19	0.0000E00
204.57	0.0000E00
204.95	0.0000E00
205.32	0.0000E00
205.70	0.0000E00
206.08	-0.0000E00
206.45	0.0000E00
206.83	0.0000E00
207.20	0.0000E00
207.58	0.0000E00
207.96	0.0000E00
208.33	0.0000E00
208.71	0.0000E00
209.08	0.0000E00
209.46	0.0000E00
209.84	-0.0000E00
210.21	0.0000E00
210.59	0.0000E00
210.96	0.0000E00
211.34	0.0000E00
211.71	0.0000E00
212.09	0.0000E00
212.46	0.0000E00
212.84	0.0000E00
213.22	0.0000E00
213.59	0.0000E00
213.97	0.0000E00
214.34	0.0000E00
214.72	0.0000E00
215.09	0.0000E00
215.47	0.0000E00
215.84	0.0000E00
216.22	0.0000E00
216.59	0.0000E00
216.97	0.0000E00
217.34	0.0000E00
217.72	0.0000E00
218.09	0.0000E00
218.47	0.0000E00
218.84	0.0000E00
219.22	0.0000E00
219.59	0.0000E00
219.97	0.0000E00
220.34	0.0000E00
220.72	0.0000E00
221.09	0.0000E00
221.47	0.0000E00
221.84	0.0000E00
222.22	0.0000E00
222.59	0.0000E00
222.97	0.0000E00
223.34	0.0000E00
223.72	0.0000E00
224.09	0.0000E00
224.46	0.0000E00
224.84	0.0000E00
225.21	0.0000E00
225.59	0.0000E00
225.96	0.0000E00
226.34	0.0000E00
226.71	0.0000E00
227.08	0.0000E00
227.46	0.0000E00
227.83	0.0000E00
228.21	0.0000E00
228.58	0.0000E00
228.95	0.0000E00
229.33	0.0000E00
229.70	0.0000E00
230.08	0.0000E00
230.45	0.0000E00
230.82	0.0000E00
231.20	0.0000E00
231.57	0.0000E00
231.95	0.0000E00
232.32	0.0000E00
232.69	0.0000E00
233.07	0.0000E00
233.44	0.0000E00
233.81	0.0000E00
234.19	0.0000E00
234.56	0.0000E00
234.93	0.0000E00
235.31	0.0000E00
235.68	0.0000E00
236.05	0.0000E00
236.43	0.0000E00
236.80	0.0000E00
237.17	0.0000E00
237.55	0.0000E00
237.92	0.0000E00
238.29	0.0000E00
238.67	0.0000E00
239.04	0.0000E00
239.41	0.0000E00
239.79	0.0000E00
240.16	0.0000E00
240.53	0.0000E00
240.91	0.0000E00
241.28	0.0000E00
241.65	0.0000E00
242.02	0.0000E00
242.40	0.0000E00
242.77	0.0000E00
243.14	0.0000E00
243.51	0.0000E00
243.89	0.0000E00
244.26	0.0000E00
244.63	0.0000E00
245.00	0.0000E00
245.38	0.0000E00
245.75	0.0000E00
246.12	0.0000E00
246.49	0.0000E00
246.87	0.0000E00
247.24	0.0000E00
247.61	0.0000E00
247.98	0.0000E00
248.36	0.0000E00
248.73	0.0000E00
249.10	0.0000E00
249.47	0.0000E00
249.84	0.0000E00
250.22	0.0000E00
250.59	0.0000E00
250.96	0.0000E00
251.33	0.0000E00
251.70	0.0000E00
252.08	0.0000E00
252.45	0.0000E00
252.82	0.0000E00
253.19	0.0000E00
253.56	0.0000E00
253.94	0.0000E00
254.31	0.0000E00
254.68	0.0000E00
255.05	0.0000E00
255.42	0.0000E00
255.79	0.0000E00
256.16	0.0000E00
256.54	0.0000E00
256.91	0.0000E00
257.28	0.0000E00
257.65	0.0000E00
258.02	0.0000E00
258.39	0.0000E00
258.76	0.0000E00
259.14	0.0000E00
259.51	0.0000E00
259.88	0.0000E00
260.25	0.0000E00
260.62	0.0000E00
260.99	0.0000E00
261.36	0.0000E00
261.73	0.0000E00
262.10	0.0000E00
262.47	0.0000E00
262.85	0.0000E00
263.22	0.0000E00
263.59	0.0000E00
263.96	0.0000E00
264.33	0.0000E00
264.70	0.0000E00
265.07	0.0000E00
265.44	0.0000E00
265.81	0.0000E00
266.18	0.0000E00
266.55	0.0000E00
266.92	0.0000E00
267.29	0.0000E00
267.66	-0.0000E00
268.03	0.0000E00
268.40	0.0000E00
268.77	0.0000E00
269.14	0.0000E00
269.51	0.0000E00
269.88	0.0000E00
270.25	0.0000E00
270.62	0.0000E00
270.99	0.0000E00
271.36	0.0000E00
271.73	0.0000E00
272.10	0.0000E00
272.47	0.0000E00
272.84	0.0000E00
273.21	0.0000E00
273.58	0.0000E00
273.95	0.0000E00
274.32	0.0000E00
274.69	0.0000E00
275.06	0.0000E00
275.43	0.0000E00
275.80	0.0000E00
276.17	0.0000E00
276.54	0.0000E00
276.91	0.0000E00
277.28	0.0000E00
277.65	0.0000E00
278.02	0.0000E00
278.39	0.0000E00
278.76	0.0000E00
279.13	0.0000E00
279.50	0.0000E00
279.87	0.0000E00
280.23	0.0000E00
280.60	0.0000E00
280.97	0.0000E00
281.34	0.0000E00
281.71	0.0000E00
282.08	0.0000E00
282.45	0.0000E00
282.82	0.0000E00
283.19	0.0000E00
283.56	0.0000E00
283.92	0.0000E00
284.29	0.0000E00
284.66	0.0000E00
285.03	0.0000E00
285.40	0.0000E00
285.77	0.0000E00
286.14	0.0000E00
286.51	0.0000E00
286.87	0.0000E00
287.24	0.0000E00
287.61	0.0000E00
287.98	0.0000E00
288.35	0.0000E00
288.72	0.0000E00
289.08	0.0000E00
289.45	0.0000E00
289.82	0.0000E00
290.19	0.0000E00
290.56	0.0000E00
290.93	0.0000E00
291.29	0.0000E00
291.66	0.0000E00
292.03	0.0000E00
292.40	0.0000E00
292.77	0.0000E00
293.13	0.0000E00
293.50	0.0000E00
293.87	0.0000E00
294.24	0.0000E00
294.60	0.0000E00
294.97	0.0000E00
295.34	0.0000E00
295.71	0.0000E00
296.08	0.0000E00
296.44	0.0000E00
296.81	0.0000E00
297.18	0.0000E00
297.55	0.0000E00
297.91	0.0000E00
298.28	0.0000E00
298.65	0.0000E00
299.02	0.0000E00
299.38	0.0000E00
299.75	0.0000E00
300.12	1.1999E-01
300.48	1.5495E-01
300.85	1.2050E-01
301.22	2.3030E-01
301.59	1.3768E-01
301.95	1.5118E-01
302.32	1.1571E-01
302.69	1.4094E-01
303.05	1.3298E-01
303.42	2.1083E-01
303.79	2.1004E-01
304.15	1.4135E-01
304.52	1.7158E-01
304.89	1.9530E-01
305.25	1.1734E-01
305.62	1.4828E-01
305.99	1.7931E-01
306.35	1.4092E-01
306.72	1.7818E-01
307.09	2.5445E-01
307.45	2.3107E-01
307.82	2.4865E-01
308.19	8.9746E-01
308.55	2.0998E-01
308.92	1.8764E-01
309.29	1.7227E-01
309.65	2.5306E-01
310.02	2.7810E-01
310.38	2.1038E-01
310.75	1.7847E-01
311.12	2.7216E-01
311.48	2.2888E-01
311.85	3.3501E-01
312.22	2.4127E-01
312.58	4.1767E-01
312.95	1.8781E-01
313.31	2.3085E-01
313.68	3.1845E-01
314.05	2.8824E-01
314.41	3.3050E-01
314.78	2.8321E-01
315.14	9.7534E-01
315.51	3.1526E-01
315.87	2.2894E-01
316.24	5.4611E-01
316.61	3.3488E-01
316.97	3.4215E-01
317.34	3.8326E-01
317.70	2.9204E-01
318.07	3.5011E-01
318.43	3.4705E-01
318.80	5.4534E-01
319.16	3.7013E-01
319.53	9.8104E00
319.89	5.2970E-01
320.26	4.2325E-01
320.62	5.6731E-01
320.99	4.1577E-01
321.35	4.5335E-01
321.72	6.1741E-01
322.08	4.1473E-01
322.45	8.5976E-01
322.81	5.4081E-01
323.18	3.4353E-01
323.54	3.4829E-01
323.91	7.5154E-01
324.27	5.4974E-01
324.64	1.8013E00
325.00	4.3735E-01
325.37	1.6913E00
325.73	4.8862E-01
326.10	1.9928E00
326.46	5.5564E-01
326.83	5.5727E-01
327.19	5.9803E-01
327.56	6.0318E-01
327.92	8.8073E-01
328.29	1.1009E00
328.65	9.5391E-01
329.01	1.3372E00
329.38	5.9422E-01
329.74	6.4122E-01
330.11	8.5666E-01
330.47	1.0099E00
330.84	7.3193E-01
331.20	7.0600E-01
331.56	8.3578E-01
331.93	6.8771E-01
332.29	8.5536E-01
332.66	8.6785E-01
333.02	5.3885E-01
333.38	6.3215E-01
333.75	6.6397E-01
334.11	7.9191E-01
334.48	9.9814E-01
334.84	8.3842E-01
335.20	6.9464E-01
335.57	8.0401E-01
335.93	1.1029E00
336.29	9.0026E-01
336.66	7.7546E-01
337.02	8.4961E-01
337.38	7.2568E-01
337.75	6.1477E-01
338.11	4.8565E-01
338.47	8.6852E-01
338.84	1.1802E00
339.20	2.1568E00
339.56	8.3944E-01
339.93	9.3969E-01
340.29	7.1327E-01
340.65	8.2515E-01
341.02	8.6662E-01
341.38	8.0322E-01
341.74	7.2864E-01
342.11	7.5092E-01
342.47	1.0540E00
342.83	1.2467E00
343.20	7.3283E-01
343.56	1.2475E00
343.92	9.5025E-01
344.28	9.1220E-01
344.65	8.6042E-01
345.01	9.1080E-01
345.37	8.0288E-01
345.73	8.6175E-01
346.10	1.1458E00
346.46	9.4997E-01
346.82	7.1610E-01
347.19	1.6343E00
347.55	8.6814E-01
347.91	1.6977E00
348.27	1.0673E00
348.63	8.8661E-01
349.00	9.0840E-01
349.36	8.2278E-01
349.72	9.7708E-01
350.08	1.2564E00
350.45	1.3591E00
350.81	1.3524E00
351.17	9.8360E-01
351.53	1.3419E00
351.89	1.2239E00
352.26	1.1254E00
352.62	1.1865E00
352.98	7.7552E-01
353.34	1.3754E00
353.70	1.1115E00
354.07	9.4216E-01
354.43	1.2212E00
354.79	9.9185E-01
355.15	1.0151E00
355.51	1.1701E00
355.87	7.5090E-01
356.24	1.0997E00
356.60	1.1506E00
356.96	1.0022E00
357.32	1.0925E00
357.68	7.7240E-01
358.04	8.8286E-01
358.40	8.8013E-01
358.77	7.2668E-01
359.13	9.9867E-01
359.49	1.0754E00
359.85	1.1207E00
360.21	1.0838E00
360.57	1.0169E00
360.93	9.5072E-01
361.29	1.1380E00
361.66	1.6530E00
362.02	1.0797E00
362.38	1.4724E00
362.74	1.0246E00
363.10	1.3445E00
363.46	1.1126E00
363.82	1.1361E00
364.18	1.2928E00
364.54	1.2233E00
364.90	9.9060E-01
365.26	1.3392E00
365.62	1.2806E00
365.98	1.8649E00
366.35	1.6907E00
366.71	1.4418E00
367.07	1.4577E00
367.43	1.4329E00
367.79	1.3688E00
368.15	1.1406E00
368.51	1.4107E00
368.87	1.2305E00
369.23	1.3449E00
369.59	1.5808E00
369.95	1.5805E00
370.31	1.2324E00
370.67	1.3370E00
371.03	1.5389E00
371.39	1.4314E00
371.75	1.2379E00
372.11	1.4799E00
372.47	1.2181E00
372.83	1.4769E00
373.19	1.3025E00
373.55	1.4247E00
373.91	1.4221E00
374.27	1.5662E00
374.63	1.3213E00
374.99	1.2900E00
375.35	1.3734E00
375.71	1.2341E00
376.07	1.3946E00
376.42	1.2829E00
376.78	1.4114E00
377.14	1.3050E00
377.50	1.1702E00
377.86	1.3624E00
378.22	1.2081E00
378.58	1.3170E00
378.94	1.0638E00
379.30	1.1365E00
379.66	1.2652E00
380.02	1.1678E00
380.38	1.1889E00
380.74	1.3125E00
381.09	1.0971E00
381.45	1.1625E00
381.81	1.0006E00
382.17	1.3141E00
382.53	1.1684E00
382.89	1.1340E00
383.25	1.2025E00
383.61	1.1510E00
383.97	1.1561E00
384.32	1.1003E00
384.68	1.2832E00
385.04	1.0854E00
385.40	1.0808E00
385.76	1.2245E00
386.12	1.0708E00
386.48	1.1343E00
386.83	1.2131E00
387.19	1.0657E00
387.55	1.1344E00
387.91	1.0331E00
388.27	1.1253E00
388.62	1.2171E00
388.98	1.0251E00
389.34	1.2063E00
389.70	1.0322E00
390.06	1.0004E00
390.42	1.2139E00
390.77	1.0929E00
391.13	1.0568E00
391.49	1.1824E00
391.85	1.2746E00
392.20	1.2197E00
392.56	1.1479E00
392.92	1.0851E00
393.28	1.0773E00
393.64	1.0869E00
393.99	1.1363E00
394.35	1.0882E00
394.71	1.0958E00
395.07	1.0116E00
395.42	1.1084E00
395.78	1.1552E00
396.14	1.0978E00
396.50	1.0571E00
396.85	1.1735E00
397.21	1.0235E00
397.57	1.1189E00
397.92	1.0940E00
398.28	1.0653E00
398.64	1.1243E00
399.00	1.0234E00
399.35	9.9521E-01
399.71	1.0269E00
400.07	1.0799E00
400.42	1.0212E00
400.78	1.0345E00
401.14	9.7047E-01
401.49	1.0297E00
401.85	9.6250E-01
402.21	1.0430E00
402.57	1.0439E00
402.92	1.0133E00
403.28	9.8140E-01
403.63	9.7806E-01
403.99	9.7175E-01
404.35	9.7949E-01
404.70	1.0278E00
405.06	9.3137E-01
405.42	1.0337E00
405.77	9.5500E-01
406.13	9.4222E-01
406.49	8.9579E-01
406.84	9.6927E-01
407.20	9.2781E-01
407.55	1.0158E00
407.91	1.0129E00
408.27	9.2319E-01
408.62	9.0712E-01
408.98	9.1541E-01
409.34	9.0550E-01
409.69	9.5910E-01
410.05	9.2704E-01
410.40	9.1760E-01
410.76	8.7858E-01
411.11	8.3568E-01
411.47	9.1891E-01
411.83	8.5280E-01
412.18	8.5750E-01
412.54	9.1934E-01
412.89	9.1923E-01
413.25	8.5140E-01
413.60	8.8028E-01
413.96	9.4305E-01
414.31	9.0637E-01
414.67	9.5921E-01
415.03	9.6208E-01
415.38	9.2054E-01
415.74	9.5342E-01
416.09	8.8029E-01
416.45	9.4459E-01
416.80	8.8267E-01
417.16	9.5182E-01
417.51	8.9162E-01
417.87	8.7901E-01
418.22	8.6013E-01
418.58	9.2586E-01
418.93	8.3181E-01
419.29	9.0545E-01
419.64	8.7330E-01
420.00	8.3636E-01
420.35	8.1066E-01
420.71	8.6053E-01
421.06	8.4948E-01
421.42	8.5868E-01
421.77	8.6163E-01
422.12	8.6036E-01
422.48	8.3435E-01
422.83	8.8083E-01
423.19	8.4458E-01
423.54	8.4409E-01
423.90	8.4579E-01
424.25	8.0636E-01
424.61	8.4942E-01
424.96	8.3409E-01
425.31	8.0325E-01
425.67	8.0395E-01
426.02	8.1585E-01
426.38	8.0979E-01
426.73	7.9356E-01
427.09	8.1244E-01
427.44	7.4965E-01
427.79	8.0533E-01
428.15	7.8826E-01
428.50	8.0309E-01
428.85	8.2945E-01
429.21	7.6705E-01
429.56	7.4120E-01
429.92	7.6183E-01
430.27	7.5124E-01
430.62	7.8540E-01
430.98	8.0391E-01
431.33	7.7152E-01
431.68	7.7116E-01
432.04	7.3914E-01
432.39	7.5648E-01
432.74	8.0607E-01
433.10	7.3098E-01
433.45	7.7195E-01
433.80	7.7638E-01
434.16	7.7995E-01
434.51	7.4734E-01
434.86	7.8281E-01
435.22	7.3881E-01
435.57	8.1377E-01
435.92	7.5811E-01
436.28	7.8517E-01
436.63	7.3340E-01
436.98	7.4101E-01
437.34	7.5732E-01
437.69	7.3079E-01
438.04	7.0820E-01
438.39	7.6300E-01
438.75	7.3403E-01
439.10	7.0550E-01
439.45	7.4681E-01
439.81	7.2437E-01
440.16	7.0689E-01
440.51	7.2653E-01
440.86	7.2420E-01
441.22	7.1723E-01
441.57	7.3173E-01
441.92	7.1098E-01
442.27	7.4629E-01
442.63	7.1691E-01
442.98	7.6274E-01
443.33	7.4435E-01
443.68	7.1836E-01
444.03	6.6858E-01
444.39	6.6932E-01
444.74	7.2050E-01
445.09	7.3343E-01
445.44	7.2605E-01
445.79	6.5791E-01
446.15	7.2284E-01
446.50	7.0892E-01
446.85	6.7572E-01
447.20	6.6603E-01
447.55	6.8671E-01
447.91	6.9747E-01
448.26	6.9372E-01
448.61	7.0676E-01
448.96	6.8441E-01
449.31	6.8214E-01
449.66	7.1831E-01
450.02	6.7803E-01
450.37	7.0915E-01
450.72	6.7748E-01
451.07	7.1619E-01
451.42	7.1828E-01
451.77	6.9501E-01
452.12	6.9407E-01
452.47	7.3293E-01
452.83	6.5105E-01
453.18	7.0008E-01
453.53	6.8288E-01
453.88	6.4694E-01
454.23	6.5289E-01
454.58	6.5055E-01
454.93	6.8143E-01
455.28	6.7416E-01
455.63	6.7033E-01
455.98	6.5603E-01
456.34	6.8378E-01
456.69	6.7479E-01
457.04	6.5739E-01
457.39	6.3200E-01
457.74	6.2252E-01
458.09	6.4694E-01
458.44	6.2884E-01
458.79	6.0167E-01
459.14	6.2888E-01
459.49	6.4630E-01
459.84	6.2290E-01
460.19	6.5857E-01
460.54	6.4825E-01
460.89	6.0038E-01
461.24	6.6123E-01
461.59	6.3333E-01
461.94	6.5320E-01
462.29	6.0037E-01
462.64	6.4916E-01
462.99	6.5588E-01
463.34	6.6100E-01
463.69	6.2716E-01
464.04	5.9021E-01
464.39	6.0048E-01
464.74	6.1762E-01
465.09	6.3870E-01
465.44	6.0089E-01
465.79	6.2672E-01
466.14	6.2909E-01
466.49	6.0839E-01
466.84	6.1531E-01
467.19	6.1877E-01
467.54	6.4061E-01
467.89	6.0306E-01
468.24	5.7771E-01
468.59	5.8487E-01
468.94	5.7777E-01
469.29	5.8107E-01
469.64	5.9240E-01
469.99	5.8005E-01
470.34	5.5626E-01
470.68	5.9566E-01
471.03	5.7548E-01
471.38	5.5952E-01
471.73	5.6067E-01
472.08	5.3995E-01
472.43	5.2359E-01
472.78	5.4439E-01
473.13	5.4658E-01
473.48	5.4461E-01
473.83	5.2409E-01
474.17	5.3299E-01
474.52	5.3084E-01
474.87	5.0604E-01
475.22	5.1472E-01
475.57	4.8910E-01
475.92	4.7212E-01
476.27	5.0758E-01
476.61	4.8110E-01
476.96	4.7148E-01
477.31	4.5347E-01
477.66	4.6114E-01
478.01	4.5726E-01
478.36	4.5792E-01
478.70	4.4273E-01
479.05	4.5277E-01
479.40	4.3007E-01
479.75	4.3389E-01
480.10	4.3386E-01
480.45	4.1973E-01
480.79	4.2476E-01
481.14	4.3374E-01
481.49	4.1653E-01
481.84	4.0663E-01
482.19	4.0357E-01
482.53	4.0705E-01
482.88	4.0050E-01
483.23	3.9275E-01
483.58	3.9203E-01
483.92	3.9990E-01
484.27	3.8243E-01
484.62	3.8378E-01
484.97	3.7345E-01
485.31	3.7345E-01
485.66	3.7866E-01
486.01	3.8174E-01
486.36	3.6504E-01
486.70	3.6840E-01
487.05	3.6718E-01
487.40	3.6513E-01
487.75	3.5653E-01
488.09	3.6020E-01
488.44	3.6260E-01
488.79	3.6231E-01
489.13	3.5702E-01
489.48	3.5934E-01
489.83	3.5764E-01
490.17	3.4723E-01
490.52	3.4734E-01
490.87	3.4877E-01
491.22	3.4892E-01
491.56	3.4937E-01
491.91	3.5441E-01
492.26	3.4882E-01
492.60	3.4886E-01
492.95	3.5200E-01
493.30	3.5067E-01
493.64	3.4530E-01
493.99	3.4852E-01
494.34	3.4826E-01
494.68	3.4167E-01
495.03	3.5230E-01
495.37	3.4444E-01
495.72	3.5329E-01
496.07	3.4473E-01
496.41	3.4380E-01
496.76	3.4357E-01
497.11	3.4853E-01
497.45	3.4570E-01
497.80	3.4699E-01
498.14	3.4448E-01
498.49	3.4424E-01
498.84	3.4580E-01
499.18	3.4035E-01
499.53	3.4373E-01
499.87	3.4490E-01
500.22	3.4757E-01
500.56	3.4702E-01
500.91	3.4494E-01
501.26	3.4528E-01
501.60	3.4239E-01
501.95	3.4354E-01
502.29	3.4318E-01
502.64	3.4011E-01
502.98	3.4592E-01
503.33	3.3958E-01
503.67	3.4251E-01
504.02	3.4171E-01
504.36	3.3928E-01
504.71	3.4454E-01
505.06	3.4331E-01
505.40	3.3896E-01
505.75	3.3942E-01
506.09	3.4154E-01
506.44	3.3885E-01
506.78	3.3837E-01
507.13	3.3885E-01
507.47	3.3667E-01
507.82	3.3546E-01
508.16	3.3770E-01
508.51	3.3485E-01
508.85	3.3235E-01
509.19	3.3170E-01
509.54	3.3596E-01
509.88	3.3830E-01
510.23	3.3277E-01
510.57	3.3334E-01
510.92	3.3348E-01
511.26	3.3055E-01
511.61	3.3186E-01
511.95	3.3018E-01
512.30	3.2832E-01
512.64	3.2924E-01
512.98	3.2877E-01
513.33	3.2780E-01
513.67	3.3176E-01
514.02	3.2965E-01
514.36	3.2630E-01
514.70	3.3002E-01
515.05	3.2341E-01
515.39	3.2619E-01
515.74	3.2444E-01
516.08	3.2678E-01
516.42	3.2304E-01
516.77	3.2423E-01
517.11	3.2386E-01
517.46	3.2330E-01
517.80	3.2391E-01
518.14	3.2401E-01
518.49	3.2076E-01
518.83	3.2432E-01
519.17	3.2712E-01
519.52	3.2237E-01
519.86	3.2150E-01
520.20	3.2013E-01
520.55	3.1945E-01
520.89	3.1966E-01
521.23	3.2053E-01
521.58	3.2325E-01
521.92	3.2259E-01
522.26	3.2607E-01
522.61	3.1941E-01
522.95	3.2231E-01
523.29	3.1949E-01
523.64	3.2226E-01
523.98	3.2228E-01
524.32	3.2210E-01
524.66	3.2155E-01
525.01	3.2238E-01
525.35	3.2369E-01
525.69	3.2577E-01
526.04	3.2633E-01
526.38	3.2163E-01
526.72	3.2741E-01
527.06	3.2578E-01
527.41	3.2838E-01
527.75	3.2801E-01
528.09	3.2589E-01
528.43	3.2926E-01
528.78	3.2732E-01
529.12	3.3256E-01
529.46	3.3183E-01
529.80	3.3333E-01
530.15	3.3405E-01
530.49	3.3596E-01
530.83	3.3555E-01
531.17	3.3543E-01
531.51	3.3840E-01
531.86	3.3778E-01
532.20	3.4334E-01
532.54	3.3861E-01
532.88	3.4182E-01
533.22	3.4450E-01
533.57	3.4629E-01
533.91	3.4407E-01
534.25	3.4639E-01
534.59	3.4731E-01
534.93	3.4374E-01
535.27	3.4752E-01
535.62	3.5207E-01
535.96	3.5201E-01
536.30	3.5035E-01
536.64	3.5513E-01
536.98	3.5673E-01
537.32	3.5504E-01
537.66	3.5432E-01
538.01	3.6128E-01
538.35	3.6102E-01
538.69	3.5709E-01
539.03	3.6399E-01
539.37	3.6001E-01
539.71	3.6513E-01
540.05	3.6126E-01
540.39	3.6465E-01
540.73	3.6719E-01
541.07	3.6659E-01
541.42	3.6731E-01
541.76	3.6800E-01
542.10	3.6893E-01
542.44	3.7148E-01
542.78	3.7141E-01
543.12	3.6850E-01
543.46	3.7655E-01
543.80	3.7175E-01
544.14	3.7077E-01
544.48	3.6974E-01
544.82	3.7454E-01
545.16	3.7228E-01
545.50	3.7412E-01
545.84	3.7989E-01
546.18	3.7345E-01
546.52	3.7861E-01
546.86	3.7823E-01
547.20	3.7994E-01
547.54	3.8540E-01
547.88	3.7966E-01
548.22	3.7939E-01
548.56	3.8222E-01
548.90	3.7938E-01
549.24	3.8146E-01
549.58	3.8488E-01
549.92	3.8232E-01
550.26	3.8701E-01
550.60	3.8477E-01
550.94	3.7933E-01
551.28	3.8730E-01
551.62	3.8230E-01
551.96	3.8661E-01
552.30	3.9054E-01
552.64	3.8919E-01
552.98	3.8676E-01
553.32	3.8606E-01
553.66	3.8586E-01
554.00	3.8510E-01
554.34	3.8845E-01
554.68	3.8999E-01
555.02	3.8730E-01
555.36	3.9133E-01
555.69	3.9044E-01
556.03	3.8852E-01
556.37	3.8823E-01
556.71	3.8797E-01
557.05	3.8876E-01
557.39	3.8967E-01
557.73	3.9003E-01
558.07	3.9015E-01
558.41	3.8636E-01
558.75	3.9074E-01
559.08	3.8917E-01
559.42	3.8445E-01
559.76	3.9210E-01
560.10	3.9152E-01
560.44	3.9287E-01
560.78	3.8842E-01
561.12	3.8835E-01
561.45	3.9001E-01
561.79	3.9188E-01
562.13	3.9134E-01
562.47	3.9119E-01
562.81	3.9365E-01
563.15	3.9352E-01
563.48	3.9172E-01
563.82	3.8510E-01
564.16	3.9305E-01
564.50	3.9069E-01
564.84	3.9384E-01
565.17	3.9222E-01
565.51	3.8823E-01
565.85	3.9301E-01
566.19	3.9035E-01
566.52	3.9500E-01
566.86	3.9026E-01
567.20	3.9360E-01
567.54	3.9557E-01
567.88	3.9380E-01
568.21	3.9755E-01
568.55	3.9529E-01
568.89	3.9336E-01
569.23	3.9392E-01
569.56	3.9378E-01
569.90	3.9683E-01
570.24	3.9873E-01
570.57	3.9907E-01
570.91	3.9750E-01
571.25	3.9661E-01
571.59	3.9589E-01
571.92	3.9702E-01
572.26	3.9887E-01
572.60	4.0089E-01
572.93	4.0129E-01
573.27	4.0310E-01
573.61	4.0479E-01
573.95	3.9946E-01
574.28	4.0497E-01
574.62	4.0459E-01
574.96	4.1072E-01
575.29	4.0804E-01
575.63	4.1304E-01
575.97	4.0996E-01
576.30	4.1721E-01
576.64	4.1231E-01
576.98	4.1555E-01
577.31	4.1412E-01
577.65	4.1792E-01
577.98	4.1660E-01
578.32	4.2140E-01
578.66	4.2391E-01
578.99	4.2164E-01
579.33	4.2759E-01
579.67	4.2430E-01
580.00	4.2902E-01
580.34	4.2530E-01
580.67	4.3045E-01
581.01	4.3134E-01
581.35	4.3265E-01
581.68	4.3515E-01
582.02	4.3569E-01
582.35	4.3725E-01
582.69	4.3509E-01
583.02	4.4360E-01
583.36	4.4202E-01
583.70	4.3980E-01
584.03	4.4343E-01
584.37	4.4194E-01
584.70	4.5027E-01
585.04	4.4747E-01
585.37	4.4549E-01
585.71	4.5382E-01
586.04	4.4924E-01
586.38	4.5247E-01
586.72	4.5702E-01
587.05	4.5553E-01
587.39	4.5931E-01
587.72	4.5530E-01
588.06	4.6339E-01
588.39	4.5963E-01
588.73	4.6259E-01
589.06	4.6303E-01
589.40	4.6768E-01
589.73	4.6804E-01
590.07	4.7142E-01
590.40	4.7137E-01
590.73	4.7761E-01
591.07	4.7039E-01
591.40	4.7823E-01
591.74	4.7607E-01
592.07	4.8097E-01
592.41	4.8046E-01
592.74	4.8093E-01
593.08	4.7689E-01
593.41	4.7935E-01
593.75	4.8206E-01
594.08	4.8349E-01
594.41	4.8394E-01
594.75	4.8772E-01
595.08	4.8520E-01
595.42	4.8104E-01
595.75	4.8434E-01
596.09	4.8873E-01
596.42	4.8795E-01
596.75	4.8913E-01
597.09	4.9402E-01
597.42	4.8779E-01
597.75	4.9231E-01
598.09	4.9178E-01
598.42	4.9555E-01
598.76	4.9585E-01
599.09	4.9631E-01
599.42	5.0173E-01
599.76	4.9746E-01
600.09	4.9998E-01
600.42	5.0103E-01
600.76	4.9089E-01
601.09	4.9798E-01
601.42	5.0621E-01
601.76	4.9869E-01
602.09	5.0020E-01
602.42	5.0302E-01
602.76	5.0281E-01
603.09	5.0119E-01
603.42	5.0348E-01
603.76	4.9920E-01
604.09	5.0044E-01
604.42	5.0415E-01
604.76	5.0049E-01
605.09	5.0760E-01
605.42	5.0484E-01
605.75	5.0658E-01
606.09	5.0848E-01
606.42	5.0603E-01
606.75	5.0765E-01
607.09	5.1095E-01
607.42	5.0597E-01
607.75	5.1058E-01
608.08	5.1246E-01
608.42	5.1270E-01
608.75	5.0927E-01
609.08	5.1379E-01
609.41	5.1467E-01
609.75	5.1526E-01
610.08	5.0892E-01
610.41	5.1416E-01
610.74	5.1551E-01
611.07	5.1651E-01
611.41	5.1025E-01
611.74	5.1625E-01
612.07	5.1482E-01
612.40	5.1200E-01
612.73	5.1369E-01
613.07	5.1891E-01
613.40	5.1426E-01
613.73	5.1185E-01
614.06	5.1654E-01
614.39	5.1724E-01
614.72	5.2029E-01
615.06	5.1885E-01
615.39	5.2700E-01
615.72	5.1826E-01
616.05	5.2871E-01
616.38	5.2512E-01
616.71	5.2801E-01
617.05	5.1791E-01
617.38	5.2333E-01
617.71	5.1913E-01
618.04	5.2746E-01
618.37	5.1840E-01
618.70	5.2196E-01
619.03	5.2346E-01
619.36	5.1693E-01
619.69	5.2480E-01
620.03	5.2021E-01
620.36	5.2036E-01
620.69	5.1940E-01
621.02	5.2371E-01
621.35	5.1774E-01
621.68	5.1187E-01
622.01	5.1731E-01
622.34	5.1995E-01
622.67	5.1863E-01
623.00	5.2237E-01
623.33	5.1944E-01
623.66	5.2009E-01
623.99	5.2433E-01
624.32	5.1693E-01
624.65	5.1853E-01
624.99	5.1954E-01
625.32	5.2205E-01
625.65	5.2126E-01
625.98	5.1270E-01
626.31	5.1903E-01
626.64	5.2208E-01
626.97	5.1750E-01
627.30	5.1601E-01
627.63	5.1972E-01
627.96	5.1617E-01
628.29	5.1253E-01
628.62	5.1985E-01
628.95	5.2033E-01
629.28	5.1279E-01
629.61	5.2440E-01
629.94	5.2082E-01
630.26	5.2329E-01
630.59	5.2355E-01
630.92	5.1889E-01
631.25	5.2108E-01
631.58	5.2670E-01
631.91	5.2677E-01
632.24	5.3035E-01
632.57	5.2837E-01
632.90	5.2641E-01
633.23	5.2696E-01
633.56	5.3026E-01
633.89	5.3073E-01
634.22	5.3236E-01
634.55	5.3496E-01
634.88	5.3920E-01
635.20	5.3963E-01
635.53	5.4333E-01
635.86	5.4353E-01
636.19	5.4938E-01
636.52	5.4909E-01
636.85	5.4914E-01
637.18	5.5564E-01
637.51	5.5287E-01
637.83	5.5954E-01
638.16	5.5572E-01
638.49	5.6468E-01
638.82	5.6393E-01
639.15	5.6537E-01
639.48	5.6810E-01
639.81	5.7654E-01
640.13	5.7086E-01
640.46	5.7730E-01
640.79	5.7627E-01
641.12	5.8524E-01
641.45	5.8140E-01
641.77	5.8270E-01
642.10	5.9207E-01
642.43	5.9220E-01
642.76	5.9757E-01
643.09	5.9137E-01
643.41	5.9863E-01
643.74	6.0103E-01
644.07	5.9702E-01
644.40	6.0313E-01
644.73	6.1219E-01
645.05	6.1242E-01
645.38	6.1430E-01
645.71	6.1774E-01
646.04	6.1972E-01
646.36	6.1618E-01
646.69	6.2930E-01
647.02	6.2089E-01
647.35	6.2570E-01
647.67	6.3447E-01
648.00	6.2965E-01
648.33	6.4037E-01
648.66	6.3194E-01
648.98	6.4262E-01
649.31	6.3792E-01
649.64	6.4050E-01
649.96	6.4933E-01
650.29	6.5175E-01
650.62	6.5316E-01
650.94	6.5664E-01
651.27	6.5371E-01
651.60	6.5548E-01
651.92	6.6585E-01
652.25	6.6431E-01
652.58	6.6465E-01
652.90	6.6993E-01
653.23	6.6722E-01
653.56	6.7018E-01
653.88	6.7587E-01
654.21	6.7525E-01
654.54	6.7988E-01
654.86	6.8794E-01
655.19	6.7978E-01
655.52	6.9179E-01
655.84	6.8466E-01
656.17	6.8772E-01
656.49	6.9720E-01
656.82	6.8500E-01
657.15	6.9838E-01
657.47	6.9803E-01
657.80	6.9983E-01
658.13	7.0043E-01
658.45	7.0438E-01
658.78	7.0907E-01
659.10	7.1101E-01
659.43	7.1259E-01
659.75	7.1003E-01
660.08	7.0643E-01
660.41	7.1662E-01
660.73	7.1940E-01
661.06	7.2262E-01
661.38	7.2043E-01
661.71	7.2157E-01
662.03	7.1537E-01
662.36	7.2917E-01
662.68	7.2889E-01
663.01	7.2098E-01
663.33	7.3243E-01
663.66	7.3267E-01
663.98	7.3811E-01
664.31	7.3150E-01
664.63	7.4695E-01
664.96	7.3541E-01
665.28	7.4403E-01
665.61	7.4200E-01
665.93	7.4161E-01
666.26	7.4646E-01
666.58	7.4952E-01
666.91	7.4483E-01
667.23	7.5260E-01
667.56	7.4872E-01
667.88	7.5169E-01
668.21	7.6015E-01
668.53	7.5265E-01
668.86	7.5854E-01
669.18	7.5682E-01
669.50	7.6838E-01
669.83	7.6596E-01
670.15	7.6718E-01
670.48	7.7159E-01
670.80	7.6774E-01
671.13	7.6449E-01
671.45	7.7280E-01
671.77	7.7620E-01
672.10	7.7012E-01
672.42	7.8533E-01
672.75	7.7736E-01
673.07	7.8620E-01
673.39	7.8157E-01
673.72	7.8600E-01
674.04	7.9204E-01
674.37	7.8757E-01
674.69	7.8310E-01
675.01	7.9877E-01
675.34	7.9679E-01
675.66	7.9976E-01
675.98	7.8791E-01
676.31	8.0263E-01
676.63	7.9945E-01
676.95	7.9868E-01
677.28	8.0556E-01
677.60	8.0779E-01
677.92	8.1287E-01
678.25	8.1440E-01
678.57	8.1526E-01
678.89	8.1111E-01
679.22	8.2228E-01
679.54	8.1503E-01
679.86	8.2767E-01
680.18	8.1891E-01
680.51	8.1957E-01
680.83	8.3868E-01
681.15	8.2583E-01
681.48	8.3545E-01
681.80	8.2953E-01
682.12	8.3128E-01
682.44	8.4053E-01
682.77	8.4449E-01
683.09	8.4998E-01
683.41	8.4839E-01
683.73	8.5549E-01
684.06	8.5071E-01
684.38	8.5121E-01
684.70	8.5838E-01
685.02	8.6377E-01
685.34	8.6633E-01
685.67	8.6238E-01
685.99	8.7658E-01
686.31	8.6697E-01
686.63	8.8284E-01
686.96	8.8432E-01
687.28	8.8965E-01
687.60	8.7781E-01
687.92	8.8635E-01
688.24	8.9249E-01
688.56	9.0205E-01
688.89	8.9253E-01
689.21	9.0357E-01
689.53	9.0265E-01
689.85	9.1347E-01
690.17	9.0558E-01
690.49	9.2636E-01
690.82	9.1638E-01
691.14	9.1965E-01
691.46	9.1899E-01
691.78	9.2936E-01
692.10	9.2317E-01
692.42	9.3609E-01
692.74	9.3661E-01
693.06	9.4222E-01
693.39	9.5365E-01
693.71	9.6703E-01
694.03	9.6252E-01
694.35	9.6046E-01
694.67	9.6335E-01
694.99	9.7819E-01
695.31	9.7667E-01
695.63	9.8077E-01
695.95	9.8212E-01
696.27	9.8533E-01
696.59	9.8758E-01
696.91	9.9714E-01
697.23	1.0002E00
697.56	1.0044E00
697.88	1.0027E00
698.20	1.0106E00
698.52	1.0149E00
698.84	1.0294E00
699.16	1.0352E00
699.48	1.0240E00
699.80	1.0474E00
700.12	1.0378E00
700.44	1.0422E00
700.76	1.0503E00
701.08	1.0656E00
701.40	1.0645E00
701.72	1.0669E00
702.04	1.0752E00
702.36	1.0739E00
702.68	1.0846E00
703.00	1.0944E00
703.32	1.0899E00
703.64	1.1053E00
703.96	1.1023E00
704.28	1.1109E00
704.60	1.1190E00
704.91	1.1250E00
705.23	1.1254E00
705.55	1.1375E00
705.87	1.1391E00
706.19	1.1381E00
706.51	1.1506E00
706.83	1.1453E00
707.15	1.1743E00
707.47	1.1645E00
707.79	1.1782E00
708.11	1.1740E00
708.43	1.1828E00
708.74	1.1832E00
709.06	1.1941E00
709.38	1.2051E00
709.70	1.2039E00
710.02	1.2104E00
710.34	1.2068E00
710.66	1.2313E00
710.98	1.2280E00
711.29	1.2322E00
711.61	1.2523E00
711.93	1.2636E00
712.25	1.2516E00
712.57	1.2689E00
712.89	1.2745E00
713.20	1.2689E00
713.52	1.2865E00
713.84	1.2901E00
714.16	1.2827E00
714.48	1.2953E00
714.80	1.3133E00
715.11	1.3116E00
715.43	1.3272E00
715.75	1.3304E00
716.07	1.3349E00
716.39	1.3241E00
716.70	1.3366E00
717.02	1.3338E00
717.34	1.3610E00
717.66	1.3646E00
717.97	1.3768E00
718.29	1.3844E00
718.61	1.3907E00
718.93	1.4073E00
719.24	1.4007E00
719.56	1.4275E00
719.88	1.4261E00
720.20	1.4499E00
720.51	1.4662E00
720.83	1.4442E00
721.15	1.4747E00
721.46	1.4738E00
721.78	1.4849E00
722.10	1.5105E00
722.42	1.5056E00
722.73	1.5251E00
723.05	1.5161E00
723.37	1.5332E00
723.68	1.5508E00
724.00	1.5383E00
724.32	1.5627E00
724.63	1.5543E00
724.95	1.5667E00
725.27	1.5784E00
725.58	1.5772E00
725.90	1.5706E00
726.22	1.5967E00
726.53	1.5788E00
726.85	1.6010E00
727.16	1.6077E00
727.48	1.6205E00
727.80	1.6176E00
728.11	1.6177E00
728.43	1.6244E00
728.74	1.6261E00
729.06	1.6502E00
729.38	1.6494E00
729.69	1.6402E00
730.01	1.6587E00
730.32	1.6582E00
730.64	1.6544E00
730.96	1.6646E00
731.27	1.6939E00
731.59	1.6685E00
731.90	1.6903E00
732.22	1.6908E00
732.53	1.6920E00
732.85	1.7124E00
733.16	1.7178E00
733.48	1.7227E00
733.80	1.6996E00
734.11	1.7326E00
734.43	1.7269E00
734.74	1.7321E00
735.06	1.7627E00
735.37	1.7438E00
735.69	1.7653E00
736.00	1.7725E00
736.32	1.7749E00
736.63	1.7817E00
736.95	1.7845E00
737.26	1.8028E00
737.58	1.7925E00
737.89	1.8144E00
738.21	1.8166E00
738.52	1.8108E00
738.83	1.8319E00
739.15	1.8212E00
739.46	1.8418E00
739.78	1.8530E00
740.09	1.8546E00
740.41	1.8537E00
740.72	1.8524E00
741.04	1.8526E00
741.35	1.8537E00
741.66	1.8464E00
741.98	1.8726E00
742.29	1.8651E00
742.61	1.8731E00
742.92	1.8663E00
743.23	1.8762E00
743.55	1.8980E00
743.86	1.8931E00
744.18	1.8769E00
744.49	1.8912E00
744.80	1.8850E00
745.12	1.8843E00
745.43	1.8872E00
745.74	1.8794E00
746.06	1.8901E00
746.37	1.8684E00
746.68	1.8765E00
747.00	1.8863E00
747.31	1.8963E00
747.62	1.8673E00
747.94	1.8974E00
748.25	1.8872E00
748.56	1.8854E00
748.88	1.8834E00
749.19	1.8936E00
749.50	1.8940E00
749.82	1.8834E00
750.13	1.8903E00
750.44	1.8843E00
750.75	1.8704E00
751.07	1.8859E00
751.38	1.8933E00
751.69	1.8920E00
752.01	1.8906E00
752.32	1.9014E00
752.63	1.8864E00
752.94	1.8982E00
753.26	1.9213E00
753.57	1.9009E00
753.88	1.9280E00
754.19	1.9160E00
754.51	1.9129E00
754.82	1.9138E00
755.13	1.9475E00
755.44	1.9310E00
755.75	1.9286E00
756.07	1.9351E00
756.38	1.9539E00
756.69	1.9489E00
757.00	1.9581E00
757.31	1.9824E00
757.63	2.0049E00
757.94	2.0005E00
758.25	1.9984E00
758.56	1.9759E00
758.87	2.0128E00
759.18	2.0335E00
759.50	2.0297E00
759.81	2.0502E00
760.12	2.0411E00
760.43	2.0560E00
760.74	2.0772E00
761.05	2.0847E00
761.36	2.1138E00
761.67	2.1383E00
761.99	2.1351E00
762.30	2.1109E00
762.61	2.1452E00
762.92	2.1643E00
763.23	2.1712E00
763.54	2.1787E00
763.85	2.2146E00
764.16	2.2179E00
764.47	2.2237E00
764.78	2.2473E00
765.10	2.2580E00
765.41	2.2713E00
765.72	2.2784E00
766.03	2.3354E00
766.34	2.3378E00
766.65	2.3543E00
766.96	2.3827E00
767.27	2.3924E00
767.58	2.3712E00
767.89	2.4122E00
768.20	2.4465E00
768.51	2.4609E00
768.82	2.4664E00
769.13	2.4856E00
769.44	2.5399E00
769.75	2.5367E00
770.06	2.5705E00
770.37	2.5396E00
770.68	2.5915E00
770.99	2.6111E00
771.30	2.6510E00
771.61	2.6946E00
771.92	2.6637E00
772.23	2.6894E00
772.54	2.7284E00
772.85	2.7304E00
773.16	2.7934E00
773.47	2.8170E00
773.78	2.7957E00
774.09	2.8714E00
774.39	2.8659E00
774.70	2.8992E00
775.01	2.9195E00
775.32	2.9204E00
775.63	2.9668E00
775.94	3.0005E00
776.25	3.0079E00
776.56	3.0462E00
776.87	3.1148E00
777.18	3.0976E00
777.48	3.1194E00
777.79	3.1618E00
778.10	3.1821E00
778.41	3.2050E00
778.72	3.2387E00
779.03	3.2486E00
779.34	3.3336E00
779.65	3.3086E00
779.95	3.3479E00
780.26	3.3856E00
780.57	3.4126E00
780.88	3.4010E00
781.19	3.4748E00
781.50	3.4802E00
781.80	3.5095E00
782.11	3.5511E00
782.42	3.6201E00
782.73	3.5468E00
783.04	3.5933E00
783.34	3.6835E00
783.65	3.7114E00
783.96	3.7372E00
784.27	3.7301E00
784.57	3.7390E00
784.88	3.8415E00
785.19	3.8430E00
785.50	3.8458E00
785.81	3.8905E00
786.11	3.8657E00
786.42	4.0062E00
786.73	4.0111E00
787.04	3.9812E00
787.34	4.0412E00
787.65	4.0335E00
787.96	4.1371E00
788.26	4.1768E00
788.57	4.2223E00
788.88	4.1408E00
789.19	4.3082E00
789.49	4.3074E00
789.80	4.3375E00
790.11	4.3775E00
790.41	4.3506E00
790.72	4.4808E00
791.03	4.4646E00
791.33	4.5029E00
791.64	4.5144E00
791.95	4.5729E00
792.25	4.6616E00
792.56	4.6905E00
792.87	4.6569E00
793.17	4.7205E00
793.48	4.7034E00
793.79	4.7805E00
794.09	4.9593E00
794.40	4.7560E00
794.70	4.7966E00
795.01	4.9014E00
795.32	4.8862E00
795.62	5.0011E00
795.93	5.0183E00
796.23	5.0567E00
796.54	5.0689E00
796.85	5.0251E00
797.15	5.1706E00
797.46	5.1865E00
797.76	5.2959E00
798.07	5.2520E00
798.37	5.3663E00
798.68	5.3926E00
798.99	5.4554E00
799.29	5.4907E00
799.60	5.5221E00
799.90	5.5408E00
800.21	5.6488E00
800.51	5.7004E00
800.82	5.6641E00
801.12	5.7865E00
801.43	5.6962E00
801.73	5.8094E00
802.04	5.8672E00
802.34	5.8884E00
802.65	6.0081E00
802.95	6.0546E00
803.26	6.1419E00
803.56	6.0301E00
803.87	6.1319E00
804.17	6.2066E00
804.48	6.1803E00
804.78	6.2233E00
805.09	6.3708E00
805.39	6.2974E00
805.70	6.3405E00
806.00	6.3772E00
806.30	6.2633E00
806.61	6.3525E00
806.91	6.3822E00
807.22	6.4188E00
807.52	6.4863E00
807.83	6.3112E00
808.13	6.3925E00
808.43	6.3339E00
808.74	6.5005E00
809.04	6.3171E00
809.35	6.3246E00
809.65	6.4495E00
809.95	6.2968E00
810.26	6.3052E00
810.56	6.1966E00
810.86	6.1776E00
811.17	5.9038E00
811.47	5.9327E00
811.77	5.8611E00
812.08	5.7807E00
812.38	5.6884E00
812.69	5.5985E00
812.99	5.5144E00
813.29	5.2866E00
813.59	5.1684E00
813.90	5.0748E00
814.20	4.9989E00
814.50	4.8901E00
814.81	4.7347E00
815.11	4.6109E00
815.41	4.4600E00
815.72	4.4247E00
816.02	4.4148E00
816.32	4.1581E00
816.62	4.1097E00
816.93	4.1118E00
817.23	4.1798E00
817.53	4.2230E00
817.84	4.2311E00
818.14	4.1490E00
818.44	4.1489E00
818.74	4.4575E00
819.04	4.3267E00
819.35	4.3047E00
819.65	4.3159E00
819.95	4.3115E00
820.25	4.4957E00
820.56	4.7026E00
820.86	4.8769E00
821.16	5.0549E00
821.46	5.0023E00
821.76	5.0339E00
822.07	5.1519E00
822.37	4.9528E00
822.67	4.8440E00
822.97	4.5196E00
823.27	4.0941E00
823.57	3.9725E00
823.88	4.0691E00
824.18	4.2065E00
824.48	4.2965E00
824.78	4.4137E00
825.08	4.7592E00
825.38	4.8948E00
825.69	4.7642E00
825.99	4.7302E00
826.29	4.8971E00
826.59	4.9549E00
826.89	4.9759E00
827.19	5.2225E00
827.49	4.9097E00
827.79	4.7255E00
828.09	4.5567E00
828.39	4.5533E00
828.70	4.5204E00
829.00	4.5687E00
829.30	4.4783E00
829.60	4.3426E00
829.90	4.4861E00
830.20	4.4718E00
830.50	4.4471E00
830.80	4.6451E00
831.10	4.4751E00
831.40	4.5585E00
831.70	4.5191E00
832.00	4.5398E00
832.30	4.4063E00
832.60	4.4579E00
832.90	4.4176E00
833.20	4.4049E00
833.50	4.4129E00
833.80	4.4680E00
834.10	4.4201E00
834.40	4.6407E00
834.70	4.6465E00
835.00	4.6445E00
835.30	4.7375E00
835.60	4.6323E00
835.90	4.6808E00
836.20	4.7940E00
836.50	4.7390E00
836.80	4.9770E00
837.10	5.5707E00
837.40	4.9421E00
837.70	5.0459E00
838.00	4.9793E00
838.30	4.9932E00
838.60	5.0678E00
838.90	5.0493E00
839.19	5.3739E00
839.49	5.1478E00
839.79	5.1150E00
840.09	5.0619E00
840.39	5.2426E00
840.69	5.2314E00
840.99	5.3534E00
841.29	5.3446E00
841.59	5.0708E00
841.88	5.0941E00
842.18	5.3337E00
842.48	5.1566E00
842.78	5.1133E00
843.08	5.2638E00
843.38	5.2950E00
843.68	5.4754E00
843.97	5.5616E00
844.27	5.2628E00
844.57	5.0743E00
844.87	5.2774E00
845.17	5.2404E00
845.47	5.3238E00
845.76	5.3937E00
846.06	5.4351E00
846.36	6.0653E00
846.66	5.3589E00
846.96	5.4296E00
847.25	5.3604E00
847.55	5.4142E00
847.85	5.4064E00
848.15	5.4322E00
848.44	5.3826E00
848.74	5.4737E00
849.04	5.3556E00
849.34	5.5719E00
849.63	5.3249E00
849.93	5.2426E00
850.23	5.1156E00
850.53	5.2502E00
850.82	5.2200E00
851.12	5.2303E00
851.42	5.2733E00
851.71	5.3535E00
852.01	5.2414E00
852.31	5.2600E00
852.61	5.2205E00
852.90	5.2504E00
853.20	5.4974E00
853.50	5.8645E00
853.79	5.4756E00
854.09	5.1613E00
854.39	5.1941E00
854.68	4.9694E00
854.98	4.7891E00
855.28	5.0679E00
855.57	5.2140E00
855.87	5.1428E00
856.17	5.1697E00
856.46	5.0998E00
856.76	5.0113E00
857.05	5.2100E00
857.35	5.2700E00
857.65	5.7707E00
857.94	5.6568E00
858.24	5.7264E00
858.53	5.4169E00
858.83	6.0644E00
859.13	5.4561E00
859.42	5.4899E00
859.72	5.7199E00
860.01	5.3874E00
860.31	5.5229E00
860.60	5.7172E00
860.90	5.6024E00
861.20	5.5903E00
861.49	5.6877E00
861.79	5.6225E00
862.08	7.1270E00
862.38	6.0300E00
862.67	5.5738E00
862.97	5.6762E00
863.26	5.4619E00
863.56	5.8264E00
863.85	6.2568E00
864.15	5.6800E00
864.44	5.7034E00
864.74	5.7995E00
865.03	6.0891E00
865.33	5.9126E00
865.62	5.7566E00
865.92	5.5903E00
866.21	5.6620E00
866.51	5.5194E00
866.80	5.9634E00
867.10	5.9924E00
867.39	5.6112E00
867.69	5.7410E00
867.98	5.2669E00
868.27	5.2706E00
868.57	5.4314E00
868.86	5.6205E00
869.16	5.3368E00
869.45	5.5111E00
869.75	5.4744E00
870.04	5.7487E00
870.33	5.7861E00
870.63	5.6909E00
870.92	5.4868E00
871.22	7.3772E00
871.51	5.9266E00
871.80	5.9347E00
872.10	5.9347E00
>>>>>End Processed Spectral Data<<<<<
