SpectraSuite Data File
++++++++++++++++++++++++++++++++++++
Date: Thu May 14 11:16:19 PDT 2015
User: schluterlab
Dark Spectrum Present: Yes
Reference Spectrum Present: No
Number of Sampled Component Spectra: 1
Spectrometers: USB2E3373
Integration Time (usec): 2300000 (USB2E3373)
Spectra Averaged: 3 (USB2E3373)
Boxcar Smoothing: 0 (USB2E3373)
Correct for Electrical Dark: No (USB2E3373)
Strobe/Lamp Enabled: No (USB2E3373)
Correct for Detector Non-linearity: No (USB2E3373)
Correct for Stray Light: No (USB2E3373)
Number of Pixels in Processed Spectrum: 2048
>>>>>Begin Processed Spectral Data<<<<<
178.53	0.0000E00
178.91	0.0000E00
179.29	0.0000E00
179.67	0.0000E00
180.04	0.0000E00
180.42	0.0000E00
180.80	0.0000E00
181.18	0.0000E00
181.56	0.0000E00
181.94	0.0000E00
182.31	0.0000E00
182.69	0.0000E00
183.07	0.0000E00
183.45	0.0000E00
183.83	0.0000E00
184.20	0.0000E00
184.58	0.0000E00
184.96	0.0000E00
185.34	0.0000E00
185.72	0.0000E00
186.09	0.0000E00
186.47	0.0000E00
186.85	0.0000E00
187.23	0.0000E00
187.61	0.0000E00
187.98	0.0000E00
188.36	0.0000E00
188.74	0.0000E00
189.12	0.0000E00
189.49	0.0000E00
189.87	0.0000E00
190.25	0.0000E00
190.63	0.0000E00
191.00	0.0000E00
191.38	0.0000E00
191.76	0.0000E00
192.14	0.0000E00
192.51	0.0000E00
192.89	0.0000E00
193.27	0.0000E00
193.65	0.0000E00
194.02	0.0000E00
194.40	0.0000E00
194.78	0.0000E00
195.15	0.0000E00
195.53	0.0000E00
195.91	0.0000E00
196.29	0.0000E00
196.66	0.0000E00
197.04	0.0000E00
197.42	0.0000E00
197.79	0.0000E00
198.17	0.0000E00
198.55	0.0000E00
198.92	0.0000E00
199.30	0.0000E00
199.68	0.0000E00
200.05	0.0000E00
200.43	0.0000E00
200.81	0.0000E00
201.18	0.0000E00
201.56	0.0000E00
201.94	0.0000E00
202.31	0.0000E00
202.69	0.0000E00
203.07	0.0000E00
203.44	0.0000E00
203.82	0.0000E00
204.19	0.0000E00
204.57	0.0000E00
204.95	0.0000E00
205.32	0.0000E00
205.70	0.0000E00
206.08	-0.0000E00
206.45	0.0000E00
206.83	0.0000E00
207.20	0.0000E00
207.58	0.0000E00
207.96	0.0000E00
208.33	0.0000E00
208.71	0.0000E00
209.08	0.0000E00
209.46	0.0000E00
209.84	-0.0000E00
210.21	0.0000E00
210.59	0.0000E00
210.96	0.0000E00
211.34	0.0000E00
211.71	0.0000E00
212.09	0.0000E00
212.46	0.0000E00
212.84	0.0000E00
213.22	0.0000E00
213.59	0.0000E00
213.97	0.0000E00
214.34	0.0000E00
214.72	0.0000E00
215.09	0.0000E00
215.47	0.0000E00
215.84	0.0000E00
216.22	0.0000E00
216.59	0.0000E00
216.97	0.0000E00
217.34	0.0000E00
217.72	0.0000E00
218.09	0.0000E00
218.47	0.0000E00
218.84	0.0000E00
219.22	0.0000E00
219.59	0.0000E00
219.97	0.0000E00
220.34	0.0000E00
220.72	0.0000E00
221.09	0.0000E00
221.47	0.0000E00
221.84	0.0000E00
222.22	0.0000E00
222.59	0.0000E00
222.97	0.0000E00
223.34	0.0000E00
223.72	0.0000E00
224.09	0.0000E00
224.46	0.0000E00
224.84	0.0000E00
225.21	0.0000E00
225.59	0.0000E00
225.96	0.0000E00
226.34	0.0000E00
226.71	0.0000E00
227.08	0.0000E00
227.46	0.0000E00
227.83	0.0000E00
228.21	0.0000E00
228.58	0.0000E00
228.95	0.0000E00
229.33	0.0000E00
229.70	0.0000E00
230.08	0.0000E00
230.45	0.0000E00
230.82	0.0000E00
231.20	0.0000E00
231.57	0.0000E00
231.95	0.0000E00
232.32	0.0000E00
232.69	0.0000E00
233.07	0.0000E00
233.44	0.0000E00
233.81	0.0000E00
234.19	0.0000E00
234.56	0.0000E00
234.93	0.0000E00
235.31	0.0000E00
235.68	0.0000E00
236.05	0.0000E00
236.43	0.0000E00
236.80	0.0000E00
237.17	0.0000E00
237.55	0.0000E00
237.92	0.0000E00
238.29	0.0000E00
238.67	0.0000E00
239.04	0.0000E00
239.41	0.0000E00
239.79	0.0000E00
240.16	0.0000E00
240.53	0.0000E00
240.91	0.0000E00
241.28	0.0000E00
241.65	0.0000E00
242.02	0.0000E00
242.40	0.0000E00
242.77	0.0000E00
243.14	0.0000E00
243.51	0.0000E00
243.89	0.0000E00
244.26	0.0000E00
244.63	0.0000E00
245.00	0.0000E00
245.38	0.0000E00
245.75	0.0000E00
246.12	0.0000E00
246.49	0.0000E00
246.87	0.0000E00
247.24	0.0000E00
247.61	0.0000E00
247.98	0.0000E00
248.36	0.0000E00
248.73	0.0000E00
249.10	0.0000E00
249.47	0.0000E00
249.84	0.0000E00
250.22	0.0000E00
250.59	0.0000E00
250.96	0.0000E00
251.33	0.0000E00
251.70	0.0000E00
252.08	0.0000E00
252.45	0.0000E00
252.82	0.0000E00
253.19	0.0000E00
253.56	0.0000E00
253.94	0.0000E00
254.31	0.0000E00
254.68	0.0000E00
255.05	0.0000E00
255.42	0.0000E00
255.79	0.0000E00
256.16	0.0000E00
256.54	0.0000E00
256.91	0.0000E00
257.28	0.0000E00
257.65	0.0000E00
258.02	0.0000E00
258.39	0.0000E00
258.76	0.0000E00
259.14	0.0000E00
259.51	0.0000E00
259.88	0.0000E00
260.25	0.0000E00
260.62	0.0000E00
260.99	0.0000E00
261.36	0.0000E00
261.73	0.0000E00
262.10	0.0000E00
262.47	0.0000E00
262.85	0.0000E00
263.22	0.0000E00
263.59	0.0000E00
263.96	0.0000E00
264.33	0.0000E00
264.70	0.0000E00
265.07	0.0000E00
265.44	0.0000E00
265.81	0.0000E00
266.18	0.0000E00
266.55	0.0000E00
266.92	0.0000E00
267.29	0.0000E00
267.66	-0.0000E00
268.03	0.0000E00
268.40	0.0000E00
268.77	0.0000E00
269.14	0.0000E00
269.51	0.0000E00
269.88	0.0000E00
270.25	0.0000E00
270.62	0.0000E00
270.99	0.0000E00
271.36	0.0000E00
271.73	0.0000E00
272.10	0.0000E00
272.47	0.0000E00
272.84	0.0000E00
273.21	0.0000E00
273.58	0.0000E00
273.95	0.0000E00
274.32	0.0000E00
274.69	0.0000E00
275.06	0.0000E00
275.43	0.0000E00
275.80	0.0000E00
276.17	0.0000E00
276.54	0.0000E00
276.91	0.0000E00
277.28	0.0000E00
277.65	0.0000E00
278.02	0.0000E00
278.39	0.0000E00
278.76	0.0000E00
279.13	0.0000E00
279.50	0.0000E00
279.87	0.0000E00
280.23	0.0000E00
280.60	0.0000E00
280.97	0.0000E00
281.34	0.0000E00
281.71	0.0000E00
282.08	0.0000E00
282.45	0.0000E00
282.82	0.0000E00
283.19	0.0000E00
283.56	0.0000E00
283.92	0.0000E00
284.29	0.0000E00
284.66	0.0000E00
285.03	0.0000E00
285.40	0.0000E00
285.77	0.0000E00
286.14	0.0000E00
286.51	0.0000E00
286.87	0.0000E00
287.24	0.0000E00
287.61	0.0000E00
287.98	0.0000E00
288.35	0.0000E00
288.72	0.0000E00
289.08	0.0000E00
289.45	0.0000E00
289.82	0.0000E00
290.19	0.0000E00
290.56	0.0000E00
290.93	0.0000E00
291.29	0.0000E00
291.66	0.0000E00
292.03	0.0000E00
292.40	0.0000E00
292.77	0.0000E00
293.13	0.0000E00
293.50	0.0000E00
293.87	0.0000E00
294.24	0.0000E00
294.60	0.0000E00
294.97	0.0000E00
295.34	0.0000E00
295.71	0.0000E00
296.08	0.0000E00
296.44	0.0000E00
296.81	0.0000E00
297.18	0.0000E00
297.55	0.0000E00
297.91	0.0000E00
298.28	0.0000E00
298.65	0.0000E00
299.02	0.0000E00
299.38	0.0000E00
299.75	0.0000E00
300.12	8.9454E-01
300.48	1.0858E00
300.85	9.0736E-01
301.22	1.7121E00
301.59	9.8369E-01
301.95	1.0786E00
302.32	9.2235E-01
302.69	1.1103E00
303.05	1.0723E00
303.42	1.7260E00
303.79	1.6985E00
304.15	1.0848E00
304.52	1.4798E00
304.89	1.6881E00
305.25	9.5972E-01
305.62	1.3479E00
305.99	1.5057E00
306.35	1.2879E00
306.72	1.6479E00
307.09	1.8609E00
307.45	1.8900E00
307.82	2.1636E00
308.19	7.9529E00
308.55	2.0108E00
308.92	1.6801E00
309.29	1.6114E00
309.65	1.3841E00
310.02	2.3551E00
310.38	1.8154E00
310.75	1.4225E00
311.12	2.0985E00
311.48	1.6649E00
311.85	2.2295E00
312.22	1.5489E00
312.58	2.8845E00
312.95	1.2690E00
313.31	1.5117E00
313.68	2.0524E00
314.05	1.7951E00
314.41	2.0771E00
314.78	1.6739E00
315.14	4.2068E00
315.51	1.9252E00
315.87	1.3768E00
316.24	3.3082E00
316.61	1.9702E00
316.97	1.9006E00
317.34	1.8360E00
317.70	1.4332E00
318.07	1.6587E00
318.43	1.6730E00
318.80	2.6795E00
319.16	1.7690E00
319.53	4.6376E01
319.89	2.4622E00
320.26	1.8851E00
320.62	2.5042E00
320.99	1.7779E00
321.35	1.9361E00
321.72	2.5696E00
322.08	1.8225E00
322.45	3.1000E00
322.81	2.3803E00
323.18	1.4005E00
323.54	1.4509E00
323.91	3.1964E00
324.27	2.1479E00
324.64	6.4892E00
325.00	1.4911E00
325.37	5.8325E00
325.73	1.6010E00
326.10	5.9109E00
326.46	1.6188E00
326.83	1.4913E00
327.19	1.6345E00
327.56	1.5923E00
327.92	2.3624E00
328.29	3.0292E00
328.65	2.7341E00
329.01	3.6538E00
329.38	1.5688E00
329.74	1.6661E00
330.11	2.1147E00
330.47	2.5013E00
330.84	1.8970E00
331.20	1.8320E00
331.56	2.1964E00
331.93	1.7699E00
332.29	2.1067E00
332.66	2.1876E00
333.02	1.3636E00
333.38	1.6013E00
333.75	1.6456E00
334.11	1.6932E00
334.48	2.4578E00
334.84	2.0731E00
335.20	1.6819E00
335.57	1.9201E00
335.93	2.6803E00
336.29	2.2310E00
336.66	1.9797E00
337.02	2.0549E00
337.38	1.9079E00
337.75	1.5252E00
338.11	1.1875E00
338.47	2.0569E00
338.84	2.6806E00
339.20	4.8865E00
339.56	1.8577E00
339.93	1.8664E00
340.29	1.4688E00
340.65	1.7078E00
341.02	1.7728E00
341.38	1.6774E00
341.74	1.5056E00
342.11	1.5173E00
342.47	2.0962E00
342.83	2.1961E00
343.20	1.4398E00
343.56	2.4207E00
343.92	1.7257E00
344.28	1.9099E00
344.65	1.8686E00
345.01	1.9472E00
345.37	1.6468E00
345.73	1.6632E00
346.10	2.2201E00
346.46	1.7915E00
346.82	1.3479E00
347.19	3.0430E00
347.55	1.6114E00
347.91	3.0947E00
348.27	1.9865E00
348.63	1.6537E00
349.00	1.6230E00
349.36	1.4887E00
349.72	1.7323E00
350.08	2.1926E00
350.45	2.2063E00
350.81	2.1503E00
351.17	1.5026E00
351.53	2.1040E00
351.89	1.9371E00
352.26	1.7503E00
352.62	1.9007E00
352.98	1.2828E00
353.34	2.2145E00
353.70	1.6930E00
354.07	1.2975E00
354.43	1.5573E00
354.79	1.3562E00
355.15	1.3878E00
355.51	1.6095E00
355.87	1.0531E00
356.24	1.5879E00
356.60	1.7047E00
356.96	1.5022E00
357.32	1.8045E00
357.68	1.2594E00
358.04	1.4977E00
358.40	1.5362E00
358.77	1.2839E00
359.13	1.6950E00
359.49	1.6709E00
359.85	1.5487E00
360.21	1.4450E00
360.57	1.3341E00
360.93	1.2607E00
361.29	1.5128E00
361.66	2.3135E00
362.02	1.4621E00
362.38	1.9702E00
362.74	1.3055E00
363.10	1.5366E00
363.46	1.3354E00
363.82	1.3937E00
364.18	1.5333E00
364.54	1.4275E00
364.90	1.1192E00
365.26	1.5106E00
365.62	1.3898E00
365.98	1.9339E00
366.35	1.7083E00
366.71	1.4400E00
367.07	1.4576E00
367.43	1.4308E00
367.79	1.3666E00
368.15	1.1461E00
368.51	1.4187E00
368.87	1.2430E00
369.23	1.3549E00
369.59	1.5776E00
369.95	1.5713E00
370.31	1.2232E00
370.67	1.3274E00
371.03	1.5297E00
371.39	1.4235E00
371.75	1.2305E00
372.11	1.4723E00
372.47	1.2139E00
372.83	1.4807E00
373.19	1.3226E00
373.55	1.4705E00
373.91	1.4657E00
374.27	1.6207E00
374.63	1.3717E00
374.99	1.3546E00
375.35	1.4290E00
375.71	1.2512E00
376.07	1.3906E00
376.42	1.2731E00
376.78	1.3991E00
377.14	1.2969E00
377.50	1.1646E00
377.86	1.3611E00
378.22	1.2082E00
378.58	1.3170E00
378.94	1.0641E00
379.30	1.1368E00
379.66	1.2657E00
380.02	1.1681E00
380.38	1.1886E00
380.74	1.3129E00
381.09	1.0977E00
381.45	1.1621E00
381.81	1.0008E00
382.17	1.3144E00
382.53	1.1686E00
382.89	1.1336E00
383.25	1.2008E00
383.61	1.1472E00
383.97	1.1488E00
384.32	1.0947E00
384.68	1.2784E00
385.04	1.0846E00
385.40	1.0795E00
385.76	1.2251E00
386.12	1.0716E00
386.48	1.1340E00
386.83	1.2132E00
387.19	1.0660E00
387.55	1.1343E00
387.91	1.0333E00
388.27	1.1255E00
388.62	1.2175E00
388.98	1.0254E00
389.34	1.2063E00
389.70	1.0327E00
390.06	1.0002E00
390.42	1.2139E00
390.77	1.0922E00
391.13	1.0566E00
391.49	1.1823E00
391.85	1.2746E00
392.20	1.2190E00
392.56	1.1481E00
392.92	1.0862E00
393.28	1.0771E00
393.64	1.0869E00
393.99	1.1337E00
394.35	1.0878E00
394.71	1.0964E00
395.07	1.0117E00
395.42	1.1091E00
395.78	1.1552E00
396.14	1.0985E00
396.50	1.0569E00
396.85	1.1739E00
397.21	1.0238E00
397.57	1.1189E00
397.92	1.0942E00
398.28	1.0655E00
398.64	1.1244E00
399.00	1.0241E00
399.35	9.9504E-01
399.71	1.0281E00
400.07	1.0801E00
400.42	1.0221E00
400.78	1.0353E00
401.14	9.6956E-01
401.49	1.0296E00
401.85	9.6333E-01
402.21	1.0425E00
402.57	1.0428E00
402.92	1.0133E00
403.28	9.8123E-01
403.63	9.7790E-01
403.99	9.7050E-01
404.35	9.7890E-01
404.70	1.0281E00
405.06	9.3105E-01
405.42	1.0336E00
405.77	9.5393E-01
406.13	9.4247E-01
406.49	8.9618E-01
406.84	9.6935E-01
407.20	9.2702E-01
407.55	1.0159E00
407.91	1.0137E00
408.27	9.2287E-01
408.62	9.0689E-01
408.98	9.1462E-01
409.34	9.0565E-01
409.69	9.5919E-01
410.05	9.2704E-01
410.40	9.1744E-01
410.76	8.7812E-01
411.11	8.3546E-01
411.47	9.1883E-01
411.83	8.5243E-01
412.18	8.5773E-01
412.54	9.1942E-01
412.89	9.1915E-01
413.25	8.5162E-01
413.60	8.8013E-01
413.96	9.4322E-01
414.31	9.0566E-01
414.67	9.5855E-01
415.03	9.6117E-01
415.38	9.2102E-01
415.74	9.5325E-01
416.09	8.8044E-01
416.45	9.4467E-01
416.80	8.8335E-01
417.16	9.5182E-01
417.51	8.9101E-01
417.87	8.7863E-01
418.22	8.5983E-01
418.58	9.2610E-01
418.93	8.3202E-01
419.29	9.0560E-01
419.64	8.7360E-01
420.00	8.3657E-01
420.35	8.1011E-01
420.71	8.5971E-01
421.06	8.4912E-01
421.42	8.5786E-01
421.77	8.6171E-01
422.12	8.6036E-01
422.48	8.3414E-01
422.83	8.8105E-01
423.19	8.4451E-01
423.54	8.4453E-01
423.90	8.4558E-01
424.25	8.0615E-01
424.61	8.4942E-01
424.96	8.3387E-01
425.31	8.0305E-01
425.67	8.0354E-01
426.02	8.1606E-01
426.38	8.0952E-01
426.73	7.9343E-01
427.09	8.1265E-01
427.44	7.4939E-01
427.79	8.0527E-01
428.15	7.8833E-01
428.50	8.0302E-01
428.85	8.2860E-01
429.21	7.6659E-01
429.56	7.4120E-01
429.92	7.6163E-01
430.27	7.5143E-01
430.62	7.8527E-01
430.98	8.0377E-01
431.33	7.7133E-01
431.68	7.7057E-01
432.04	7.3895E-01
432.39	7.5661E-01
432.74	8.0523E-01
433.10	7.3067E-01
433.45	7.7141E-01
433.80	7.7558E-01
434.16	7.7935E-01
434.51	7.4651E-01
434.86	7.8261E-01
435.22	7.3830E-01
435.57	8.1356E-01
435.92	7.5811E-01
436.28	7.8510E-01
436.63	7.3258E-01
436.98	7.4031E-01
437.34	7.5732E-01
437.69	7.3060E-01
438.04	7.0820E-01
438.39	7.6307E-01
438.75	7.3353E-01
439.10	7.0544E-01
439.45	7.4623E-01
439.81	7.2456E-01
440.16	7.0659E-01
440.51	7.2603E-01
440.86	7.2389E-01
441.22	7.1717E-01
441.57	7.3147E-01
441.92	7.1080E-01
442.27	7.4584E-01
442.63	7.1746E-01
442.98	7.6281E-01
443.33	7.4435E-01
443.68	7.1842E-01
444.03	6.6766E-01
444.39	6.6898E-01
444.74	7.2013E-01
445.09	7.3381E-01
445.44	7.2605E-01
445.79	6.5689E-01
446.15	7.2259E-01
446.50	7.0862E-01
446.85	6.7543E-01
447.20	6.6620E-01
447.55	6.8612E-01
447.91	6.9723E-01
448.26	6.9372E-01
448.61	7.0633E-01
448.96	6.8394E-01
449.31	6.8149E-01
449.66	7.1751E-01
450.02	6.7780E-01
450.37	7.0903E-01
450.72	6.7707E-01
451.07	7.1588E-01
451.42	7.1797E-01
451.77	6.9471E-01
452.12	6.9341E-01
452.47	7.3249E-01
452.83	6.5072E-01
453.18	7.0014E-01
453.53	6.8218E-01
453.88	6.4616E-01
454.23	6.5255E-01
454.58	6.5016E-01
454.93	6.8090E-01
455.28	6.7312E-01
455.63	6.7045E-01
455.98	6.5608E-01
456.34	6.8348E-01
456.69	6.7462E-01
457.04	6.5711E-01
457.39	6.3157E-01
457.74	6.2236E-01
458.09	6.4633E-01
458.44	6.2819E-01
458.79	6.0079E-01
459.14	6.2888E-01
459.49	6.4608E-01
459.84	6.2322E-01
460.19	6.5817E-01
460.54	6.4758E-01
460.89	6.0002E-01
461.24	6.6066E-01
461.59	6.3306E-01
461.94	6.5252E-01
462.29	6.0011E-01
462.64	6.4877E-01
462.99	6.5531E-01
463.34	6.6026E-01
463.69	6.2673E-01
464.04	5.8980E-01
464.39	5.9980E-01
464.74	6.1698E-01
465.09	6.3826E-01
465.44	6.0053E-01
465.79	6.2613E-01
466.14	6.2861E-01
466.49	6.0797E-01
466.84	6.1436E-01
467.19	6.1798E-01
467.54	6.4006E-01
467.89	6.0265E-01
468.24	5.7761E-01
468.59	5.8416E-01
468.94	5.7723E-01
469.29	5.8023E-01
469.64	5.9174E-01
469.99	5.7966E-01
470.34	5.5645E-01
470.68	5.9479E-01
471.03	5.7493E-01
471.38	5.5918E-01
471.73	5.6028E-01
472.08	5.3949E-01
472.43	5.2323E-01
472.78	5.4373E-01
473.13	5.4654E-01
473.48	5.4396E-01
473.83	5.2337E-01
474.17	5.3230E-01
474.52	5.3011E-01
474.87	5.0569E-01
475.22	5.1401E-01
475.57	4.8859E-01
475.92	4.7167E-01
476.27	5.0658E-01
476.61	4.8061E-01
476.96	4.7079E-01
477.31	4.5262E-01
477.66	4.6050E-01
478.01	4.5699E-01
478.36	4.5725E-01
478.70	4.4186E-01
479.05	4.5238E-01
479.40	4.2973E-01
479.75	4.3319E-01
480.10	4.3319E-01
480.45	4.1897E-01
480.79	4.2440E-01
481.14	4.3311E-01
481.49	4.1585E-01
481.84	4.0607E-01
482.19	4.0281E-01
482.53	4.0670E-01
482.88	3.9971E-01
483.23	3.9241E-01
483.58	3.9159E-01
483.92	3.9938E-01
484.27	3.8217E-01
484.62	3.8352E-01
484.97	3.7285E-01
485.31	3.7307E-01
485.66	3.7833E-01
486.01	3.8128E-01
486.36	3.6445E-01
486.70	3.6783E-01
487.05	3.6661E-01
487.40	3.6469E-01
487.75	3.5589E-01
488.09	3.5968E-01
488.44	3.6207E-01
488.79	3.6178E-01
489.13	3.5638E-01
489.48	3.5915E-01
489.83	3.5731E-01
490.17	3.4681E-01
490.52	3.4716E-01
490.87	3.4835E-01
491.22	3.4865E-01
491.56	3.4913E-01
491.91	3.5426E-01
492.26	3.4870E-01
492.60	3.4868E-01
492.95	3.5182E-01
493.30	3.5043E-01
493.64	3.4518E-01
493.99	3.4831E-01
494.34	3.4802E-01
494.68	3.4144E-01
495.03	3.5230E-01
495.37	3.4429E-01
495.72	3.5299E-01
496.07	3.4429E-01
496.41	3.4368E-01
496.76	3.4340E-01
497.11	3.4814E-01
497.45	3.4561E-01
497.80	3.4672E-01
498.14	3.4430E-01
498.49	3.4374E-01
498.84	3.4556E-01
499.18	3.4035E-01
499.53	3.4335E-01
499.87	3.4484E-01
500.22	3.4733E-01
500.56	3.4661E-01
500.91	3.4465E-01
501.26	3.4501E-01
501.60	3.4231E-01
501.95	3.4339E-01
502.29	3.4268E-01
502.64	3.3976E-01
502.98	3.4595E-01
503.33	3.3914E-01
503.67	3.4245E-01
504.02	3.4153E-01
504.36	3.3905E-01
504.71	3.4434E-01
505.06	3.4325E-01
505.40	3.3867E-01
505.75	3.3942E-01
506.09	3.4127E-01
506.44	3.3858E-01
506.78	3.3805E-01
507.13	3.3856E-01
507.47	3.3656E-01
507.82	3.3543E-01
508.16	3.3758E-01
508.51	3.3445E-01
508.85	3.3212E-01
509.19	3.3164E-01
509.54	3.3611E-01
509.88	3.3798E-01
510.23	3.3252E-01
510.57	3.3305E-01
510.92	3.3331E-01
511.26	3.3058E-01
511.61	3.3169E-01
511.95	3.3018E-01
512.30	3.2821E-01
512.64	3.2893E-01
512.98	3.2866E-01
513.33	3.2771E-01
513.67	3.3161E-01
514.02	3.2954E-01
514.36	3.2624E-01
514.70	3.2985E-01
515.05	3.2333E-01
515.39	3.2597E-01
515.74	3.2407E-01
516.08	3.2670E-01
516.42	3.2287E-01
516.77	3.2390E-01
517.11	3.2383E-01
517.46	3.2294E-01
517.80	3.2393E-01
518.14	3.2370E-01
518.49	3.2049E-01
518.83	3.2415E-01
519.17	3.2707E-01
519.52	3.2215E-01
519.86	3.2128E-01
520.20	3.1980E-01
520.55	3.1912E-01
520.89	3.1950E-01
521.23	3.2040E-01
521.58	3.2317E-01
521.92	3.2240E-01
522.26	3.2574E-01
522.61	3.1919E-01
522.95	3.2198E-01
523.29	3.1924E-01
523.64	3.2202E-01
523.98	3.2220E-01
524.32	3.2185E-01
524.66	3.2127E-01
525.01	3.2232E-01
525.35	3.2339E-01
525.69	3.2555E-01
526.04	3.2616E-01
526.38	3.2141E-01
526.72	3.2724E-01
527.06	3.2578E-01
527.41	3.2819E-01
527.75	3.2756E-01
528.09	3.2572E-01
528.43	3.2929E-01
528.78	3.2721E-01
529.12	3.3239E-01
529.46	3.3163E-01
529.80	3.3321E-01
530.15	3.3385E-01
530.49	3.3588E-01
530.83	3.3534E-01
531.17	3.3540E-01
531.51	3.3814E-01
531.86	3.3749E-01
532.20	3.4325E-01
532.54	3.3832E-01
532.88	3.4171E-01
533.22	3.4432E-01
533.57	3.4605E-01
533.91	3.4419E-01
534.25	3.4618E-01
534.59	3.4704E-01
534.93	3.4386E-01
535.27	3.4761E-01
535.62	3.5146E-01
535.96	3.5189E-01
536.30	3.5029E-01
536.64	3.5485E-01
536.98	3.5648E-01
537.32	3.5485E-01
537.66	3.5398E-01
538.01	3.6103E-01
538.35	3.6059E-01
538.69	3.5718E-01
539.03	3.6365E-01
539.37	3.5954E-01
539.71	3.6500E-01
540.05	3.6101E-01
540.39	3.6452E-01
540.73	3.6663E-01
541.07	3.6643E-01
541.42	3.6709E-01
541.76	3.6766E-01
542.10	3.6877E-01
542.44	3.7132E-01
542.78	3.7134E-01
543.12	3.6831E-01
543.46	3.7639E-01
543.80	3.7159E-01
544.14	3.7046E-01
544.48	3.6955E-01
544.82	3.7425E-01
545.16	3.7192E-01
545.50	3.7387E-01
545.84	3.7992E-01
546.18	3.7313E-01
546.52	3.7835E-01
546.86	3.7816E-01
547.20	3.7974E-01
547.54	3.8530E-01
547.88	3.7963E-01
548.22	3.7919E-01
548.56	3.8212E-01
548.90	3.7941E-01
549.24	3.8129E-01
549.58	3.8464E-01
549.92	3.8229E-01
550.26	3.8658E-01
550.60	3.8464E-01
550.94	3.7904E-01
551.28	3.8733E-01
551.62	3.8207E-01
551.96	3.8658E-01
552.30	3.9034E-01
552.64	3.8879E-01
552.98	3.8686E-01
553.32	3.8567E-01
553.66	3.8536E-01
554.00	3.8477E-01
554.34	3.8805E-01
554.68	3.9020E-01
555.02	3.8714E-01
555.36	3.9127E-01
555.69	3.8997E-01
556.03	3.8838E-01
556.37	3.8816E-01
556.71	3.8777E-01
557.05	3.8873E-01
557.39	3.8940E-01
557.73	3.9020E-01
558.07	3.8978E-01
558.41	3.8622E-01
558.75	3.9044E-01
559.08	3.8893E-01
559.42	3.8422E-01
559.76	3.9190E-01
560.10	3.9128E-01
560.44	3.9246E-01
560.78	3.8835E-01
561.12	3.8821E-01
561.45	3.8961E-01
561.79	3.9165E-01
562.13	3.9117E-01
562.47	3.9085E-01
562.81	3.9369E-01
563.15	3.9311E-01
563.48	3.9138E-01
563.82	3.8470E-01
564.16	3.9257E-01
564.50	3.9042E-01
564.84	3.9377E-01
565.17	3.9198E-01
565.51	3.8823E-01
565.85	3.9251E-01
566.19	3.8975E-01
566.52	3.9497E-01
566.86	3.9020E-01
567.20	3.9320E-01
567.54	3.9513E-01
567.88	3.9380E-01
568.21	3.9714E-01
568.55	3.9513E-01
568.89	3.9315E-01
569.23	3.9371E-01
569.56	3.9344E-01
569.90	3.9670E-01
570.24	3.9873E-01
570.57	3.9896E-01
570.91	3.9729E-01
571.25	3.9651E-01
571.59	3.9549E-01
571.92	3.9658E-01
572.26	3.9884E-01
572.60	4.0065E-01
572.93	4.0098E-01
573.27	4.0313E-01
573.61	4.0413E-01
573.95	3.9922E-01
574.28	4.0459E-01
574.62	4.0403E-01
574.96	4.1030E-01
575.29	4.0759E-01
575.63	4.1251E-01
575.97	4.0986E-01
576.30	4.1667E-01
576.64	4.1185E-01
576.98	4.1551E-01
577.31	4.1355E-01
577.65	4.1817E-01
577.98	4.1649E-01
578.32	4.2126E-01
578.66	4.2369E-01
578.99	4.2102E-01
579.33	4.2748E-01
579.67	4.2408E-01
580.00	4.2869E-01
580.34	4.2490E-01
580.67	4.3001E-01
581.01	4.3086E-01
581.35	4.3239E-01
581.68	4.3463E-01
582.02	4.3569E-01
582.35	4.3680E-01
582.69	4.3494E-01
583.02	4.4345E-01
583.36	4.4175E-01
583.70	4.3946E-01
584.03	4.4336E-01
584.37	4.4160E-01
584.70	4.4992E-01
585.04	4.4705E-01
585.37	4.4530E-01
585.71	4.5370E-01
586.04	4.4882E-01
586.38	4.5223E-01
586.72	4.5714E-01
587.05	4.5522E-01
587.39	4.5923E-01
587.72	4.5479E-01
588.06	4.6292E-01
588.39	4.5979E-01
588.73	4.6283E-01
589.06	4.6255E-01
589.40	4.6740E-01
589.73	4.6776E-01
590.07	4.7098E-01
590.40	4.7149E-01
590.73	4.7748E-01
591.07	4.7027E-01
591.40	4.7840E-01
591.74	4.7575E-01
592.07	4.8051E-01
592.41	4.8017E-01
592.74	4.8040E-01
593.08	4.7660E-01
593.41	4.7894E-01
593.75	4.8161E-01
594.08	4.8337E-01
594.41	4.8353E-01
594.75	4.8731E-01
595.08	4.8487E-01
595.42	4.8083E-01
595.75	4.8393E-01
596.09	4.8856E-01
596.42	4.8736E-01
596.75	4.8908E-01
597.09	4.9372E-01
597.42	4.8700E-01
597.75	4.9227E-01
598.09	4.9123E-01
598.42	4.9559E-01
598.76	4.9551E-01
599.09	4.9640E-01
599.42	5.0143E-01
599.76	4.9717E-01
600.09	4.9994E-01
600.42	5.0043E-01
600.76	4.9080E-01
601.09	4.9747E-01
601.42	5.0621E-01
601.76	4.9830E-01
602.09	4.9990E-01
602.42	5.0276E-01
602.76	5.0259E-01
603.09	5.0128E-01
603.42	5.0327E-01
603.76	4.9869E-01
604.09	5.0014E-01
604.42	5.0393E-01
604.76	5.0010E-01
605.09	5.0725E-01
605.42	5.0436E-01
605.75	5.0593E-01
606.09	5.0862E-01
606.42	5.0551E-01
606.75	5.0721E-01
607.09	5.1055E-01
607.42	5.0584E-01
607.75	5.1041E-01
608.08	5.1215E-01
608.42	5.1235E-01
608.75	5.0927E-01
609.08	5.1366E-01
609.41	5.1419E-01
609.75	5.1517E-01
610.08	5.0844E-01
610.41	5.1407E-01
610.74	5.1529E-01
611.07	5.1615E-01
611.41	5.0990E-01
611.74	5.1590E-01
612.07	5.1438E-01
612.40	5.1183E-01
612.73	5.1339E-01
613.07	5.1860E-01
613.40	5.1382E-01
613.73	5.1136E-01
614.06	5.1583E-01
614.39	5.1720E-01
614.72	5.1984E-01
615.06	5.1845E-01
615.39	5.2695E-01
615.72	5.1750E-01
616.05	5.2817E-01
616.38	5.2476E-01
616.71	5.2715E-01
617.05	5.1760E-01
617.38	5.2275E-01
617.71	5.1882E-01
618.04	5.2660E-01
618.37	5.1791E-01
618.70	5.2147E-01
619.03	5.2310E-01
619.36	5.1636E-01
619.69	5.2408E-01
620.03	5.2008E-01
620.36	5.1969E-01
620.69	5.1940E-01
621.02	5.2340E-01
621.35	5.1770E-01
621.68	5.1129E-01
622.01	5.1700E-01
622.34	5.1914E-01
622.67	5.1832E-01
623.00	5.2211E-01
623.33	5.1863E-01
623.66	5.1977E-01
623.99	5.2415E-01
624.32	5.1684E-01
624.65	5.1826E-01
624.99	5.1927E-01
625.32	5.2143E-01
625.65	5.2086E-01
625.98	5.1274E-01
626.31	5.1867E-01
626.64	5.2199E-01
626.97	5.1693E-01
627.30	5.1587E-01
627.63	5.1976E-01
627.96	5.1524E-01
628.29	5.1226E-01
628.62	5.1931E-01
628.95	5.2019E-01
629.28	5.1204E-01
629.61	5.2399E-01
629.94	5.2051E-01
630.26	5.2302E-01
630.59	5.2332E-01
630.92	5.1831E-01
631.25	5.2068E-01
631.58	5.2648E-01
631.91	5.2591E-01
632.24	5.3003E-01
632.57	5.2747E-01
632.90	5.2564E-01
633.23	5.2651E-01
633.56	5.3049E-01
633.89	5.3046E-01
634.22	5.3168E-01
634.55	5.3482E-01
634.88	5.3906E-01
635.20	5.3967E-01
635.53	5.4314E-01
635.86	5.4283E-01
636.19	5.4876E-01
636.52	5.4876E-01
636.85	5.4919E-01
637.18	5.5555E-01
637.51	5.5230E-01
637.83	5.5896E-01
638.16	5.5543E-01
638.49	5.6434E-01
638.82	5.6354E-01
639.15	5.6513E-01
639.48	5.6776E-01
639.81	5.7585E-01
640.13	5.6979E-01
640.46	5.7670E-01
640.79	5.7572E-01
641.12	5.8463E-01
641.45	5.8090E-01
641.77	5.8270E-01
642.10	5.9172E-01
642.43	5.9195E-01
642.76	5.9695E-01
643.09	5.9172E-01
643.41	5.9811E-01
643.74	6.0077E-01
644.07	5.9672E-01
644.40	6.0287E-01
644.73	6.1156E-01
645.05	6.1195E-01
645.38	6.1388E-01
645.71	6.1679E-01
646.04	6.1919E-01
646.36	6.1592E-01
646.69	6.2881E-01
647.02	6.2041E-01
647.35	6.2548E-01
647.67	6.3404E-01
648.00	6.2948E-01
648.33	6.4020E-01
648.66	6.3151E-01
648.98	6.4262E-01
649.31	6.3742E-01
649.64	6.4017E-01
649.96	6.4899E-01
650.29	6.5119E-01
650.62	6.5260E-01
650.94	6.5607E-01
651.27	6.5355E-01
651.60	6.5531E-01
651.92	6.6539E-01
652.25	6.6396E-01
652.58	6.6442E-01
652.90	6.6924E-01
653.23	6.6687E-01
653.56	6.6972E-01
653.88	6.7576E-01
654.21	6.7473E-01
654.54	6.7976E-01
654.86	6.8670E-01
655.19	6.7885E-01
655.52	6.9143E-01
655.84	6.8390E-01
656.17	6.8731E-01
656.49	6.9672E-01
656.82	6.8429E-01
657.15	6.9826E-01
657.47	6.9707E-01
657.80	6.9935E-01
658.13	6.9989E-01
658.45	7.0383E-01
658.78	7.0871E-01
659.10	7.0998E-01
659.43	7.1186E-01
659.75	7.0912E-01
660.08	7.0576E-01
660.41	7.1613E-01
660.73	7.1854E-01
661.06	7.2187E-01
661.38	7.1962E-01
661.71	7.2132E-01
662.03	7.1494E-01
662.36	7.2867E-01
662.68	7.2871E-01
663.01	7.2030E-01
663.33	7.3211E-01
663.66	7.3211E-01
663.98	7.3799E-01
664.31	7.3143E-01
664.63	7.4638E-01
664.96	7.3484E-01
665.28	7.4333E-01
665.61	7.4124E-01
665.93	7.4110E-01
666.26	7.4588E-01
666.58	7.4887E-01
666.91	7.4394E-01
667.23	7.5228E-01
667.56	7.4853E-01
667.88	7.5085E-01
668.21	7.5956E-01
668.53	7.5181E-01
668.86	7.5867E-01
669.18	7.5643E-01
669.50	7.6759E-01
669.83	7.6531E-01
670.15	7.6652E-01
670.48	7.7159E-01
670.80	7.6741E-01
671.13	7.6416E-01
671.45	7.7220E-01
671.77	7.7540E-01
672.10	7.6939E-01
672.42	7.8432E-01
672.75	7.7683E-01
673.07	7.8532E-01
673.39	7.8076E-01
673.72	7.8573E-01
674.04	7.9122E-01
674.37	7.8736E-01
674.69	7.8290E-01
675.01	7.9850E-01
675.34	7.9611E-01
675.66	7.9900E-01
675.98	7.8743E-01
676.31	8.0173E-01
676.63	7.9904E-01
676.95	7.9840E-01
677.28	8.0521E-01
677.60	8.0759E-01
677.92	8.1218E-01
678.25	8.1398E-01
678.57	8.1463E-01
678.89	8.1076E-01
679.22	8.2143E-01
679.54	8.1496E-01
679.86	8.2738E-01
680.18	8.1884E-01
680.51	8.1872E-01
680.83	8.3854E-01
681.15	8.2555E-01
681.48	8.3531E-01
681.80	8.2904E-01
682.12	8.3064E-01
682.44	8.3995E-01
682.77	8.4377E-01
683.09	8.4947E-01
683.41	8.4788E-01
683.73	8.5497E-01
684.06	8.5013E-01
684.38	8.5011E-01
684.70	8.5779E-01
685.02	8.6340E-01
685.34	8.6640E-01
685.67	8.6194E-01
685.99	8.7658E-01
686.31	8.6779E-01
686.63	8.8246E-01
686.96	8.8470E-01
687.28	8.8942E-01
687.60	8.7667E-01
687.92	8.8604E-01
688.24	8.9234E-01
688.56	9.0143E-01
688.89	8.9268E-01
689.21	9.0342E-01
689.53	9.0242E-01
689.85	9.1277E-01
690.17	9.0535E-01
690.49	9.2588E-01
690.82	9.1607E-01
691.14	9.1973E-01
691.46	9.1859E-01
691.78	9.2928E-01
692.10	9.2325E-01
692.42	9.3545E-01
692.74	9.3621E-01
693.06	9.4157E-01
693.39	9.5357E-01
693.71	9.6670E-01
694.03	9.6194E-01
694.35	9.6071E-01
694.67	9.6335E-01
694.99	9.7752E-01
695.31	9.7566E-01
695.63	9.8027E-01
695.95	9.8186E-01
696.27	9.8516E-01
696.59	9.8775E-01
696.91	9.9620E-01
697.23	9.9990E-01
697.56	1.0040E00
697.88	1.0022E00
698.20	1.0102E00
698.52	1.0147E00
698.84	1.0286E00
699.16	1.0354E00
699.48	1.0236E00
699.80	1.0467E00
700.12	1.0379E00
700.44	1.0415E00
700.76	1.0497E00
701.08	1.0651E00
701.40	1.0647E00
701.72	1.0665E00
702.04	1.0747E00
702.36	1.0741E00
702.68	1.0843E00
703.00	1.0943E00
703.32	1.0893E00
703.64	1.1042E00
703.96	1.1021E00
704.28	1.1111E00
704.60	1.1174E00
704.91	1.1247E00
705.23	1.1243E00
705.55	1.1364E00
705.87	1.1392E00
706.19	1.1374E00
706.51	1.1498E00
706.83	1.1446E00
707.15	1.1731E00
707.47	1.1639E00
707.79	1.1786E00
708.11	1.1741E00
708.43	1.1826E00
708.74	1.1821E00
709.06	1.1939E00
709.38	1.2054E00
709.70	1.2034E00
710.02	1.2109E00
710.34	1.2059E00
710.66	1.2309E00
710.98	1.2277E00
711.29	1.2327E00
711.61	1.2524E00
711.93	1.2636E00
712.25	1.2513E00
712.57	1.2689E00
712.89	1.2741E00
713.20	1.2677E00
713.52	1.2853E00
713.84	1.2894E00
714.16	1.2825E00
714.48	1.2938E00
714.80	1.3132E00
715.11	1.3114E00
715.43	1.3265E00
715.75	1.3311E00
716.07	1.3345E00
716.39	1.3237E00
716.70	1.3358E00
717.02	1.3324E00
717.34	1.3606E00
717.66	1.3651E00
717.97	1.3778E00
718.29	1.3841E00
718.61	1.3904E00
718.93	1.4072E00
719.24	1.4006E00
719.56	1.4272E00
719.88	1.4259E00
720.20	1.4501E00
720.51	1.4652E00
720.83	1.4436E00
721.15	1.4738E00
721.46	1.4743E00
721.78	1.4840E00
722.10	1.5106E00
722.42	1.5049E00
722.73	1.5252E00
723.05	1.5160E00
723.37	1.5327E00
723.68	1.5507E00
724.00	1.5409E00
724.32	1.5629E00
724.63	1.5536E00
724.95	1.5672E00
725.27	1.5784E00
725.58	1.5764E00
725.90	1.5712E00
726.22	1.5967E00
726.53	1.5782E00
726.85	1.6020E00
727.16	1.6087E00
727.48	1.6197E00
727.80	1.6184E00
728.11	1.6180E00
728.43	1.6250E00
728.74	1.6270E00
729.06	1.6496E00
729.38	1.6497E00
729.69	1.6403E00
730.01	1.6572E00
730.32	1.6573E00
730.64	1.6544E00
730.96	1.6646E00
731.27	1.6942E00
731.59	1.6674E00
731.90	1.6900E00
732.22	1.6898E00
732.53	1.6919E00
732.85	1.7128E00
733.16	1.7178E00
733.48	1.7209E00
733.80	1.6994E00
734.11	1.7326E00
734.43	1.7269E00
734.74	1.7305E00
735.06	1.7621E00
735.37	1.7433E00
735.69	1.7628E00
736.00	1.7724E00
736.32	1.7758E00
736.63	1.7813E00
736.95	1.7842E00
737.26	1.8017E00
737.58	1.7934E00
737.89	1.8146E00
738.21	1.8172E00
738.52	1.8108E00
738.83	1.8311E00
739.15	1.8215E00
739.46	1.8411E00
739.78	1.8536E00
740.09	1.8536E00
740.41	1.8537E00
740.72	1.8516E00
741.04	1.8526E00
741.35	1.8536E00
741.66	1.8456E00
741.98	1.8723E00
742.29	1.8640E00
742.61	1.8739E00
742.92	1.8664E00
743.23	1.8757E00
743.55	1.8983E00
743.86	1.8936E00
744.18	1.8748E00
744.49	1.8897E00
744.80	1.8855E00
745.12	1.8849E00
745.43	1.8861E00
745.74	1.8800E00
746.06	1.8895E00
746.37	1.8702E00
746.68	1.8783E00
747.00	1.8858E00
747.31	1.8954E00
747.62	1.8681E00
747.94	1.8971E00
748.25	1.8878E00
748.56	1.8846E00
748.88	1.8842E00
749.19	1.8951E00
749.50	1.8937E00
749.82	1.8831E00
750.13	1.8902E00
750.44	1.8840E00
750.75	1.8698E00
751.07	1.8870E00
751.38	1.8938E00
751.69	1.8930E00
752.01	1.8905E00
752.32	1.9017E00
752.63	1.8864E00
752.94	1.8969E00
753.26	1.9206E00
753.57	1.9014E00
753.88	1.9299E00
754.19	1.9150E00
754.51	1.9132E00
754.82	1.9136E00
755.13	1.9480E00
755.44	1.9292E00
755.75	1.9280E00
756.07	1.9361E00
756.38	1.9549E00
756.69	1.9492E00
757.00	1.9568E00
757.31	1.9836E00
757.63	2.0056E00
757.94	2.0010E00
758.25	1.9989E00
758.56	1.9750E00
758.87	2.0139E00
759.18	2.0344E00
759.50	2.0297E00
759.81	2.0500E00
760.12	2.0417E00
760.43	2.0557E00
760.74	2.0743E00
761.05	2.0721E00
761.36	2.0980E00
761.67	2.1254E00
761.99	2.1311E00
762.30	2.1116E00
762.61	2.1447E00
762.92	2.1639E00
763.23	2.1721E00
763.54	2.1789E00
763.85	2.2152E00
764.16	2.2195E00
764.47	2.2248E00
764.78	2.2470E00
765.10	2.2578E00
765.41	2.2719E00
765.72	2.2778E00
766.03	2.3350E00
766.34	2.3374E00
766.65	2.3539E00
766.96	2.3821E00
767.27	2.3929E00
767.58	2.3730E00
767.89	2.4105E00
768.20	2.4484E00
768.51	2.4598E00
768.82	2.4671E00
769.13	2.4865E00
769.44	2.5393E00
769.75	2.5351E00
770.06	2.5727E00
770.37	2.5398E00
770.68	2.5920E00
770.99	2.6106E00
771.30	2.6521E00
771.61	2.6948E00
771.92	2.6628E00
772.23	2.6887E00
772.54	2.7289E00
772.85	2.7300E00
773.16	2.7922E00
773.47	2.8192E00
773.78	2.7955E00
774.09	2.8724E00
774.39	2.8659E00
774.70	2.9000E00
775.01	2.9192E00
775.32	2.9166E00
775.63	2.9657E00
775.94	3.0013E00
776.25	3.0092E00
776.56	3.0485E00
776.87	3.1148E00
777.18	3.0968E00
777.48	3.1200E00
777.79	3.1615E00
778.10	3.1818E00
778.41	3.2041E00
778.72	3.2376E00
779.03	3.2483E00
779.34	3.3341E00
779.65	3.3091E00
779.95	3.3488E00
780.26	3.3862E00
780.57	3.4118E00
780.88	3.4028E00
781.19	3.4745E00
781.50	3.4793E00
781.80	3.5071E00
782.11	3.5499E00
782.42	3.6207E00
782.73	3.5444E00
783.04	3.5964E00
783.34	3.6829E00
783.65	3.7110E00
783.96	3.7337E00
784.27	3.7307E00
784.57	3.7393E00
784.88	3.8405E00
785.19	3.8427E00
785.50	3.8452E00
785.81	3.8919E00
786.11	3.8634E00
786.42	4.0083E00
786.73	4.0149E00
787.04	3.9798E00
787.34	4.0405E00
787.65	4.0331E00
787.96	4.1371E00
788.26	4.1753E00
788.57	4.2230E00
788.88	4.1408E00
789.19	4.3074E00
789.49	4.3100E00
789.80	4.3319E00
790.11	4.3772E00
790.41	4.3540E00
790.72	4.4811E00
791.03	4.4639E00
791.33	4.5029E00
791.64	4.5121E00
791.95	4.5697E00
792.25	4.6624E00
792.56	4.6945E00
792.87	4.6589E00
793.17	4.7205E00
793.48	4.7026E00
793.79	4.7822E00
794.09	4.9614E00
794.40	4.7573E00
794.70	4.7954E00
795.01	4.8988E00
795.32	4.8858E00
795.62	4.9998E00
795.93	5.0183E00
796.23	5.0593E00
796.54	5.0698E00
796.85	5.0247E00
797.15	5.1666E00
797.46	5.1874E00
797.76	5.2959E00
798.07	5.2453E00
798.37	5.3598E00
798.68	5.3922E00
798.99	5.4563E00
799.29	5.4855E00
799.60	5.5187E00
799.90	5.5403E00
800.21	5.6449E00
800.51	5.6926E00
800.82	5.6684E00
801.12	5.7820E00
801.43	5.6918E00
801.73	5.8029E00
802.04	5.8612E00
802.34	5.8748E00
802.65	5.9921E00
802.95	6.0380E00
803.26	6.1182E00
803.56	6.0038E00
803.87	6.1052E00
804.17	6.1716E00
804.48	6.1428E00
804.78	6.1824E00
805.09	6.3235E00
805.39	6.2491E00
805.70	6.3193E00
806.00	6.4368E00
806.30	6.3302E00
806.61	6.4523E00
806.91	6.4718E00
807.22	6.5409E00
807.52	6.6294E00
807.83	6.5582E00
808.13	6.7169E00
808.43	6.6459E00
808.74	6.8699E00
809.04	6.8190E00
809.35	6.8528E00
809.65	7.0011E00
809.95	6.9344E00
810.26	7.0987E00
810.56	6.9425E00
810.86	7.2667E00
811.17	7.2194E00
811.47	7.3934E00
811.77	7.3639E00
812.08	7.4166E00
812.38	7.4327E00
812.69	7.3708E00
812.99	7.4374E00
813.29	7.4211E00
813.59	7.5911E00
813.90	7.7177E00
814.20	7.7647E00
814.50	7.8259E00
814.81	7.7864E00
815.11	7.9048E00
815.41	8.0003E00
815.72	7.9859E00
816.02	8.1364E00
816.32	8.0374E00
816.62	7.9900E00
816.93	8.0853E00
817.23	8.3309E00
817.53	8.3314E00
817.84	8.5363E00
818.14	8.5033E00
818.44	8.3093E00
818.74	8.6226E00
819.04	8.7609E00
819.35	8.7699E00
819.65	8.6721E00
819.95	8.8261E00
820.25	8.9729E00
820.56	9.0186E00
820.86	9.0224E00
821.16	9.0816E00
821.46	9.0529E00
821.76	9.0360E00
822.07	9.1682E00
822.37	9.4176E00
822.67	9.4318E00
822.97	9.6492E00
823.27	9.5413E00
823.57	9.5145E00
823.88	9.4810E00
824.18	9.6994E00
824.48	9.5036E00
824.78	9.7543E00
825.08	9.7598E00
825.38	9.9941E00
825.69	9.9133E00
825.99	9.9027E00
826.29	1.0109E01
826.59	1.0325E01
826.89	1.0314E01
827.19	1.0238E01
827.49	1.0463E01
827.79	1.0491E01
828.09	1.0512E01
828.39	1.0687E01
828.70	1.0539E01
829.00	1.0791E01
829.30	1.0875E01
829.60	1.0657E01
829.90	1.0902E01
830.20	1.1087E01
830.50	1.1242E01
830.80	1.1496E01
831.10	1.1324E01
831.40	1.1335E01
831.70	1.1374E01
832.00	1.1442E01
832.30	1.1765E01
832.60	1.1540E01
832.90	1.1707E01
833.20	1.1605E01
833.50	1.1704E01
833.80	1.2070E01
834.10	1.2047E01
834.40	1.2195E01
834.70	1.2173E01
835.00	1.2528E01
835.30	1.2435E01
835.60	1.2358E01
835.90	1.2502E01
836.20	1.2764E01
836.50	1.2465E01
836.80	1.2608E01
837.10	1.2871E01
837.40	1.2785E01
837.70	1.2942E01
838.00	1.3221E01
838.30	1.3169E01
838.60	1.3551E01
838.90	1.3374E01
839.19	1.3225E01
839.49	1.3912E01
839.79	1.3494E01
840.09	1.3649E01
840.39	1.3735E01
840.69	1.3834E01
840.99	1.4272E01
841.29	1.4239E01
841.59	1.4213E01
841.88	1.4398E01
842.18	1.4729E01
842.48	1.4578E01
842.78	1.4599E01
843.08	1.4853E01
843.38	1.5160E01
843.68	1.5252E01
843.97	1.5396E01
844.27	1.5165E01
844.57	1.5045E01
844.87	1.5473E01
845.17	1.5413E01
845.47	1.5816E01
845.76	1.5889E01
846.06	1.5930E01
846.36	1.5825E01
846.66	1.6053E01
846.96	1.6016E01
847.25	1.6322E01
847.55	1.6316E01
847.85	1.6487E01
848.15	1.6583E01
848.44	1.6817E01
848.74	1.7211E01
849.04	1.7109E01
849.34	1.7516E01
849.63	1.7163E01
849.93	1.7412E01
850.23	1.7460E01
850.53	1.8094E01
850.82	1.8146E01
851.12	1.8321E01
851.42	1.7954E01
851.71	1.8534E01
852.01	1.8635E01
852.31	1.8571E01
852.61	1.8918E01
852.90	1.8967E01
853.20	1.9389E01
853.50	1.9682E01
853.79	1.9071E01
854.09	1.9241E01
854.39	2.0056E01
854.68	2.0026E01
854.98	1.9733E01
855.28	2.0626E01
855.57	2.0300E01
855.87	2.0571E01
856.17	2.0921E01
856.46	2.0998E01
856.76	2.0920E01
857.05	2.0735E01
857.35	2.1346E01
857.65	2.1621E01
857.94	2.1945E01
858.24	2.1945E01
858.53	2.1816E01
858.83	2.2025E01
859.13	2.2119E01
859.42	2.2376E01
859.72	2.3026E01
860.01	2.2735E01
860.31	2.3175E01
860.60	2.4158E01
860.90	2.3029E01
861.20	2.3945E01
861.49	2.4502E01
861.79	2.4524E01
862.08	2.4840E01
862.38	2.5052E01
862.67	2.5052E01
862.97	2.5211E01
863.26	2.4647E01
863.56	2.5577E01
863.85	2.6753E01
864.15	2.6062E01
864.44	2.6219E01
864.74	2.6857E01
865.03	2.6976E01
865.33	2.7185E01
865.62	2.7901E01
865.92	2.7674E01
866.21	2.8179E01
866.51	2.7846E01
866.80	2.9044E01
867.10	2.9300E01
867.39	2.9039E01
867.69	2.9014E01
867.98	2.9187E01
868.27	2.9743E01
868.57	3.0176E01
868.86	3.0100E01
869.16	3.0173E01
869.45	3.1313E01
869.75	3.0833E01
870.04	3.2398E01
870.33	3.1569E01
870.63	3.2219E01
870.92	3.1664E01
871.22	3.4181E01
871.51	3.4093E01
871.80	3.3242E01
872.10	3.3242E01
>>>>>End Processed Spectral Data<<<<<
