SpectraSuite Data File
++++++++++++++++++++++++++++++++++++
Date: Fri May 15 07:53:12 PDT 2015
User: schluterlab
Dark Spectrum Present: Yes
Reference Spectrum Present: No
Number of Sampled Component Spectra: 1
Spectrometers: USB2E3373
Integration Time (usec): 2300000 (USB2E3373)
Spectra Averaged: 3 (USB2E3373)
Boxcar Smoothing: 0 (USB2E3373)
Correct for Electrical Dark: No (USB2E3373)
Strobe/Lamp Enabled: No (USB2E3373)
Correct for Detector Non-linearity: No (USB2E3373)
Correct for Stray Light: No (USB2E3373)
Number of Pixels in Processed Spectrum: 2048
>>>>>Begin Processed Spectral Data<<<<<
178.53	-0.0000E00
178.91	-0.0000E00
179.29	0.0000E00
179.67	0.0000E00
180.04	0.0000E00
180.42	0.0000E00
180.80	0.0000E00
181.18	0.0000E00
181.56	0.0000E00
181.94	0.0000E00
182.31	0.0000E00
182.69	0.0000E00
183.07	0.0000E00
183.45	0.0000E00
183.83	0.0000E00
184.20	0.0000E00
184.58	0.0000E00
184.96	0.0000E00
185.34	0.0000E00
185.72	0.0000E00
186.09	0.0000E00
186.47	0.0000E00
186.85	0.0000E00
187.23	0.0000E00
187.61	-0.0000E00
187.98	0.0000E00
188.36	0.0000E00
188.74	0.0000E00
189.12	0.0000E00
189.49	0.0000E00
189.87	0.0000E00
190.25	0.0000E00
190.63	0.0000E00
191.00	0.0000E00
191.38	0.0000E00
191.76	0.0000E00
192.14	0.0000E00
192.51	0.0000E00
192.89	0.0000E00
193.27	0.0000E00
193.65	0.0000E00
194.02	0.0000E00
194.40	0.0000E00
194.78	0.0000E00
195.15	0.0000E00
195.53	0.0000E00
195.91	0.0000E00
196.29	0.0000E00
196.66	0.0000E00
197.04	0.0000E00
197.42	0.0000E00
197.79	0.0000E00
198.17	0.0000E00
198.55	0.0000E00
198.92	0.0000E00
199.30	0.0000E00
199.68	0.0000E00
200.05	0.0000E00
200.43	0.0000E00
200.81	0.0000E00
201.18	0.0000E00
201.56	0.0000E00
201.94	0.0000E00
202.31	0.0000E00
202.69	0.0000E00
203.07	0.0000E00
203.44	0.0000E00
203.82	0.0000E00
204.19	0.0000E00
204.57	0.0000E00
204.95	0.0000E00
205.32	0.0000E00
205.70	0.0000E00
206.08	0.0000E00
206.45	0.0000E00
206.83	0.0000E00
207.20	0.0000E00
207.58	0.0000E00
207.96	0.0000E00
208.33	0.0000E00
208.71	0.0000E00
209.08	0.0000E00
209.46	0.0000E00
209.84	0.0000E00
210.21	0.0000E00
210.59	0.0000E00
210.96	0.0000E00
211.34	0.0000E00
211.71	0.0000E00
212.09	0.0000E00
212.46	0.0000E00
212.84	0.0000E00
213.22	0.0000E00
213.59	0.0000E00
213.97	0.0000E00
214.34	0.0000E00
214.72	0.0000E00
215.09	0.0000E00
215.47	0.0000E00
215.84	0.0000E00
216.22	0.0000E00
216.59	0.0000E00
216.97	0.0000E00
217.34	0.0000E00
217.72	0.0000E00
218.09	0.0000E00
218.47	0.0000E00
218.84	0.0000E00
219.22	0.0000E00
219.59	0.0000E00
219.97	0.0000E00
220.34	0.0000E00
220.72	0.0000E00
221.09	0.0000E00
221.47	0.0000E00
221.84	0.0000E00
222.22	0.0000E00
222.59	0.0000E00
222.97	0.0000E00
223.34	0.0000E00
223.72	0.0000E00
224.09	0.0000E00
224.46	0.0000E00
224.84	0.0000E00
225.21	0.0000E00
225.59	0.0000E00
225.96	0.0000E00
226.34	0.0000E00
226.71	0.0000E00
227.08	0.0000E00
227.46	0.0000E00
227.83	0.0000E00
228.21	0.0000E00
228.58	0.0000E00
228.95	0.0000E00
229.33	0.0000E00
229.70	0.0000E00
230.08	0.0000E00
230.45	0.0000E00
230.82	0.0000E00
231.20	0.0000E00
231.57	0.0000E00
231.95	0.0000E00
232.32	0.0000E00
232.69	0.0000E00
233.07	0.0000E00
233.44	-0.0000E00
233.81	0.0000E00
234.19	0.0000E00
234.56	0.0000E00
234.93	0.0000E00
235.31	0.0000E00
235.68	0.0000E00
236.05	0.0000E00
236.43	0.0000E00
236.80	-0.0000E00
237.17	0.0000E00
237.55	0.0000E00
237.92	0.0000E00
238.29	0.0000E00
238.67	0.0000E00
239.04	0.0000E00
239.41	0.0000E00
239.79	0.0000E00
240.16	0.0000E00
240.53	0.0000E00
240.91	0.0000E00
241.28	0.0000E00
241.65	0.0000E00
242.02	0.0000E00
242.40	0.0000E00
242.77	0.0000E00
243.14	0.0000E00
243.51	0.0000E00
243.89	0.0000E00
244.26	0.0000E00
244.63	0.0000E00
245.00	0.0000E00
245.38	0.0000E00
245.75	0.0000E00
246.12	0.0000E00
246.49	0.0000E00
246.87	0.0000E00
247.24	0.0000E00
247.61	0.0000E00
247.98	0.0000E00
248.36	0.0000E00
248.73	0.0000E00
249.10	0.0000E00
249.47	0.0000E00
249.84	0.0000E00
250.22	0.0000E00
250.59	0.0000E00
250.96	0.0000E00
251.33	0.0000E00
251.70	0.0000E00
252.08	0.0000E00
252.45	0.0000E00
252.82	0.0000E00
253.19	0.0000E00
253.56	0.0000E00
253.94	0.0000E00
254.31	0.0000E00
254.68	0.0000E00
255.05	0.0000E00
255.42	0.0000E00
255.79	0.0000E00
256.16	0.0000E00
256.54	0.0000E00
256.91	0.0000E00
257.28	0.0000E00
257.65	0.0000E00
258.02	0.0000E00
258.39	0.0000E00
258.76	0.0000E00
259.14	0.0000E00
259.51	0.0000E00
259.88	0.0000E00
260.25	0.0000E00
260.62	0.0000E00
260.99	0.0000E00
261.36	0.0000E00
261.73	0.0000E00
262.10	0.0000E00
262.47	0.0000E00
262.85	0.0000E00
263.22	0.0000E00
263.59	0.0000E00
263.96	0.0000E00
264.33	0.0000E00
264.70	0.0000E00
265.07	0.0000E00
265.44	0.0000E00
265.81	0.0000E00
266.18	0.0000E00
266.55	0.0000E00
266.92	0.0000E00
267.29	0.0000E00
267.66	0.0000E00
268.03	0.0000E00
268.40	0.0000E00
268.77	0.0000E00
269.14	0.0000E00
269.51	0.0000E00
269.88	0.0000E00
270.25	0.0000E00
270.62	0.0000E00
270.99	0.0000E00
271.36	0.0000E00
271.73	0.0000E00
272.10	0.0000E00
272.47	0.0000E00
272.84	0.0000E00
273.21	0.0000E00
273.58	0.0000E00
273.95	0.0000E00
274.32	0.0000E00
274.69	0.0000E00
275.06	0.0000E00
275.43	0.0000E00
275.80	0.0000E00
276.17	0.0000E00
276.54	0.0000E00
276.91	0.0000E00
277.28	0.0000E00
277.65	-0.0000E00
278.02	0.0000E00
278.39	0.0000E00
278.76	0.0000E00
279.13	0.0000E00
279.50	0.0000E00
279.87	0.0000E00
280.23	0.0000E00
280.60	0.0000E00
280.97	0.0000E00
281.34	0.0000E00
281.71	0.0000E00
282.08	0.0000E00
282.45	0.0000E00
282.82	0.0000E00
283.19	0.0000E00
283.56	0.0000E00
283.92	0.0000E00
284.29	0.0000E00
284.66	0.0000E00
285.03	0.0000E00
285.40	0.0000E00
285.77	0.0000E00
286.14	0.0000E00
286.51	0.0000E00
286.87	0.0000E00
287.24	0.0000E00
287.61	0.0000E00
287.98	0.0000E00
288.35	0.0000E00
288.72	0.0000E00
289.08	0.0000E00
289.45	0.0000E00
289.82	0.0000E00
290.19	0.0000E00
290.56	0.0000E00
290.93	0.0000E00
291.29	0.0000E00
291.66	0.0000E00
292.03	0.0000E00
292.40	0.0000E00
292.77	0.0000E00
293.13	0.0000E00
293.50	0.0000E00
293.87	0.0000E00
294.24	0.0000E00
294.60	0.0000E00
294.97	0.0000E00
295.34	0.0000E00
295.71	0.0000E00
296.08	0.0000E00
296.44	0.0000E00
296.81	0.0000E00
297.18	0.0000E00
297.55	0.0000E00
297.91	0.0000E00
298.28	0.0000E00
298.65	0.0000E00
299.02	0.0000E00
299.38	0.0000E00
299.75	0.0000E00
300.12	5.5861E-02
300.48	1.3960E-01
300.85	1.2825E-01
301.22	6.6211E-02
301.59	1.1710E-01
301.95	1.9562E-01
302.32	6.4445E-02
302.69	5.5930E-02
303.05	7.7502E-02
303.42	1.3756E-01
303.79	7.7945E-02
304.15	7.5554E-02
304.52	6.0875E-02
304.89	7.6853E-02
305.25	1.3619E-01
305.62	9.0693E-02
305.99	8.5004E-02
306.35	1.6658E-01
306.72	8.1263E-02
307.09	2.0450E-01
307.45	2.3851E-01
307.82	1.2172E-01
308.19	8.2330E-01
308.55	1.2533E-01
308.92	1.2674E-01
309.29	1.4540E-01
309.65	3.5388E-01
310.02	1.6698E-01
310.38	1.6580E-01
310.75	1.2798E-01
311.12	2.1814E-01
311.48	2.3281E-01
311.85	1.5644E-01
312.22	2.1442E-01
312.58	2.5274E-01
312.95	2.4845E-01
313.31	2.5229E-01
313.68	2.1142E-01
314.05	4.0078E-01
314.41	2.0095E-01
314.78	5.4599E-01
315.14	3.7803E-01
315.51	3.1676E-01
315.87	3.2780E-01
316.24	4.0491E-01
316.61	2.5259E-01
316.97	6.0004E-01
317.34	3.9956E-01
317.70	4.5683E-01
318.07	4.5258E-01
318.43	2.7587E-01
318.80	3.3397E-01
319.16	6.6517E-01
319.53	2.6919E-01
319.89	4.4584E-01
320.26	3.0195E-01
320.62	6.7121E-01
320.99	5.9907E-01
321.35	6.0792E-01
321.72	3.4918E-01
322.08	3.7415E-01
322.45	5.1009E-01
322.81	8.3158E-01
323.18	4.1539E-01
323.54	3.4803E-01
323.91	5.2532E-01
324.27	4.5598E-01
324.64	1.6113E00
325.00	1.9257E00
325.37	9.2503E-01
325.73	1.1668E00
326.10	1.0322E00
326.46	7.9153E-01
326.83	8.4077E-01
327.19	1.0158E00
327.56	7.3290E-01
327.92	1.4982E00
328.29	7.1869E-01
328.65	5.5674E-01
329.01	7.1773E-01
329.38	7.7441E-01
329.74	9.8178E-01
330.11	9.9701E-01
330.47	2.0674E00
330.84	1.0342E00
331.20	5.4780E-01
331.56	2.5141E00
331.93	1.2278E00
332.29	1.1601E00
332.66	1.3217E00
333.02	1.1405E00
333.38	7.1069E-01
333.75	1.5570E00
334.11	7.7579E-01
334.48	1.1023E00
334.84	6.3157E-01
335.20	9.7424E-01
335.57	1.1397E00
335.93	9.3845E-01
336.29	9.4088E-01
336.66	9.1239E-01
337.02	7.9166E-01
337.38	9.1076E-01
337.75	7.4810E-01
338.11	9.2654E-01
338.47	7.2904E-01
338.84	1.0180E00
339.20	1.1281E00
339.56	1.2397E00
339.93	1.2573E00
340.29	9.8160E-01
340.65	8.3328E-01
341.02	1.2828E00
341.38	8.4125E-01
341.74	1.0793E00
342.11	3.8073E00
342.47	1.2498E00
342.83	1.2472E00
343.20	1.4551E00
343.56	1.2414E00
343.92	1.2553E00
344.28	8.4001E-01
344.65	9.0432E-01
345.01	7.6327E-01
345.37	9.4818E-01
345.73	1.2391E00
346.10	1.1453E00
346.46	7.6469E-01
346.82	1.3585E00
347.19	1.5402E00
347.55	1.3987E00
347.91	1.8623E00
348.27	9.8018E-01
348.63	1.4271E00
349.00	1.4136E00
349.36	1.2258E00
349.72	1.5879E00
350.08	1.2257E00
350.45	1.1392E00
350.81	1.3673E00
351.17	2.2753E00
351.53	1.8755E00
351.89	1.4637E00
352.26	9.4369E-01
352.62	1.0198E00
352.98	1.1072E00
353.34	1.3014E00
353.70	1.4462E00
354.07	1.1642E00
354.43	1.0724E00
354.79	1.4544E00
355.15	1.2261E00
355.51	1.5487E00
355.87	9.3746E-01
356.24	9.4186E-01
356.60	1.0165E00
356.96	1.1029E00
357.32	1.0655E00
357.68	1.2384E00
358.04	1.0013E00
358.40	1.4482E00
358.77	1.1850E00
359.13	8.5507E-01
359.49	1.2259E00
359.85	1.0350E00
360.21	1.2979E00
360.57	9.6492E-01
360.93	1.2649E00
361.29	1.2241E00
361.66	9.1818E-01
362.02	9.2792E-01
362.38	1.0865E00
362.74	9.2026E-01
363.10	8.6650E-01
363.46	9.5566E-01
363.82	9.8042E-01
364.18	1.0736E00
364.54	9.7526E-01
364.90	8.8275E-01
365.26	1.4750E00
365.62	8.6901E-01
365.98	1.1393E00
366.35	1.1164E00
366.71	9.3666E-01
367.07	1.1087E00
367.43	1.0122E00
367.79	9.5706E-01
368.15	1.1144E00
368.51	1.1783E00
368.87	1.1741E00
369.23	9.7632E-01
369.59	1.0399E00
369.95	1.0948E00
370.31	9.4830E-01
370.67	8.9442E-01
371.03	9.9118E-01
371.39	1.0667E00
371.75	1.2197E00
372.11	1.1015E00
372.47	8.8076E-01
372.83	1.3142E00
373.19	1.1806E00
373.55	8.6144E-01
373.91	9.9688E-01
374.27	1.0052E00
374.63	1.0046E00
374.99	1.0133E00
375.35	8.9207E-01
375.71	8.9128E-01
376.07	8.9109E-01
376.42	1.0391E00
376.78	1.0482E00
377.14	8.2054E-01
377.50	1.0006E00
377.86	9.3168E-01
378.22	8.0175E-01
378.58	8.6565E-01
378.94	8.5115E-01
379.30	9.8433E-01
379.66	8.8969E-01
380.02	8.3181E-01
380.38	9.5670E-01
380.74	7.9602E-01
381.09	8.6905E-01
381.45	7.6450E-01
381.81	8.5107E-01
382.17	9.2548E-01
382.53	8.1477E-01
382.89	9.3578E-01
383.25	7.0063E-01
383.61	8.0953E-01
383.97	7.8306E-01
384.32	8.8923E-01
384.68	8.4524E-01
385.04	8.7922E-01
385.40	8.1953E-01
385.76	8.7654E-01
386.12	8.3578E-01
386.48	7.9428E-01
386.83	7.8116E-01
387.19	8.0934E-01
387.55	8.6784E-01
387.91	7.7842E-01
388.27	8.2668E-01
388.62	8.1903E-01
388.98	8.3128E-01
389.34	7.9817E-01
389.70	8.4163E-01
390.06	8.2309E-01
390.42	8.1566E-01
390.77	7.9839E-01
391.13	7.7321E-01
391.49	8.3229E-01
391.85	7.5772E-01
392.20	8.0799E-01
392.56	8.0141E-01
392.92	7.8191E-01
393.28	7.7166E-01
393.64	8.5186E-01
393.99	7.4932E-01
394.35	8.0544E-01
394.71	8.7324E-01
395.07	8.3210E-01
395.42	7.6368E-01
395.78	7.9894E-01
396.14	7.4012E-01
396.50	7.4266E-01
396.85	7.4522E-01
397.21	7.3813E-01
397.57	8.2060E-01
397.92	7.8781E-01
398.28	7.5378E-01
398.64	8.5012E-01
399.00	7.1403E-01
399.35	6.7620E-01
399.71	7.2239E-01
400.07	7.2652E-01
400.42	7.3614E-01
400.78	7.3237E-01
401.14	7.1776E-01
401.49	7.4206E-01
401.85	6.7969E-01
402.21	6.7078E-01
402.57	6.8876E-01
402.92	7.0294E-01
403.28	6.7294E-01
403.63	6.9395E-01
403.99	7.5429E-01
404.35	6.8606E-01
404.70	6.6510E-01
405.06	6.5288E-01
405.42	6.9388E-01
405.77	6.7778E-01
406.13	6.2871E-01
406.49	6.6872E-01
406.84	6.4313E-01
407.20	6.3813E-01
407.55	7.0061E-01
407.91	7.0934E-01
408.27	6.5413E-01
408.62	6.3444E-01
408.98	6.8755E-01
409.34	6.8277E-01
409.69	6.8011E-01
410.05	6.6451E-01
410.40	6.4228E-01
410.76	6.3163E-01
411.11	6.2287E-01
411.47	6.9415E-01
411.83	6.3362E-01
412.18	6.4517E-01
412.54	6.5206E-01
412.89	6.6898E-01
413.25	6.3594E-01
413.60	6.2315E-01
413.96	6.6477E-01
414.31	6.4415E-01
414.67	6.4959E-01
415.03	6.7339E-01
415.38	6.7493E-01
415.74	6.6622E-01
416.09	6.7719E-01
416.45	6.7213E-01
416.80	6.4962E-01
417.16	6.5016E-01
417.51	6.4922E-01
417.87	6.4195E-01
418.22	6.0689E-01
418.58	6.2101E-01
418.93	6.3017E-01
419.29	6.5499E-01
419.64	6.3783E-01
420.00	6.1821E-01
420.35	6.0942E-01
420.71	6.0742E-01
421.06	6.1278E-01
421.42	6.2382E-01
421.77	6.2737E-01
422.12	6.0889E-01
422.48	5.7245E-01
422.83	6.3977E-01
423.19	5.9154E-01
423.54	6.1028E-01
423.90	6.1420E-01
424.25	6.0326E-01
424.61	6.2483E-01
424.96	5.8711E-01
425.31	5.6221E-01
425.67	5.7297E-01
426.02	5.7907E-01
426.38	5.8866E-01
426.73	5.6396E-01
427.09	5.8632E-01
427.44	5.8126E-01
427.79	5.4578E-01
428.15	6.0004E-01
428.50	5.6573E-01
428.85	5.9534E-01
429.21	5.4834E-01
429.56	5.1932E-01
429.92	5.4112E-01
430.27	5.4248E-01
430.62	5.5443E-01
430.98	5.7431E-01
431.33	5.5982E-01
431.68	5.5336E-01
432.04	5.5327E-01
432.39	5.3352E-01
432.74	5.6061E-01
433.10	5.2485E-01
433.45	5.6782E-01
433.80	5.4470E-01
434.16	5.5720E-01
434.51	5.4205E-01
434.86	5.4834E-01
435.22	5.2977E-01
435.57	5.7913E-01
435.92	5.5969E-01
436.28	5.5186E-01
436.63	5.2816E-01
436.98	5.3705E-01
437.34	5.6125E-01
437.69	5.4179E-01
438.04	5.1968E-01
438.39	5.4539E-01
438.75	5.2588E-01
439.10	5.1896E-01
439.45	5.4645E-01
439.81	5.3285E-01
440.16	5.1381E-01
440.51	5.2066E-01
440.86	5.1308E-01
441.22	5.1990E-01
441.57	5.2691E-01
441.92	5.0105E-01
442.27	5.3348E-01
442.63	5.2350E-01
442.98	5.3862E-01
443.33	5.3988E-01
443.68	5.2214E-01
444.03	4.8613E-01
444.39	4.9135E-01
444.74	5.1696E-01
445.09	5.2056E-01
445.44	5.4324E-01
445.79	4.7965E-01
446.15	5.0900E-01
446.50	5.1128E-01
446.85	4.8004E-01
447.20	4.8661E-01
447.55	5.1095E-01
447.91	5.1044E-01
448.26	4.9927E-01
448.61	4.9987E-01
448.96	4.9528E-01
449.31	4.9281E-01
449.66	5.1360E-01
450.02	4.9724E-01
450.37	4.9833E-01
450.72	4.8484E-01
451.07	5.2084E-01
451.42	5.1362E-01
451.77	4.9893E-01
452.12	4.8541E-01
452.47	5.2799E-01
452.83	4.7338E-01
453.18	5.0938E-01
453.53	4.8820E-01
453.88	4.7096E-01
454.23	4.7910E-01
454.58	4.8725E-01
454.93	4.9019E-01
455.28	4.9054E-01
455.63	4.8730E-01
455.98	4.6481E-01
456.34	4.8785E-01
456.69	4.8140E-01
457.04	4.6907E-01
457.39	4.5507E-01
457.74	4.5323E-01
458.09	4.6719E-01
458.44	4.5102E-01
458.79	4.3945E-01
459.14	4.5113E-01
459.49	4.7272E-01
459.84	4.4507E-01
460.19	4.7443E-01
460.54	4.6977E-01
460.89	4.3544E-01
461.24	4.7477E-01
461.59	4.6208E-01
461.94	4.6754E-01
462.29	4.3112E-01
462.64	4.6266E-01
462.99	4.6253E-01
463.34	4.8061E-01
463.69	4.4462E-01
464.04	4.3521E-01
464.39	4.4371E-01
464.74	4.4853E-01
465.09	4.5883E-01
465.44	4.4561E-01
465.79	4.4507E-01
466.14	4.4594E-01
466.49	4.4202E-01
466.84	4.4646E-01
467.19	4.5147E-01
467.54	4.5148E-01
467.89	4.2766E-01
468.24	4.1560E-01
468.59	4.3001E-01
468.94	4.1968E-01
469.29	4.2122E-01
469.64	4.3746E-01
469.99	4.1833E-01
470.34	4.0256E-01
470.68	4.3757E-01
471.03	4.0782E-01
471.38	4.1164E-01
471.73	4.0188E-01
472.08	3.9155E-01
472.43	3.8347E-01
472.78	3.9803E-01
473.13	3.9834E-01
473.48	3.8900E-01
473.83	3.8203E-01
474.17	3.8898E-01
474.52	3.8500E-01
474.87	3.6711E-01
475.22	3.7232E-01
475.57	3.5386E-01
475.92	3.4111E-01
476.27	3.6250E-01
476.61	3.4667E-01
476.96	3.4280E-01
477.31	3.2556E-01
477.66	3.3572E-01
478.01	3.3091E-01
478.36	3.2678E-01
478.70	3.2429E-01
479.05	3.2912E-01
479.40	3.1264E-01
479.75	3.1396E-01
480.10	3.1149E-01
480.45	3.0753E-01
480.79	3.0667E-01
481.14	3.1436E-01
481.49	3.0556E-01
481.84	2.9629E-01
482.19	2.9242E-01
482.53	2.9243E-01
482.88	2.9135E-01
483.23	2.8744E-01
483.58	2.8248E-01
483.92	2.8903E-01
484.27	2.7618E-01
484.62	2.7704E-01
484.97	2.7188E-01
485.31	2.6797E-01
485.66	2.7453E-01
486.01	2.7248E-01
486.36	2.6568E-01
486.70	2.6985E-01
487.05	2.6838E-01
487.40	2.6305E-01
487.75	2.5510E-01
488.09	2.5937E-01
488.44	2.6687E-01
488.79	2.5600E-01
489.13	2.5786E-01
489.48	2.5817E-01
489.83	2.6012E-01
490.17	2.5196E-01
490.52	2.5253E-01
490.87	2.5372E-01
491.22	2.5652E-01
491.56	2.5175E-01
491.91	2.5563E-01
492.26	2.5291E-01
492.60	2.5204E-01
492.95	2.5355E-01
493.30	2.5575E-01
493.64	2.5054E-01
493.99	2.5296E-01
494.34	2.5117E-01
494.68	2.4611E-01
495.03	2.5391E-01
495.37	2.4975E-01
495.72	2.5205E-01
496.07	2.4788E-01
496.41	2.5164E-01
496.76	2.4944E-01
497.11	2.5155E-01
497.45	2.4974E-01
497.80	2.5147E-01
498.14	2.5156E-01
498.49	2.5201E-01
498.84	2.5101E-01
499.18	2.4957E-01
499.53	2.5270E-01
499.87	2.5095E-01
500.22	2.5299E-01
500.56	2.5148E-01
500.91	2.4996E-01
501.26	2.5150E-01
501.60	2.5131E-01
501.95	2.4788E-01
502.29	2.4962E-01
502.64	2.5009E-01
502.98	2.5127E-01
503.33	2.5185E-01
503.67	2.5039E-01
504.02	2.4926E-01
504.36	2.4726E-01
504.71	2.4936E-01
505.06	2.4925E-01
505.40	2.4843E-01
505.75	2.4650E-01
506.09	2.4713E-01
506.44	2.4599E-01
506.78	2.4736E-01
507.13	2.4761E-01
507.47	2.4503E-01
507.82	2.4432E-01
508.16	2.4447E-01
508.51	2.4389E-01
508.85	2.4333E-01
509.19	2.4270E-01
509.54	2.4619E-01
509.88	2.4446E-01
510.23	2.4189E-01
510.57	2.4106E-01
510.92	2.4465E-01
511.26	2.4235E-01
511.61	2.4209E-01
511.95	2.4272E-01
512.30	2.4065E-01
512.64	2.4156E-01
512.98	2.4093E-01
513.33	2.4053E-01
513.67	2.4074E-01
514.02	2.3919E-01
514.36	2.3873E-01
514.70	2.3938E-01
515.05	2.3839E-01
515.39	2.3921E-01
515.74	2.3625E-01
516.08	2.3883E-01
516.42	2.3688E-01
516.77	2.3725E-01
517.11	2.3593E-01
517.46	2.3806E-01
517.80	2.3559E-01
518.14	2.3628E-01
518.49	2.3646E-01
518.83	2.3399E-01
519.17	2.3765E-01
519.52	2.3543E-01
519.86	2.3491E-01
520.20	2.3263E-01
520.55	2.3479E-01
520.89	2.3517E-01
521.23	2.3496E-01
521.58	2.3448E-01
521.92	2.3829E-01
522.26	2.3689E-01
522.61	2.3357E-01
522.95	2.3507E-01
523.29	2.3475E-01
523.64	2.3404E-01
523.98	2.3412E-01
524.32	2.3620E-01
524.66	2.3554E-01
525.01	2.3720E-01
525.35	2.3750E-01
525.69	2.3781E-01
526.04	2.3864E-01
526.38	2.3494E-01
526.72	2.3796E-01
527.06	2.3770E-01
527.41	2.4132E-01
527.75	2.4177E-01
528.09	2.3869E-01
528.43	2.4037E-01
528.78	2.3818E-01
529.12	2.4451E-01
529.46	2.4226E-01
529.80	2.4231E-01
530.15	2.4319E-01
530.49	2.4406E-01
530.83	2.4520E-01
531.17	2.4549E-01
531.51	2.4612E-01
531.86	2.4724E-01
532.20	2.4945E-01
532.54	2.4946E-01
532.88	2.4951E-01
533.22	2.5066E-01
533.57	2.5131E-01
533.91	2.5364E-01
534.25	2.5374E-01
534.59	2.5213E-01
534.93	2.5324E-01
535.27	2.5460E-01
535.62	2.5725E-01
535.96	2.5912E-01
536.30	2.5883E-01
536.64	2.5981E-01
536.98	2.6055E-01
537.32	2.6069E-01
537.66	2.5998E-01
538.01	2.6374E-01
538.35	2.6509E-01
538.69	2.6304E-01
539.03	2.6860E-01
539.37	2.6540E-01
539.71	2.6741E-01
540.05	2.6736E-01
540.39	2.6763E-01
540.73	2.7046E-01
541.07	2.6843E-01
541.42	2.6869E-01
541.76	2.6892E-01
542.10	2.6943E-01
542.44	2.7106E-01
542.78	2.7142E-01
543.12	2.7162E-01
543.46	2.7712E-01
543.80	2.7400E-01
544.14	2.7545E-01
544.48	2.7214E-01
544.82	2.7528E-01
545.16	2.7499E-01
545.50	2.7432E-01
545.84	2.7904E-01
546.18	2.7569E-01
546.52	2.7874E-01
546.86	2.7507E-01
547.20	2.7790E-01
547.54	2.8292E-01
547.88	2.7862E-01
548.22	2.7960E-01
548.56	2.7999E-01
548.90	2.7786E-01
549.24	2.8179E-01
549.58	2.8124E-01
549.92	2.8139E-01
550.26	2.8477E-01
550.60	2.8270E-01
550.94	2.7842E-01
551.28	2.8580E-01
551.62	2.8260E-01
551.96	2.8524E-01
552.30	2.8355E-01
552.64	2.8560E-01
552.98	2.8387E-01
553.32	2.8379E-01
553.66	2.8190E-01
554.00	2.8290E-01
554.34	2.8571E-01
554.68	2.8691E-01
555.02	2.8552E-01
555.36	2.8534E-01
555.69	2.8814E-01
556.03	2.8706E-01
556.37	2.8669E-01
556.71	2.8532E-01
557.05	2.8442E-01
557.39	2.8622E-01
557.73	2.8520E-01
558.07	2.8745E-01
558.41	2.8594E-01
558.75	2.8665E-01
559.08	2.8764E-01
559.42	2.8352E-01
559.76	2.8728E-01
560.10	2.8647E-01
560.44	2.8712E-01
560.78	2.8468E-01
561.12	2.8623E-01
561.45	2.8740E-01
561.79	2.8770E-01
562.13	2.8656E-01
562.47	2.8653E-01
562.81	2.9061E-01
563.15	2.8974E-01
563.48	2.8791E-01
563.82	2.8597E-01
564.16	2.8874E-01
564.50	2.8964E-01
564.84	2.8938E-01
565.17	2.8900E-01
565.51	2.8570E-01
565.85	2.8906E-01
566.19	2.8813E-01
566.52	2.8970E-01
566.86	2.8859E-01
567.20	2.8998E-01
567.54	2.9225E-01
567.88	2.8929E-01
568.21	2.9109E-01
568.55	2.9044E-01
568.89	2.9080E-01
569.23	2.9274E-01
569.56	2.8989E-01
569.90	2.9064E-01
570.24	2.9310E-01
570.57	2.9184E-01
570.91	2.9442E-01
571.25	2.9257E-01
571.59	2.9298E-01
571.92	2.9310E-01
572.26	2.9488E-01
572.60	2.9706E-01
572.93	2.9517E-01
573.27	2.9892E-01
573.61	2.9896E-01
573.95	2.9498E-01
574.28	2.9927E-01
574.62	2.9882E-01
574.96	2.9974E-01
575.29	2.9825E-01
575.63	3.0214E-01
575.97	3.0137E-01
576.30	3.0896E-01
576.64	3.0375E-01
576.98	3.0464E-01
577.31	3.0683E-01
577.65	3.0755E-01
577.98	3.0692E-01
578.32	3.1098E-01
578.66	3.0950E-01
578.99	3.1376E-01
579.33	3.1315E-01
579.67	3.1346E-01
580.00	3.1406E-01
580.34	3.1721E-01
580.67	3.1641E-01
581.01	3.1687E-01
581.35	3.1997E-01
581.68	3.2125E-01
582.02	3.2017E-01
582.35	3.2084E-01
582.69	3.2292E-01
583.02	3.2847E-01
583.36	3.2580E-01
583.70	3.2464E-01
584.03	3.2739E-01
584.37	3.2785E-01
584.70	3.3200E-01
585.04	3.3274E-01
585.37	3.3028E-01
585.71	3.3443E-01
586.04	3.3356E-01
586.38	3.3145E-01
586.72	3.3625E-01
587.05	3.3548E-01
587.39	3.3734E-01
587.72	3.3703E-01
588.06	3.3941E-01
588.39	3.3832E-01
588.73	3.4400E-01
589.06	3.4306E-01
589.40	3.4426E-01
589.73	3.4606E-01
590.07	3.4869E-01
590.40	3.4996E-01
590.73	3.5384E-01
591.07	3.5045E-01
591.40	3.5197E-01
591.74	3.4867E-01
592.07	3.5385E-01
592.41	3.5440E-01
592.74	3.5316E-01
593.08	3.5473E-01
593.41	3.5613E-01
593.75	3.5325E-01
594.08	3.6058E-01
594.41	3.5636E-01
594.75	3.6020E-01
595.08	3.5951E-01
595.42	3.5540E-01
595.75	3.5888E-01
596.09	3.5859E-01
596.42	3.5936E-01
596.75	3.6243E-01
597.09	3.6546E-01
597.42	3.6004E-01
597.75	3.6367E-01
598.09	3.6395E-01
598.42	3.6170E-01
598.76	3.6536E-01
599.09	3.6533E-01
599.42	3.6796E-01
599.76	3.6779E-01
600.09	3.6809E-01
600.42	3.7014E-01
600.76	3.6656E-01
601.09	3.6926E-01
601.42	3.7605E-01
601.76	3.6957E-01
602.09	3.7012E-01
602.42	3.7143E-01
602.76	3.7198E-01
603.09	3.6909E-01
603.42	3.7151E-01
603.76	3.7115E-01
604.09	3.7172E-01
604.42	3.7238E-01
604.76	3.7250E-01
605.09	3.7604E-01
605.42	3.7330E-01
605.75	3.7553E-01
606.09	3.7456E-01
606.42	3.7352E-01
606.75	3.7659E-01
607.09	3.7575E-01
607.42	3.7576E-01
607.75	3.7746E-01
608.08	3.7770E-01
608.42	3.7821E-01
608.75	3.7643E-01
609.08	3.8106E-01
609.41	3.7976E-01
609.75	3.7852E-01
610.08	3.7844E-01
610.41	3.8000E-01
610.74	3.7918E-01
611.07	3.8168E-01
611.41	3.7718E-01
611.74	3.8211E-01
612.07	3.8603E-01
612.40	3.7997E-01
612.73	3.8030E-01
613.07	3.8550E-01
613.40	3.8105E-01
613.73	3.8037E-01
614.06	3.8315E-01
614.39	3.8420E-01
614.72	3.8675E-01
615.06	3.8412E-01
615.39	3.8953E-01
615.72	3.8456E-01
616.05	3.8930E-01
616.38	3.8597E-01
616.71	3.8871E-01
617.05	3.8442E-01
617.38	3.9011E-01
617.71	3.8332E-01
618.04	3.9045E-01
618.37	3.8579E-01
618.70	3.8485E-01
619.03	3.9000E-01
619.36	3.8146E-01
619.69	3.9025E-01
620.03	3.8403E-01
620.36	3.8832E-01
620.69	3.8663E-01
621.02	3.8808E-01
621.35	3.8490E-01
621.68	3.8382E-01
622.01	3.8297E-01
622.34	3.8620E-01
622.67	3.8572E-01
623.00	3.8575E-01
623.33	3.8448E-01
623.66	3.8578E-01
623.99	3.8593E-01
624.32	3.8209E-01
624.65	3.8445E-01
624.99	3.8434E-01
625.32	3.8726E-01
625.65	3.8308E-01
625.98	3.8133E-01
626.31	3.8500E-01
626.64	3.8699E-01
626.97	3.8485E-01
627.30	3.8201E-01
627.63	3.8369E-01
627.96	3.8512E-01
628.29	3.8054E-01
628.62	3.8583E-01
628.95	3.8472E-01
629.28	3.7821E-01
629.61	3.8955E-01
629.94	3.8394E-01
630.26	3.8621E-01
630.59	3.8902E-01
630.92	3.8610E-01
631.25	3.8827E-01
631.58	3.9151E-01
631.91	3.8646E-01
632.24	3.9432E-01
632.57	3.8994E-01
632.90	3.9238E-01
633.23	3.9279E-01
633.56	3.9397E-01
633.89	3.9375E-01
634.22	3.9340E-01
634.55	3.9653E-01
634.88	4.0184E-01
635.20	3.9784E-01
635.53	4.0217E-01
635.86	4.0156E-01
636.19	4.0650E-01
636.52	4.0774E-01
636.85	4.0919E-01
637.18	4.1276E-01
637.51	4.1213E-01
637.83	4.1271E-01
638.16	4.1004E-01
638.49	4.1835E-01
638.82	4.1509E-01
639.15	4.2067E-01
639.48	4.2323E-01
639.81	4.2704E-01
640.13	4.2201E-01
640.46	4.2986E-01
640.79	4.2632E-01
641.12	4.3433E-01
641.45	4.3001E-01
641.77	4.3073E-01
642.10	4.3815E-01
642.43	4.4022E-01
642.76	4.4225E-01
643.09	4.3894E-01
643.41	4.4385E-01
643.74	4.4544E-01
644.07	4.4423E-01
644.40	4.4749E-01
644.73	4.5155E-01
645.05	4.5552E-01
645.38	4.5494E-01
645.71	4.6181E-01
646.04	4.5976E-01
646.36	4.5899E-01
646.69	4.6740E-01
647.02	4.6660E-01
647.35	4.6519E-01
647.67	4.6918E-01
648.00	4.6745E-01
648.33	4.7524E-01
648.66	4.7149E-01
648.98	4.7574E-01
649.31	4.7494E-01
649.64	4.7639E-01
649.96	4.7987E-01
650.29	4.8630E-01
650.62	4.8492E-01
650.94	4.8718E-01
651.27	4.8599E-01
651.60	4.8897E-01
651.92	4.9319E-01
652.25	4.9583E-01
652.58	4.9370E-01
652.90	4.9695E-01
653.23	4.9663E-01
653.56	5.0124E-01
653.88	5.0406E-01
654.21	5.0157E-01
654.54	5.0559E-01
654.86	5.0982E-01
655.19	5.0241E-01
655.52	5.1177E-01
655.84	5.0858E-01
656.17	5.1399E-01
656.49	5.1553E-01
656.82	5.1302E-01
657.15	5.1726E-01
657.47	5.1585E-01
657.80	5.2015E-01
658.13	5.1879E-01
658.45	5.2239E-01
658.78	5.2585E-01
659.10	5.2575E-01
659.43	5.3066E-01
659.75	5.2606E-01
660.08	5.2735E-01
660.41	5.3293E-01
660.73	5.3204E-01
661.06	5.3525E-01
661.38	5.3397E-01
661.71	5.3812E-01
662.03	5.3506E-01
662.36	5.4062E-01
662.68	5.4224E-01
663.01	5.3533E-01
663.33	5.4417E-01
663.66	5.4699E-01
663.98	5.4887E-01
664.31	5.4255E-01
664.63	5.5412E-01
664.96	5.4467E-01
665.28	5.5014E-01
665.61	5.4969E-01
665.93	5.5518E-01
666.26	5.5475E-01
666.58	5.5662E-01
666.91	5.5519E-01
667.23	5.5961E-01
667.56	5.5852E-01
667.88	5.5786E-01
668.21	5.6287E-01
668.53	5.6131E-01
668.86	5.6397E-01
669.18	5.6176E-01
669.50	5.7123E-01
669.83	5.7179E-01
670.15	5.7408E-01
670.48	5.7468E-01
670.80	5.6966E-01
671.13	5.6943E-01
671.45	5.7549E-01
671.77	5.7394E-01
672.10	5.7271E-01
672.42	5.8221E-01
672.75	5.7527E-01
673.07	5.8352E-01
673.39	5.8316E-01
673.72	5.8370E-01
674.04	5.8851E-01
674.37	5.8673E-01
674.69	5.8566E-01
675.01	5.9026E-01
675.34	5.9153E-01
675.66	5.9330E-01
675.98	5.8579E-01
676.31	5.9604E-01
676.63	5.9616E-01
676.95	5.9563E-01
677.28	6.0037E-01
677.60	5.9877E-01
677.92	6.0262E-01
678.25	6.0704E-01
678.57	6.0700E-01
678.89	6.0655E-01
679.22	6.0813E-01
679.54	6.0774E-01
679.86	6.1225E-01
680.18	6.1107E-01
680.51	6.0986E-01
680.83	6.2596E-01
681.15	6.1878E-01
681.48	6.1968E-01
681.80	6.2085E-01
682.12	6.1833E-01
682.44	6.2684E-01
682.77	6.2631E-01
683.09	6.3094E-01
683.41	6.3097E-01
683.73	6.3678E-01
684.06	6.3710E-01
684.38	6.3477E-01
684.70	6.3802E-01
685.02	6.3750E-01
685.34	6.4410E-01
685.67	6.4013E-01
685.99	6.5320E-01
686.31	6.4754E-01
686.63	6.5455E-01
686.96	6.5631E-01
687.28	6.5931E-01
687.60	6.5708E-01
687.92	6.5834E-01
688.24	6.6968E-01
688.56	6.6878E-01
688.89	6.6651E-01
689.21	6.7090E-01
689.53	6.7085E-01
689.85	6.8294E-01
690.17	6.7655E-01
690.49	6.8628E-01
690.82	6.8637E-01
691.14	6.8990E-01
691.46	6.8799E-01
691.78	6.9576E-01
692.10	6.9115E-01
692.42	6.9706E-01
692.74	7.0143E-01
693.06	7.0490E-01
693.39	7.1005E-01
693.71	7.1930E-01
694.03	7.1296E-01
694.35	7.1334E-01
694.67	7.2457E-01
694.99	7.2473E-01
695.31	7.3076E-01
695.63	7.3092E-01
695.95	7.3185E-01
696.27	7.3362E-01
696.59	7.3653E-01
696.91	7.4468E-01
697.23	7.4890E-01
697.56	7.5002E-01
697.88	7.5417E-01
698.20	7.5241E-01
698.52	7.5684E-01
698.84	7.6694E-01
699.16	7.7286E-01
699.48	7.7042E-01
699.80	7.7222E-01
700.12	7.8548E-01
700.44	7.8263E-01
700.76	7.8593E-01
701.08	7.9006E-01
701.40	7.9410E-01
701.72	7.9555E-01
702.04	8.0201E-01
702.36	8.0173E-01
702.68	8.0800E-01
703.00	8.1827E-01
703.32	8.1301E-01
703.64	8.2187E-01
703.96	8.1189E-01
704.28	8.2470E-01
704.60	8.3589E-01
704.91	8.3325E-01
705.23	8.4111E-01
705.55	8.4722E-01
705.87	8.5222E-01
706.19	8.5077E-01
706.51	8.4924E-01
706.83	8.4833E-01
707.15	8.7848E-01
707.47	8.6816E-01
707.79	8.7319E-01
708.11	8.7728E-01
708.43	8.7965E-01
708.74	8.8697E-01
709.06	8.9594E-01
709.38	8.9617E-01
709.70	8.9776E-01
710.02	9.0305E-01
710.34	8.9657E-01
710.66	9.1317E-01
710.98	9.1657E-01
711.29	9.2239E-01
711.61	9.3859E-01
711.93	9.3322E-01
712.25	9.3318E-01
712.57	9.4496E-01
712.89	9.5200E-01
713.20	9.5408E-01
713.52	9.6229E-01
713.84	9.6415E-01
714.16	9.5731E-01
714.48	9.6742E-01
714.80	9.8047E-01
715.11	9.7669E-01
715.43	9.9031E-01
715.75	9.8808E-01
716.07	1.0035E00
716.39	9.8697E-01
716.70	1.0006E00
717.02	9.9682E-01
717.34	1.0241E00
717.66	1.0147E00
717.97	1.0290E00
718.29	1.0389E00
718.61	1.0395E00
718.93	1.0422E00
719.24	1.0471E00
719.56	1.0668E00
719.88	1.0561E00
720.20	1.0765E00
720.51	1.0905E00
720.83	1.0787E00
721.15	1.0968E00
721.46	1.1037E00
721.78	1.1115E00
722.10	1.1252E00
722.42	1.1295E00
722.73	1.1288E00
723.05	1.1297E00
723.37	1.1443E00
723.68	1.1561E00
724.00	1.1560E00
724.32	1.1773E00
724.63	1.1648E00
724.95	1.1792E00
725.27	1.1813E00
725.58	1.1792E00
725.90	1.1752E00
726.22	1.2015E00
726.53	1.1900E00
726.85	1.2004E00
727.16	1.2075E00
727.48	1.2017E00
727.80	1.2153E00
728.11	1.2187E00
728.43	1.2233E00
728.74	1.2216E00
729.06	1.2267E00
729.38	1.2321E00
729.69	1.2285E00
730.01	1.2473E00
730.32	1.2446E00
730.64	1.2472E00
730.96	1.2360E00
731.27	1.2671E00
731.59	1.2519E00
731.90	1.2595E00
732.22	1.2682E00
732.53	1.2775E00
732.85	1.2756E00
733.16	1.2743E00
733.48	1.2706E00
733.80	1.2787E00
734.11	1.2899E00
734.43	1.3055E00
734.74	1.3083E00
735.06	1.3120E00
735.37	1.3231E00
735.69	1.3245E00
736.00	1.3144E00
736.32	1.3301E00
736.63	1.3243E00
736.95	1.3418E00
737.26	1.3509E00
737.58	1.3465E00
737.89	1.3750E00
738.21	1.3612E00
738.52	1.3582E00
738.83	1.3773E00
739.15	1.3647E00
739.46	1.3821E00
739.78	1.3819E00
740.09	1.3926E00
740.41	1.3797E00
740.72	1.3876E00
741.04	1.3838E00
741.35	1.3856E00
741.66	1.4108E00
741.98	1.4017E00
742.29	1.3966E00
742.61	1.4072E00
742.92	1.4138E00
743.23	1.4132E00
743.55	1.4140E00
743.86	1.4144E00
744.18	1.4210E00
744.49	1.4196E00
744.80	1.4119E00
745.12	1.4090E00
745.43	1.4185E00
745.74	1.4167E00
746.06	1.4170E00
746.37	1.4040E00
746.68	1.4199E00
747.00	1.4048E00
747.31	1.4206E00
747.62	1.4049E00
747.94	1.4372E00
748.25	1.4202E00
748.56	1.4189E00
748.88	1.4085E00
749.19	1.4253E00
749.50	1.4120E00
749.82	1.4180E00
750.13	1.4297E00
750.44	1.4172E00
750.75	1.4170E00
751.07	1.4236E00
751.38	1.4111E00
751.69	1.4119E00
752.01	1.4274E00
752.32	1.4358E00
752.63	1.4281E00
752.94	1.4238E00
753.26	1.4309E00
753.57	1.4390E00
753.88	1.4525E00
754.19	1.4329E00
754.51	1.4378E00
754.82	1.4539E00
755.13	1.4529E00
755.44	1.4643E00
755.75	1.4518E00
756.07	1.4602E00
756.38	1.4668E00
756.69	1.4724E00
757.00	1.4717E00
757.31	1.5010E00
757.63	1.4934E00
757.94	1.5040E00
758.25	1.5132E00
758.56	1.4966E00
758.87	1.5160E00
759.18	1.5205E00
759.50	1.5264E00
759.81	1.5290E00
760.12	1.5476E00
760.43	1.5637E00
760.74	1.5859E00
761.05	1.3608E00
761.36	9.9073E-01
761.67	1.2487E00
761.99	1.4758E00
762.30	1.5975E00
762.61	1.6206E00
762.92	1.5996E00
763.23	1.5214E00
763.54	1.5140E00
763.85	1.5252E00
764.16	1.5886E00
764.47	1.7050E00
764.78	1.7258E00
765.10	1.7241E00
765.41	1.7209E00
765.72	1.7256E00
766.03	1.7629E00
766.34	1.7700E00
766.65	1.7568E00
766.96	1.8064E00
767.27	1.7974E00
767.58	1.7908E00
767.89	1.8202E00
768.20	1.8391E00
768.51	1.8383E00
768.82	1.8509E00
769.13	1.8645E00
769.44	1.9039E00
769.75	1.9159E00
770.06	1.9347E00
770.37	1.9128E00
770.68	1.9574E00
770.99	1.9772E00
771.30	2.0024E00
771.61	2.0408E00
771.92	2.0323E00
772.23	2.0299E00
772.54	2.0703E00
772.85	2.0607E00
773.16	2.0760E00
773.47	2.1199E00
773.78	2.0992E00
774.09	2.1497E00
774.39	2.1504E00
774.70	2.1844E00
775.01	2.1988E00
775.32	2.2212E00
775.63	2.2367E00
775.94	2.2619E00
776.25	2.2436E00
776.56	2.2829E00
776.87	2.3528E00
777.18	2.3208E00
777.48	2.3632E00
777.79	2.3829E00
778.10	2.4020E00
778.41	2.4157E00
778.72	2.4578E00
779.03	2.4579E00
779.34	2.4879E00
779.65	2.4932E00
779.95	2.5216E00
780.26	2.5359E00
780.57	2.5489E00
780.88	2.5793E00
781.19	2.5957E00
781.50	2.6128E00
781.80	2.6449E00
782.11	2.6772E00
782.42	2.6900E00
782.73	2.6609E00
783.04	2.7606E00
783.34	2.7461E00
783.65	2.7992E00
783.96	2.8066E00
784.27	2.8171E00
784.57	2.8028E00
784.88	2.8573E00
785.19	2.8745E00
785.50	2.9031E00
785.81	2.9480E00
786.11	2.9267E00
786.42	2.9677E00
786.73	3.0298E00
787.04	3.0452E00
787.34	3.0606E00
787.65	3.0306E00
787.96	3.1373E00
788.26	3.1151E00
788.57	3.1935E00
788.88	3.1277E00
789.19	3.2471E00
789.49	3.2314E00
789.80	3.3053E00
790.11	3.3112E00
790.41	3.2840E00
790.72	3.3817E00
791.03	3.4146E00
791.33	3.3981E00
791.64	3.4724E00
791.95	3.4612E00
792.25	3.5232E00
792.56	3.5287E00
792.87	3.5216E00
793.17	3.5485E00
793.48	3.5758E00
793.79	3.6656E00
794.09	3.6836E00
794.40	3.6633E00
794.70	3.6459E00
795.01	3.7613E00
795.32	3.7607E00
795.62	3.8032E00
795.93	3.8249E00
796.23	3.8622E00
796.54	3.8650E00
796.85	3.8017E00
797.15	3.7441E00
797.46	3.6511E00
797.76	3.6886E00
798.07	3.6860E00
798.37	3.6794E00
798.68	3.6428E00
798.99	3.6599E00
799.29	3.6199E00
799.60	3.6644E00
799.90	3.6085E00
800.21	3.6056E00
800.51	3.5418E00
800.82	3.6342E00
801.12	3.6095E00
801.43	3.6272E00
801.73	3.5351E00
802.04	3.6120E00
802.34	3.5512E00
802.65	3.5566E00
802.95	3.5546E00
803.26	3.5533E00
803.56	3.5579E00
803.87	3.5640E00
804.17	3.5952E00
804.48	3.5709E00
804.78	3.6128E00
805.09	3.6181E00
805.39	3.6647E00
805.70	3.7030E00
806.00	3.7407E00
806.30	3.8095E00
806.61	3.7387E00
806.91	3.7639E00
807.22	3.8229E00
807.52	3.8014E00
807.83	3.7881E00
808.13	3.8403E00
808.43	3.7560E00
808.74	3.7604E00
809.04	3.6794E00
809.35	3.6655E00
809.65	3.6996E00
809.95	3.6137E00
810.26	3.5470E00
810.56	3.5508E00
810.86	3.6146E00
811.17	3.4563E00
811.47	3.4805E00
811.77	3.3774E00
812.08	3.2719E00
812.38	3.2967E00
812.69	3.2442E00
812.99	3.1969E00
813.29	3.0549E00
813.59	2.9294E00
813.90	2.9137E00
814.20	2.8000E00
814.50	2.7899E00
814.81	2.6440E00
815.11	2.6284E00
815.41	2.4603E00
815.72	2.4827E00
816.02	2.3997E00
816.32	2.3347E00
816.62	2.2341E00
816.93	2.2914E00
817.23	2.3057E00
817.53	2.2592E00
817.84	2.2804E00
818.14	2.2851E00
818.44	2.3162E00
818.74	2.4024E00
819.04	2.3713E00
819.35	2.3818E00
819.65	2.3502E00
819.95	2.3506E00
820.25	2.4789E00
820.56	2.5675E00
820.86	2.7097E00
821.16	2.8391E00
821.46	2.8835E00
821.76	2.8047E00
822.07	2.9433E00
822.37	2.7710E00
822.67	2.8075E00
822.97	2.5474E00
823.27	2.2302E00
823.57	2.1227E00
823.88	2.2496E00
824.18	2.2428E00
824.48	2.4090E00
824.78	2.5362E00
825.08	2.6496E00
825.38	2.7640E00
825.69	2.7311E00
825.99	2.6915E00
826.29	2.6967E00
826.59	2.7470E00
826.89	2.8351E00
827.19	2.9822E00
827.49	2.7854E00
827.79	2.5995E00
828.09	2.5738E00
828.39	2.4873E00
828.70	2.5133E00
829.00	2.5171E00
829.30	2.4539E00
829.60	2.4379E00
829.90	2.4502E00
830.20	2.4120E00
830.50	2.4360E00
830.80	2.5071E00
831.10	2.4056E00
831.40	2.5137E00
831.70	2.5349E00
832.00	2.5277E00
832.30	2.4324E00
832.60	2.4121E00
832.90	2.4324E00
833.20	2.4228E00
833.50	2.4498E00
833.80	2.4018E00
834.10	2.3965E00
834.40	2.5567E00
834.70	2.5487E00
835.00	2.4962E00
835.30	2.5719E00
835.60	2.5533E00
835.90	2.5537E00
836.20	2.6219E00
836.50	2.6653E00
836.80	2.7629E00
837.10	3.1913E00
837.40	2.7729E00
837.70	2.8104E00
838.00	2.6827E00
838.30	2.7996E00
838.60	2.7320E00
838.90	2.8286E00
839.19	3.1749E00
839.49	2.8148E00
839.79	2.8002E00
840.09	2.8075E00
840.39	2.9083E00
840.69	2.8975E00
840.99	3.0583E00
841.29	2.9437E00
841.59	2.8192E00
841.88	2.8348E00
842.18	2.9031E00
842.48	2.8603E00
842.78	2.8576E00
843.08	2.8598E00
843.38	2.8688E00
843.68	3.0726E00
843.97	3.0991E00
844.27	3.0025E00
844.57	2.8635E00
844.87	2.8742E00
845.17	2.9511E00
845.47	2.8517E00
845.76	3.0351E00
846.06	3.0214E00
846.36	3.5847E00
846.66	2.9163E00
846.96	2.9907E00
847.25	2.9832E00
847.55	2.8879E00
847.85	2.9561E00
848.15	3.0007E00
848.44	2.9158E00
848.74	2.9545E00
849.04	2.9676E00
849.34	3.0352E00
849.63	2.9099E00
849.93	2.8833E00
850.23	2.8128E00
850.53	2.8343E00
850.82	2.8587E00
851.12	2.8757E00
851.42	2.8945E00
851.71	2.8668E00
852.01	2.8362E00
852.31	2.8391E00
852.61	2.8826E00
852.90	2.7836E00
853.20	3.0101E00
853.50	3.2129E00
853.79	3.0781E00
854.09	2.8395E00
854.39	2.7999E00
854.68	2.7181E00
854.98	2.6819E00
855.28	2.7474E00
855.57	2.8474E00
855.87	2.7667E00
856.17	2.7603E00
856.46	2.7457E00
856.76	2.6653E00
857.05	2.9031E00
857.35	2.8740E00
857.65	3.1631E00
857.94	3.0112E00
858.24	3.0622E00
858.53	2.9255E00
858.83	3.6270E00
859.13	3.0081E00
859.42	3.0059E00
859.72	3.0613E00
860.01	2.9947E00
860.31	2.9513E00
860.60	3.0245E00
860.90	3.2193E00
861.20	2.9266E00
861.49	2.9383E00
861.79	3.0022E00
862.08	4.1499E00
862.38	3.2415E00
862.67	2.9782E00
862.97	3.0014E00
863.26	3.0801E00
863.56	3.1515E00
863.85	3.4071E00
864.15	3.1014E00
864.44	3.0612E00
864.74	2.9930E00
865.03	3.3868E00
865.33	3.2425E00
865.62	3.0336E00
865.92	2.9886E00
866.21	2.9674E00
866.51	2.9304E00
866.80	3.1961E00
867.10	3.2023E00
867.39	3.0441E00
867.69	3.2529E00
867.98	2.7897E00
868.27	2.8409E00
868.57	2.9236E00
868.86	3.0740E00
869.16	2.7780E00
869.45	2.9893E00
869.75	2.9443E00
870.04	2.9684E00
870.33	3.2190E00
870.63	3.0362E00
870.92	3.0681E00
871.22	4.2688E00
871.51	3.0801E00
871.80	3.1641E00
872.10	3.1641E00
>>>>>End Processed Spectral Data<<<<<
