SpectraSuite Data File
++++++++++++++++++++++++++++++++++++
Date: Fri May 15 07:58:41 PDT 2015
User: schluterlab
Dark Spectrum Present: Yes
Reference Spectrum Present: No
Number of Sampled Component Spectra: 1
Spectrometers: USB2E3373
Integration Time (usec): 2300000 (USB2E3373)
Spectra Averaged: 3 (USB2E3373)
Boxcar Smoothing: 0 (USB2E3373)
Correct for Electrical Dark: No (USB2E3373)
Strobe/Lamp Enabled: No (USB2E3373)
Correct for Detector Non-linearity: No (USB2E3373)
Correct for Stray Light: No (USB2E3373)
Number of Pixels in Processed Spectrum: 2048
>>>>>Begin Processed Spectral Data<<<<<
178.53	0.0000E00
178.91	0.0000E00
179.29	0.0000E00
179.67	0.0000E00
180.04	0.0000E00
180.42	0.0000E00
180.80	0.0000E00
181.18	0.0000E00
181.56	0.0000E00
181.94	0.0000E00
182.31	0.0000E00
182.69	0.0000E00
183.07	0.0000E00
183.45	0.0000E00
183.83	0.0000E00
184.20	0.0000E00
184.58	0.0000E00
184.96	0.0000E00
185.34	0.0000E00
185.72	0.0000E00
186.09	0.0000E00
186.47	0.0000E00
186.85	0.0000E00
187.23	0.0000E00
187.61	-0.0000E00
187.98	0.0000E00
188.36	0.0000E00
188.74	0.0000E00
189.12	0.0000E00
189.49	0.0000E00
189.87	0.0000E00
190.25	0.0000E00
190.63	0.0000E00
191.00	0.0000E00
191.38	0.0000E00
191.76	0.0000E00
192.14	0.0000E00
192.51	0.0000E00
192.89	0.0000E00
193.27	0.0000E00
193.65	0.0000E00
194.02	0.0000E00
194.40	0.0000E00
194.78	0.0000E00
195.15	0.0000E00
195.53	0.0000E00
195.91	0.0000E00
196.29	0.0000E00
196.66	0.0000E00
197.04	0.0000E00
197.42	0.0000E00
197.79	0.0000E00
198.17	0.0000E00
198.55	0.0000E00
198.92	0.0000E00
199.30	0.0000E00
199.68	0.0000E00
200.05	0.0000E00
200.43	0.0000E00
200.81	0.0000E00
201.18	0.0000E00
201.56	0.0000E00
201.94	0.0000E00
202.31	0.0000E00
202.69	0.0000E00
203.07	0.0000E00
203.44	0.0000E00
203.82	0.0000E00
204.19	0.0000E00
204.57	0.0000E00
204.95	0.0000E00
205.32	0.0000E00
205.70	0.0000E00
206.08	0.0000E00
206.45	0.0000E00
206.83	0.0000E00
207.20	0.0000E00
207.58	0.0000E00
207.96	0.0000E00
208.33	0.0000E00
208.71	0.0000E00
209.08	0.0000E00
209.46	0.0000E00
209.84	0.0000E00
210.21	0.0000E00
210.59	0.0000E00
210.96	0.0000E00
211.34	0.0000E00
211.71	0.0000E00
212.09	0.0000E00
212.46	0.0000E00
212.84	0.0000E00
213.22	0.0000E00
213.59	0.0000E00
213.97	0.0000E00
214.34	0.0000E00
214.72	0.0000E00
215.09	0.0000E00
215.47	0.0000E00
215.84	0.0000E00
216.22	0.0000E00
216.59	0.0000E00
216.97	0.0000E00
217.34	0.0000E00
217.72	0.0000E00
218.09	0.0000E00
218.47	0.0000E00
218.84	0.0000E00
219.22	0.0000E00
219.59	0.0000E00
219.97	0.0000E00
220.34	0.0000E00
220.72	0.0000E00
221.09	0.0000E00
221.47	0.0000E00
221.84	0.0000E00
222.22	0.0000E00
222.59	0.0000E00
222.97	0.0000E00
223.34	0.0000E00
223.72	0.0000E00
224.09	0.0000E00
224.46	0.0000E00
224.84	0.0000E00
225.21	0.0000E00
225.59	0.0000E00
225.96	0.0000E00
226.34	0.0000E00
226.71	0.0000E00
227.08	0.0000E00
227.46	0.0000E00
227.83	0.0000E00
228.21	0.0000E00
228.58	0.0000E00
228.95	0.0000E00
229.33	0.0000E00
229.70	0.0000E00
230.08	0.0000E00
230.45	0.0000E00
230.82	0.0000E00
231.20	0.0000E00
231.57	0.0000E00
231.95	0.0000E00
232.32	0.0000E00
232.69	0.0000E00
233.07	0.0000E00
233.44	-0.0000E00
233.81	0.0000E00
234.19	0.0000E00
234.56	0.0000E00
234.93	0.0000E00
235.31	0.0000E00
235.68	0.0000E00
236.05	0.0000E00
236.43	0.0000E00
236.80	-0.0000E00
237.17	0.0000E00
237.55	0.0000E00
237.92	0.0000E00
238.29	0.0000E00
238.67	0.0000E00
239.04	0.0000E00
239.41	0.0000E00
239.79	0.0000E00
240.16	0.0000E00
240.53	0.0000E00
240.91	0.0000E00
241.28	0.0000E00
241.65	0.0000E00
242.02	0.0000E00
242.40	0.0000E00
242.77	0.0000E00
243.14	0.0000E00
243.51	0.0000E00
243.89	0.0000E00
244.26	0.0000E00
244.63	0.0000E00
245.00	0.0000E00
245.38	0.0000E00
245.75	0.0000E00
246.12	0.0000E00
246.49	0.0000E00
246.87	0.0000E00
247.24	0.0000E00
247.61	0.0000E00
247.98	0.0000E00
248.36	0.0000E00
248.73	0.0000E00
249.10	0.0000E00
249.47	0.0000E00
249.84	0.0000E00
250.22	0.0000E00
250.59	0.0000E00
250.96	0.0000E00
251.33	0.0000E00
251.70	0.0000E00
252.08	0.0000E00
252.45	0.0000E00
252.82	0.0000E00
253.19	0.0000E00
253.56	0.0000E00
253.94	0.0000E00
254.31	0.0000E00
254.68	0.0000E00
255.05	0.0000E00
255.42	0.0000E00
255.79	0.0000E00
256.16	0.0000E00
256.54	0.0000E00
256.91	0.0000E00
257.28	0.0000E00
257.65	0.0000E00
258.02	0.0000E00
258.39	0.0000E00
258.76	0.0000E00
259.14	0.0000E00
259.51	0.0000E00
259.88	0.0000E00
260.25	0.0000E00
260.62	0.0000E00
260.99	0.0000E00
261.36	0.0000E00
261.73	0.0000E00
262.10	0.0000E00
262.47	0.0000E00
262.85	0.0000E00
263.22	0.0000E00
263.59	0.0000E00
263.96	0.0000E00
264.33	0.0000E00
264.70	0.0000E00
265.07	0.0000E00
265.44	0.0000E00
265.81	0.0000E00
266.18	0.0000E00
266.55	0.0000E00
266.92	0.0000E00
267.29	0.0000E00
267.66	0.0000E00
268.03	0.0000E00
268.40	0.0000E00
268.77	0.0000E00
269.14	0.0000E00
269.51	0.0000E00
269.88	0.0000E00
270.25	0.0000E00
270.62	0.0000E00
270.99	0.0000E00
271.36	0.0000E00
271.73	0.0000E00
272.10	0.0000E00
272.47	0.0000E00
272.84	0.0000E00
273.21	0.0000E00
273.58	0.0000E00
273.95	0.0000E00
274.32	0.0000E00
274.69	0.0000E00
275.06	0.0000E00
275.43	0.0000E00
275.80	0.0000E00
276.17	0.0000E00
276.54	0.0000E00
276.91	0.0000E00
277.28	0.0000E00
277.65	-0.0000E00
278.02	0.0000E00
278.39	0.0000E00
278.76	0.0000E00
279.13	0.0000E00
279.50	0.0000E00
279.87	0.0000E00
280.23	0.0000E00
280.60	0.0000E00
280.97	0.0000E00
281.34	0.0000E00
281.71	0.0000E00
282.08	0.0000E00
282.45	0.0000E00
282.82	0.0000E00
283.19	0.0000E00
283.56	0.0000E00
283.92	0.0000E00
284.29	0.0000E00
284.66	0.0000E00
285.03	0.0000E00
285.40	0.0000E00
285.77	0.0000E00
286.14	0.0000E00
286.51	0.0000E00
286.87	0.0000E00
287.24	0.0000E00
287.61	0.0000E00
287.98	0.0000E00
288.35	0.0000E00
288.72	0.0000E00
289.08	0.0000E00
289.45	0.0000E00
289.82	0.0000E00
290.19	0.0000E00
290.56	0.0000E00
290.93	0.0000E00
291.29	0.0000E00
291.66	0.0000E00
292.03	0.0000E00
292.40	0.0000E00
292.77	0.0000E00
293.13	0.0000E00
293.50	0.0000E00
293.87	0.0000E00
294.24	0.0000E00
294.60	0.0000E00
294.97	0.0000E00
295.34	0.0000E00
295.71	0.0000E00
296.08	0.0000E00
296.44	0.0000E00
296.81	0.0000E00
297.18	0.0000E00
297.55	0.0000E00
297.91	0.0000E00
298.28	0.0000E00
298.65	0.0000E00
299.02	0.0000E00
299.38	0.0000E00
299.75	0.0000E00
300.12	3.3416E-01
300.48	7.4435E-01
300.85	7.7490E-01
301.22	3.8517E-01
301.59	6.4931E-01
301.95	1.1424E00
302.32	4.1412E-01
302.69	3.5195E-01
303.05	4.8732E-01
303.42	8.6296E-01
303.79	4.8229E-01
304.15	4.5010E-01
304.52	4.1318E-01
304.89	5.1651E-01
305.25	8.5504E-01
305.62	6.4151E-01
305.99	5.5706E-01
306.35	1.1761E00
306.72	5.9333E-01
307.09	1.1189E00
307.45	1.4727E00
307.82	8.2843E-01
308.19	5.6368E00
308.55	9.3985E-01
308.92	9.0034E-01
309.29	1.1081E00
309.65	1.6947E00
310.02	1.1811E00
310.38	1.2513E00
310.75	9.6246E-01
311.12	1.5183E00
311.48	1.5189E00
311.85	9.4691E-01
312.22	1.2112E00
312.58	1.5186E00
312.95	1.4533E00
313.31	1.3944E00
313.68	1.1424E00
314.05	2.0674E00
314.41	1.0066E00
314.78	2.6173E00
315.14	1.3750E00
315.51	1.5168E00
315.87	1.5280E00
316.24	1.9016E00
316.61	1.1239E00
316.97	2.5255E00
317.34	1.4414E00
317.70	1.6706E00
318.07	1.6023E00
318.43	9.7048E-01
318.80	1.1813E00
319.16	2.3054E00
319.53	9.1737E-01
319.89	1.4651E00
320.26	9.5801E-01
320.62	2.1033E00
320.99	1.8054E00
321.35	1.8181E00
321.72	1.0195E00
322.08	1.1548E00
322.45	1.3317E00
322.81	2.5045E00
323.18	1.1829E00
323.54	1.0042E00
323.91	1.5376E00
324.27	1.2102E00
324.64	3.9000E00
325.00	4.3575E00
325.37	2.0782E00
325.73	2.4833E00
326.10	1.9970E00
326.46	1.4871E00
326.83	1.4414E00
327.19	1.7615E00
327.56	1.2332E00
327.92	2.5521E00
328.29	1.2410E00
328.65	1.0027E00
329.01	1.2475E00
329.38	1.2902E00
329.74	1.5889E00
330.11	1.5318E00
330.47	3.1806E00
330.84	1.6543E00
331.20	8.7864E-01
331.56	4.1297E00
331.93	1.9646E00
332.29	1.7892E00
332.66	2.0541E00
333.02	1.7814E00
333.38	1.1052E00
333.75	2.4002E00
334.11	1.0719E00
334.48	1.6934E00
334.84	9.6624E-01
335.20	1.4448E00
335.57	1.6831E00
335.93	1.3895E00
336.29	1.4359E00
336.66	1.4344E00
337.02	1.2159E00
337.38	1.4866E00
337.75	1.1465E00
338.11	1.3854E00
338.47	1.0573E00
338.84	1.4394E00
339.20	1.5532E00
339.56	1.6875E00
339.93	1.5647E00
340.29	1.2380E00
340.65	1.0535E00
341.02	1.5890E00
341.38	1.0652E00
341.74	1.3515E00
342.11	4.6919E00
342.47	1.5205E00
342.83	1.3843E00
343.20	1.7323E00
343.56	1.4562E00
343.92	1.4219E00
344.28	1.0594E00
344.65	1.1823E00
345.01	9.8647E-01
345.37	1.1744E00
345.73	1.4465E00
346.10	1.3334E00
346.46	8.7298E-01
346.82	1.5351E00
347.19	1.7135E00
347.55	1.5633E00
347.91	2.0350E00
348.27	1.0951E00
348.63	1.6035E00
349.00	1.5158E00
349.36	1.3256E00
349.72	1.6918E00
350.08	1.2771E00
350.45	1.1412E00
350.81	1.3591E00
351.17	2.2584E00
351.53	1.8640E00
351.89	1.4559E00
352.26	9.3899E-01
352.62	1.0153E00
352.98	1.1043E00
353.34	1.2988E00
353.70	1.4452E00
354.07	1.1662E00
354.43	1.0774E00
354.79	1.4611E00
355.15	1.2329E00
355.51	1.5548E00
355.87	9.4233E-01
356.24	9.4626E-01
356.60	1.0210E00
356.96	1.1074E00
357.32	1.0703E00
357.68	1.2436E00
358.04	1.0038E00
358.40	1.4514E00
358.77	1.1865E00
359.13	8.5633E-01
359.49	1.2290E00
359.85	1.0401E00
360.21	1.3042E00
360.57	9.6952E-01
360.93	1.2707E00
361.29	1.2305E00
361.66	9.2256E-01
362.02	9.3266E-01
362.38	1.0912E00
362.74	9.2448E-01
363.10	8.7040E-01
363.46	9.5947E-01
363.82	9.8458E-01
364.18	1.0780E00
364.54	9.7864E-01
364.90	8.8581E-01
365.26	1.4806E00
365.62	8.7300E-01
365.98	1.1441E00
366.35	1.1212E00
366.71	9.4072E-01
367.07	1.1126E00
367.43	1.0161E00
367.79	9.6121E-01
368.15	1.1185E00
368.51	1.1825E00
368.87	1.1789E00
369.23	9.8029E-01
369.59	1.0433E00
369.95	1.0997E00
370.31	9.5241E-01
370.67	8.9799E-01
371.03	9.9530E-01
371.39	1.0705E00
371.75	1.2248E00
372.11	1.1059E00
372.47	8.8449E-01
372.83	1.3179E00
373.19	1.1850E00
373.55	8.6480E-01
373.91	1.0015E00
374.27	1.0101E00
374.63	1.0079E00
374.99	1.0177E00
375.35	8.9531E-01
375.71	8.9537E-01
376.07	8.9464E-01
376.42	1.0425E00
376.78	1.0521E00
377.14	8.2345E-01
377.50	1.0039E00
377.86	9.3483E-01
378.22	8.0522E-01
378.58	8.6872E-01
378.94	8.5461E-01
379.30	9.8851E-01
379.66	8.9269E-01
380.02	8.3527E-01
380.38	9.5985E-01
380.74	7.9870E-01
381.09	8.7237E-01
381.45	7.6702E-01
381.81	8.5453E-01
382.17	9.2908E-01
382.53	8.1816E-01
382.89	9.3805E-01
383.25	7.0342E-01
383.61	8.1248E-01
383.97	7.8645E-01
384.32	8.9269E-01
384.68	8.4817E-01
385.04	8.8211E-01
385.40	8.2265E-01
385.76	8.7919E-01
386.12	8.3846E-01
386.48	7.9724E-01
386.83	7.8373E-01
387.19	8.1208E-01
387.55	8.7085E-01
387.91	7.8105E-01
388.27	8.2962E-01
388.62	8.2186E-01
388.98	8.3424E-01
389.34	8.0115E-01
389.70	8.4484E-01
390.06	8.2587E-01
390.42	8.1856E-01
390.77	8.0060E-01
391.13	7.7642E-01
391.49	8.3553E-01
391.85	7.6041E-01
392.20	8.1135E-01
392.56	8.0453E-01
392.92	7.8462E-01
393.28	7.7487E-01
393.64	8.5547E-01
393.99	7.5237E-01
394.35	8.0823E-01
394.71	8.7672E-01
395.07	8.3513E-01
395.42	7.6672E-01
395.78	8.0143E-01
396.14	7.4204E-01
396.50	7.4491E-01
396.85	7.4838E-01
397.21	7.4088E-01
397.57	8.2351E-01
397.92	7.9047E-01
398.28	7.5691E-01
398.64	8.5358E-01
399.00	7.1619E-01
399.35	6.7802E-01
399.71	7.2527E-01
400.07	7.2928E-01
400.42	7.3906E-01
400.78	7.3498E-01
401.14	7.2037E-01
401.49	7.4476E-01
401.85	6.8169E-01
402.21	6.7235E-01
402.57	6.9109E-01
402.92	7.0537E-01
403.28	6.7550E-01
403.63	6.9635E-01
403.99	7.5690E-01
404.35	6.8802E-01
404.70	6.6728E-01
405.06	6.5486E-01
405.42	6.9592E-01
405.77	6.7971E-01
406.13	6.3122E-01
406.49	6.7121E-01
406.84	6.4463E-01
407.20	6.3995E-01
407.55	7.0279E-01
407.91	7.1125E-01
408.27	6.5657E-01
408.62	6.3647E-01
408.98	6.8993E-01
409.34	6.8520E-01
409.69	6.8240E-01
410.05	6.6652E-01
410.40	6.4467E-01
410.76	6.3333E-01
411.11	6.2498E-01
411.47	6.9631E-01
411.83	6.3565E-01
412.18	6.4679E-01
412.54	6.5403E-01
412.89	6.7089E-01
413.25	6.3814E-01
413.60	6.2493E-01
413.96	6.6702E-01
414.31	6.4627E-01
414.67	6.5212E-01
415.03	6.7508E-01
415.38	6.7761E-01
415.74	6.6830E-01
416.09	6.7930E-01
416.45	6.7416E-01
416.80	6.5148E-01
417.16	6.5191E-01
417.51	6.5141E-01
417.87	6.4423E-01
418.22	6.0889E-01
418.58	6.2290E-01
418.93	6.3246E-01
419.29	6.5755E-01
419.64	6.3926E-01
420.00	6.2008E-01
420.35	6.1142E-01
420.71	6.0905E-01
421.06	6.1479E-01
421.42	6.2555E-01
421.77	6.2938E-01
422.12	6.1099E-01
422.48	5.7374E-01
422.83	6.4215E-01
423.19	5.9349E-01
423.54	6.1218E-01
423.90	6.1590E-01
424.25	6.0488E-01
424.61	6.2727E-01
424.96	5.8914E-01
425.31	5.6396E-01
425.67	5.7470E-01
426.02	5.8103E-01
426.38	5.9100E-01
426.73	5.6576E-01
427.09	5.8809E-01
427.44	5.8307E-01
427.79	5.4781E-01
428.15	6.0196E-01
428.50	5.6701E-01
428.85	5.9741E-01
429.21	5.5019E-01
429.56	5.2062E-01
429.92	5.4285E-01
430.27	5.4408E-01
430.62	5.5601E-01
430.98	5.7655E-01
431.33	5.6176E-01
431.68	5.5514E-01
432.04	5.5499E-01
432.39	5.3528E-01
432.74	5.6221E-01
433.10	5.2626E-01
433.45	5.6905E-01
433.80	5.4639E-01
434.16	5.5908E-01
434.51	5.4378E-01
434.86	5.4991E-01
435.22	5.3152E-01
435.57	5.8104E-01
435.92	5.6163E-01
436.28	5.5373E-01
436.63	5.2954E-01
436.98	5.3867E-01
437.34	5.6309E-01
437.69	5.4306E-01
438.04	5.2094E-01
438.39	5.4666E-01
438.75	5.2711E-01
439.10	5.2089E-01
439.45	5.4810E-01
439.81	5.3446E-01
440.16	5.1519E-01
440.51	5.2242E-01
440.86	5.1455E-01
441.22	5.2152E-01
441.57	5.2828E-01
441.92	5.0209E-01
442.27	5.3473E-01
442.63	5.2486E-01
442.98	5.4016E-01
443.33	5.4100E-01
443.68	5.2350E-01
444.03	4.8748E-01
444.39	4.9267E-01
444.74	5.1862E-01
445.09	5.2232E-01
445.44	5.4447E-01
445.79	4.8114E-01
446.15	5.1014E-01
446.50	5.1252E-01
446.85	4.8125E-01
447.20	4.8767E-01
447.55	5.1241E-01
447.91	5.1198E-01
448.26	5.0030E-01
448.61	5.0083E-01
448.96	4.9644E-01
449.31	4.9400E-01
449.66	5.1476E-01
450.02	4.9844E-01
450.37	4.9958E-01
450.72	4.8609E-01
451.07	5.2192E-01
451.42	5.1456E-01
451.77	4.9970E-01
452.12	4.8693E-01
452.47	5.2895E-01
452.83	4.7449E-01
453.18	5.1088E-01
453.53	4.8942E-01
453.88	4.7219E-01
454.23	4.7997E-01
454.58	4.8856E-01
454.93	4.9134E-01
455.28	4.9203E-01
455.63	4.8827E-01
455.98	4.6590E-01
456.34	4.8908E-01
456.69	4.8269E-01
457.04	4.7041E-01
457.39	4.5653E-01
457.74	4.5472E-01
458.09	4.6844E-01
458.44	4.5188E-01
458.79	4.4036E-01
459.14	4.5210E-01
459.49	4.7325E-01
459.84	4.4607E-01
460.19	4.7574E-01
460.54	4.7140E-01
460.89	4.3679E-01
461.24	4.7583E-01
461.59	4.6323E-01
461.94	4.6851E-01
462.29	4.3228E-01
462.64	4.6358E-01
462.99	4.6397E-01
463.34	4.8132E-01
463.69	4.4558E-01
464.04	4.3607E-01
464.39	4.4498E-01
464.74	4.4962E-01
465.09	4.5990E-01
465.44	4.4646E-01
465.79	4.4599E-01
466.14	4.4695E-01
466.49	4.4362E-01
466.84	4.4742E-01
467.19	4.5264E-01
467.54	4.5211E-01
467.89	4.2874E-01
468.24	4.1671E-01
468.59	4.3105E-01
468.94	4.2069E-01
469.29	4.2239E-01
469.64	4.3898E-01
469.99	4.1967E-01
470.34	4.0378E-01
470.68	4.3878E-01
471.03	4.0873E-01
471.38	4.1275E-01
471.73	4.0296E-01
472.08	3.9287E-01
472.43	3.8449E-01
472.78	3.9917E-01
473.13	3.9959E-01
473.48	3.8991E-01
473.83	3.8296E-01
474.17	3.9026E-01
474.52	3.8623E-01
474.87	3.6848E-01
475.22	3.7345E-01
475.57	3.5475E-01
475.92	3.4238E-01
476.27	3.6354E-01
476.61	3.4793E-01
476.96	3.4387E-01
477.31	3.2663E-01
477.66	3.3662E-01
478.01	3.3185E-01
478.36	3.2780E-01
478.70	3.2536E-01
479.05	3.2992E-01
479.40	3.1369E-01
479.75	3.1516E-01
480.10	3.1225E-01
480.45	3.0873E-01
480.79	3.0754E-01
481.14	3.1542E-01
481.49	3.0649E-01
481.84	2.9739E-01
482.19	2.9323E-01
482.53	2.9365E-01
482.88	2.9210E-01
483.23	2.8832E-01
483.58	2.8324E-01
483.92	2.8971E-01
484.27	2.7718E-01
484.62	2.7810E-01
484.97	2.7263E-01
485.31	2.6887E-01
485.66	2.7551E-01
486.01	2.7321E-01
486.36	2.6647E-01
486.70	2.7073E-01
487.05	2.6921E-01
487.40	2.6380E-01
487.75	2.5594E-01
488.09	2.6009E-01
488.44	2.6756E-01
488.79	2.5691E-01
489.13	2.5875E-01
489.48	2.5931E-01
489.83	2.6087E-01
490.17	2.5260E-01
490.52	2.5332E-01
490.87	2.5449E-01
491.22	2.5727E-01
491.56	2.5253E-01
491.91	2.5645E-01
492.26	2.5355E-01
492.60	2.5285E-01
492.95	2.5423E-01
493.30	2.5655E-01
493.64	2.5143E-01
493.99	2.5406E-01
494.34	2.5180E-01
494.68	2.4707E-01
495.03	2.5475E-01
495.37	2.5066E-01
495.72	2.5299E-01
496.07	2.4867E-01
496.41	2.5240E-01
496.76	2.5041E-01
497.11	2.5218E-01
497.45	2.5050E-01
497.80	2.5230E-01
498.14	2.5256E-01
498.49	2.5276E-01
498.84	2.5188E-01
499.18	2.5030E-01
499.53	2.5345E-01
499.87	2.5193E-01
500.22	2.5378E-01
500.56	2.5237E-01
500.91	2.5085E-01
501.26	2.5255E-01
501.60	2.5196E-01
501.95	2.4865E-01
502.29	2.5044E-01
502.64	2.5091E-01
502.98	2.5232E-01
503.33	2.5263E-01
503.67	2.5126E-01
504.02	2.5004E-01
504.36	2.4831E-01
504.71	2.5003E-01
505.06	2.5005E-01
505.40	2.4935E-01
505.75	2.4722E-01
506.09	2.4799E-01
506.44	2.4659E-01
506.78	2.4820E-01
507.13	2.4828E-01
507.47	2.4571E-01
507.82	2.4506E-01
508.16	2.4525E-01
508.51	2.4469E-01
508.85	2.4415E-01
509.19	2.4359E-01
509.54	2.4678E-01
509.88	2.4537E-01
510.23	2.4267E-01
510.57	2.4175E-01
510.92	2.4534E-01
511.26	2.4317E-01
511.61	2.4287E-01
511.95	2.4353E-01
512.30	2.4127E-01
512.64	2.4227E-01
512.98	2.4170E-01
513.33	2.4122E-01
513.67	2.4140E-01
514.02	2.4004E-01
514.36	2.3933E-01
514.70	2.4021E-01
515.05	2.3901E-01
515.39	2.3995E-01
515.74	2.3688E-01
516.08	2.3951E-01
516.42	2.3758E-01
516.77	2.3803E-01
517.11	2.3663E-01
517.46	2.3880E-01
517.80	2.3629E-01
518.14	2.3712E-01
518.49	2.3724E-01
518.83	2.3462E-01
519.17	2.3837E-01
519.52	2.3594E-01
519.86	2.3554E-01
520.20	2.3348E-01
520.55	2.3548E-01
520.89	2.3609E-01
521.23	2.3577E-01
521.58	2.3515E-01
521.92	2.3926E-01
522.26	2.3742E-01
522.61	2.3434E-01
522.95	2.3575E-01
523.29	2.3561E-01
523.64	2.3461E-01
523.98	2.3477E-01
524.32	2.3710E-01
524.66	2.3637E-01
525.01	2.3806E-01
525.35	2.3805E-01
525.69	2.3851E-01
526.04	2.3918E-01
526.38	2.3557E-01
526.72	2.3868E-01
527.06	2.3832E-01
527.41	2.4205E-01
527.75	2.4253E-01
528.09	2.3939E-01
528.43	2.4110E-01
528.78	2.3884E-01
529.12	2.4531E-01
529.46	2.4294E-01
529.80	2.4308E-01
530.15	2.4374E-01
530.49	2.4499E-01
530.83	2.4608E-01
531.17	2.4630E-01
531.51	2.4699E-01
531.86	2.4796E-01
532.20	2.5009E-01
532.54	2.5015E-01
532.88	2.5014E-01
533.22	2.5125E-01
533.57	2.5218E-01
533.91	2.5421E-01
534.25	2.5440E-01
534.59	2.5270E-01
534.93	2.5425E-01
535.27	2.5537E-01
535.62	2.5796E-01
535.96	2.5988E-01
536.30	2.5943E-01
536.64	2.6060E-01
536.98	2.6136E-01
537.32	2.6168E-01
537.66	2.6070E-01
538.01	2.6429E-01
538.35	2.6585E-01
538.69	2.6386E-01
539.03	2.6960E-01
539.37	2.6618E-01
539.71	2.6831E-01
540.05	2.6844E-01
540.39	2.6848E-01
540.73	2.7144E-01
541.07	2.6934E-01
541.42	2.6957E-01
541.76	2.6980E-01
542.10	2.7017E-01
542.44	2.7197E-01
542.78	2.7217E-01
543.12	2.7235E-01
543.46	2.7806E-01
543.80	2.7490E-01
544.14	2.7616E-01
544.48	2.7299E-01
544.82	2.7626E-01
545.16	2.7601E-01
545.50	2.7494E-01
545.84	2.7979E-01
546.18	2.7653E-01
546.52	2.7971E-01
546.86	2.7588E-01
547.20	2.7862E-01
547.54	2.8385E-01
547.88	2.7956E-01
548.22	2.8045E-01
548.56	2.8098E-01
548.90	2.7878E-01
549.24	2.8279E-01
549.58	2.8224E-01
549.92	2.8227E-01
550.26	2.8568E-01
550.60	2.8343E-01
550.94	2.7939E-01
551.28	2.8656E-01
551.62	2.8373E-01
551.96	2.8613E-01
552.30	2.8453E-01
552.64	2.8664E-01
552.98	2.8473E-01
553.32	2.8499E-01
553.66	2.8280E-01
554.00	2.8378E-01
554.34	2.8656E-01
554.68	2.8771E-01
555.02	2.8649E-01
555.36	2.8623E-01
555.69	2.8884E-01
556.03	2.8778E-01
556.37	2.8761E-01
556.71	2.8651E-01
557.05	2.8519E-01
557.39	2.8711E-01
557.73	2.8624E-01
558.07	2.8835E-01
558.41	2.8679E-01
558.75	2.8747E-01
559.08	2.8846E-01
559.42	2.8423E-01
559.76	2.8825E-01
560.10	2.8746E-01
560.44	2.8794E-01
560.78	2.8560E-01
561.12	2.8722E-01
561.45	2.8824E-01
561.79	2.8845E-01
562.13	2.8738E-01
562.47	2.8725E-01
562.81	2.9146E-01
563.15	2.9069E-01
563.48	2.8871E-01
563.82	2.8686E-01
564.16	2.8959E-01
564.50	2.9036E-01
564.84	2.9045E-01
565.17	2.8998E-01
565.51	2.8642E-01
565.85	2.9016E-01
566.19	2.8913E-01
566.52	2.9073E-01
566.86	2.8971E-01
567.20	2.9073E-01
567.54	2.9309E-01
567.88	2.9024E-01
568.21	2.9195E-01
568.55	2.9147E-01
568.89	2.9170E-01
569.23	2.9355E-01
569.56	2.9077E-01
569.90	2.9145E-01
570.24	2.9412E-01
570.57	2.9285E-01
570.91	2.9531E-01
571.25	2.9343E-01
571.59	2.9386E-01
571.92	2.9404E-01
572.26	2.9580E-01
572.60	2.9817E-01
572.93	2.9604E-01
573.27	2.9999E-01
573.61	2.9976E-01
573.95	2.9601E-01
574.28	3.0039E-01
574.62	2.9985E-01
574.96	3.0055E-01
575.29	2.9928E-01
575.63	3.0305E-01
575.97	3.0244E-01
576.30	3.0990E-01
576.64	3.0469E-01
576.98	3.0570E-01
577.31	3.0776E-01
577.65	3.0833E-01
577.98	3.0793E-01
578.32	3.1185E-01
578.66	3.1038E-01
578.99	3.1490E-01
579.33	3.1423E-01
579.67	3.1449E-01
580.00	3.1509E-01
580.34	3.1826E-01
580.67	3.1753E-01
581.01	3.1794E-01
581.35	3.2091E-01
581.68	3.2203E-01
582.02	3.2128E-01
582.35	3.2201E-01
582.69	3.2392E-01
583.02	3.2930E-01
583.36	3.2684E-01
583.70	3.2569E-01
584.03	3.2835E-01
584.37	3.2890E-01
584.70	3.3315E-01
585.04	3.3392E-01
585.37	3.3114E-01
585.71	3.3524E-01
586.04	3.3445E-01
586.38	3.3228E-01
586.72	3.3715E-01
587.05	3.3656E-01
587.39	3.3839E-01
587.72	3.3782E-01
588.06	3.4041E-01
588.39	3.3935E-01
588.73	3.4496E-01
589.06	3.4410E-01
589.40	3.4524E-01
589.73	3.4690E-01
590.07	3.4975E-01
590.40	3.5102E-01
590.73	3.5494E-01
591.07	3.5149E-01
591.40	3.5304E-01
591.74	3.4958E-01
592.07	3.5495E-01
592.41	3.5554E-01
592.74	3.5411E-01
593.08	3.5556E-01
593.41	3.5730E-01
593.75	3.5429E-01
594.08	3.6142E-01
594.41	3.5713E-01
594.75	3.6120E-01
595.08	3.6066E-01
595.42	3.5654E-01
595.75	3.5997E-01
596.09	3.5962E-01
596.42	3.6036E-01
596.75	3.6337E-01
597.09	3.6685E-01
597.42	3.6154E-01
597.75	3.6462E-01
598.09	3.6503E-01
598.42	3.6292E-01
598.76	3.6650E-01
599.09	3.6654E-01
599.42	3.6949E-01
599.76	3.6904E-01
600.09	3.6939E-01
600.42	3.7149E-01
600.76	3.6758E-01
601.09	3.7018E-01
601.42	3.7696E-01
601.76	3.7072E-01
602.09	3.7134E-01
602.42	3.7259E-01
602.76	3.7311E-01
603.09	3.7002E-01
603.42	3.7279E-01
603.76	3.7196E-01
604.09	3.7282E-01
604.42	3.7354E-01
604.76	3.7379E-01
605.09	3.7672E-01
605.42	3.7433E-01
605.75	3.7657E-01
606.09	3.7592E-01
606.42	3.7481E-01
606.75	3.7717E-01
607.09	3.7686E-01
607.42	3.7654E-01
607.75	3.7848E-01
608.08	3.7878E-01
608.42	3.7919E-01
608.75	3.7780E-01
609.08	3.8222E-01
609.41	3.8084E-01
609.75	3.7967E-01
610.08	3.7992E-01
610.41	3.8102E-01
610.74	3.8030E-01
611.07	3.8297E-01
611.41	3.7859E-01
611.74	3.8283E-01
612.07	3.8717E-01
612.40	3.8108E-01
612.73	3.8135E-01
613.07	3.8650E-01
613.40	3.8218E-01
613.73	3.8159E-01
614.06	3.8405E-01
614.39	3.8543E-01
614.72	3.8796E-01
615.06	3.8525E-01
615.39	3.9092E-01
615.72	3.8559E-01
616.05	3.9041E-01
616.38	3.8697E-01
616.71	3.8968E-01
617.05	3.8549E-01
617.38	3.9103E-01
617.71	3.8454E-01
618.04	3.9173E-01
618.37	3.8700E-01
618.70	3.8598E-01
619.03	3.9101E-01
619.36	3.8285E-01
619.69	3.9146E-01
620.03	3.8526E-01
620.36	3.8953E-01
620.69	3.8797E-01
621.02	3.8912E-01
621.35	3.8606E-01
621.68	3.8498E-01
622.01	3.8447E-01
622.34	3.8723E-01
622.67	3.8712E-01
623.00	3.8695E-01
623.33	3.8565E-01
623.66	3.8675E-01
623.99	3.8720E-01
624.32	3.8315E-01
624.65	3.8585E-01
624.99	3.8584E-01
625.32	3.8837E-01
625.65	3.8391E-01
625.98	3.8268E-01
626.31	3.8624E-01
626.64	3.8820E-01
626.97	3.8605E-01
627.30	3.8321E-01
627.63	3.8492E-01
627.96	3.8629E-01
628.29	3.8124E-01
628.62	3.8693E-01
628.95	3.8619E-01
629.28	3.7952E-01
629.61	3.9087E-01
629.94	3.8504E-01
630.26	3.8725E-01
630.59	3.9010E-01
630.92	3.8734E-01
631.25	3.8968E-01
631.58	3.9257E-01
631.91	3.8743E-01
632.24	3.9524E-01
632.57	3.9116E-01
632.90	3.9360E-01
633.23	3.9387E-01
633.56	3.9509E-01
633.89	3.9511E-01
634.22	3.9490E-01
634.55	3.9780E-01
634.88	4.0292E-01
635.20	3.9883E-01
635.53	4.0315E-01
635.86	4.0302E-01
636.19	4.0791E-01
636.52	4.0904E-01
636.85	4.1032E-01
637.18	4.1401E-01
637.51	4.1313E-01
637.83	4.1374E-01
638.16	4.1142E-01
638.49	4.1918E-01
638.82	4.1657E-01
639.15	4.2201E-01
639.48	4.2419E-01
639.81	4.2841E-01
640.13	4.2336E-01
640.46	4.3116E-01
640.79	4.2739E-01
641.12	4.3569E-01
641.45	4.3120E-01
641.77	4.3219E-01
642.10	4.3967E-01
642.43	4.4167E-01
642.76	4.4344E-01
643.09	4.4001E-01
643.41	4.4523E-01
643.74	4.4679E-01
644.07	4.4573E-01
644.40	4.4842E-01
644.73	4.5296E-01
645.05	4.5655E-01
645.38	4.5640E-01
645.71	4.6329E-01
646.04	4.6131E-01
646.36	4.6022E-01
646.69	4.6881E-01
647.02	4.6757E-01
647.35	4.6612E-01
647.67	4.7035E-01
648.00	4.6883E-01
648.33	4.7685E-01
648.66	4.7296E-01
648.98	4.7701E-01
649.31	4.7630E-01
649.64	4.7796E-01
649.96	4.8124E-01
650.29	4.8794E-01
650.62	4.8630E-01
650.94	4.8832E-01
651.27	4.8772E-01
651.60	4.9033E-01
651.92	4.9447E-01
652.25	4.9772E-01
652.58	4.9519E-01
652.90	4.9862E-01
653.23	4.9796E-01
653.56	5.0263E-01
653.88	5.0545E-01
654.21	5.0336E-01
654.54	5.0712E-01
654.86	5.1128E-01
655.19	5.0376E-01
655.52	5.1296E-01
655.84	5.0959E-01
656.17	5.1577E-01
656.49	5.1669E-01
656.82	5.1471E-01
657.15	5.1856E-01
657.47	5.1769E-01
657.80	5.2182E-01
658.13	5.2068E-01
658.45	5.2424E-01
658.78	5.2713E-01
659.10	5.2743E-01
659.43	5.3259E-01
659.75	5.2761E-01
660.08	5.2877E-01
660.41	5.3413E-01
660.73	5.3370E-01
661.06	5.3646E-01
661.38	5.3563E-01
661.71	5.4040E-01
662.03	5.3631E-01
662.36	5.4212E-01
662.68	5.4365E-01
663.01	5.3681E-01
663.33	5.4587E-01
663.66	5.4817E-01
663.98	5.5063E-01
664.31	5.4442E-01
664.63	5.5537E-01
664.96	5.4637E-01
665.28	5.5195E-01
665.61	5.5112E-01
665.93	5.5672E-01
666.26	5.5614E-01
666.58	5.5836E-01
666.91	5.5668E-01
667.23	5.6155E-01
667.56	5.5992E-01
667.88	5.5906E-01
668.21	5.6497E-01
668.53	5.6282E-01
668.86	5.6529E-01
669.18	5.6317E-01
669.50	5.7326E-01
669.83	5.7377E-01
670.15	5.7533E-01
670.48	5.7627E-01
670.80	5.7129E-01
671.13	5.7091E-01
671.45	5.7718E-01
671.77	5.7583E-01
672.10	5.7409E-01
672.42	5.8403E-01
672.75	5.7706E-01
673.07	5.8549E-01
673.39	5.8478E-01
673.72	5.8562E-01
674.04	5.9014E-01
674.37	5.8867E-01
674.69	5.8759E-01
675.01	5.9251E-01
675.34	5.9321E-01
675.66	5.9535E-01
675.98	5.8757E-01
676.31	5.9790E-01
676.63	5.9828E-01
676.95	5.9708E-01
677.28	6.0245E-01
677.60	6.0043E-01
677.92	6.0439E-01
678.25	6.0862E-01
678.57	6.0916E-01
678.89	6.0855E-01
679.22	6.0992E-01
679.54	6.0937E-01
679.86	6.1347E-01
680.18	6.1277E-01
680.51	6.1166E-01
680.83	6.2748E-01
681.15	6.2055E-01
681.48	6.2199E-01
681.80	6.2257E-01
682.12	6.2036E-01
682.44	6.2929E-01
682.77	6.2853E-01
683.09	6.3258E-01
683.41	6.3322E-01
683.73	6.3844E-01
684.06	6.3898E-01
684.38	6.3686E-01
684.70	6.3984E-01
685.02	6.3938E-01
685.34	6.4577E-01
685.67	6.4218E-01
685.99	6.5546E-01
686.31	6.4945E-01
686.63	6.5631E-01
686.96	6.5887E-01
687.28	6.6165E-01
687.60	6.5919E-01
687.92	6.6045E-01
688.24	6.7212E-01
688.56	6.7133E-01
688.89	6.6877E-01
689.21	6.7281E-01
689.53	6.7300E-01
689.85	6.8542E-01
690.17	6.7878E-01
690.49	6.8854E-01
690.82	6.8827E-01
691.14	6.9200E-01
691.46	6.9049E-01
691.78	6.9811E-01
692.10	6.9319E-01
692.42	6.9917E-01
692.74	7.0343E-01
693.06	7.0716E-01
693.39	7.1202E-01
693.71	7.2142E-01
694.03	7.1543E-01
694.35	7.1531E-01
694.67	7.2695E-01
694.99	7.2674E-01
695.31	7.3304E-01
695.63	7.3307E-01
695.95	7.3400E-01
696.27	7.3565E-01
696.59	7.3883E-01
696.91	7.4746E-01
697.23	7.5078E-01
697.56	7.5243E-01
697.88	7.5626E-01
698.20	7.5476E-01
698.52	7.5940E-01
698.84	7.6967E-01
699.16	7.7520E-01
699.48	7.7289E-01
699.80	7.7429E-01
700.12	7.8827E-01
700.44	7.8507E-01
700.76	7.8858E-01
701.08	7.9327E-01
701.40	7.9699E-01
701.72	7.9789E-01
702.04	8.0507E-01
702.36	8.0430E-01
702.68	8.1045E-01
703.00	8.2103E-01
703.32	8.1583E-01
703.64	8.2472E-01
703.96	8.1428E-01
704.28	8.2720E-01
704.60	8.3864E-01
704.91	8.3585E-01
705.23	8.4425E-01
705.55	8.4972E-01
705.87	8.5466E-01
706.19	8.5306E-01
706.51	8.5189E-01
706.83	8.5076E-01
707.15	8.8167E-01
707.47	8.7086E-01
707.79	8.7539E-01
708.11	8.7986E-01
708.43	8.8216E-01
708.74	8.8989E-01
709.06	8.9912E-01
709.38	8.9896E-01
709.70	9.0056E-01
710.02	9.0595E-01
710.34	8.9882E-01
710.66	9.1522E-01
710.98	9.1935E-01
711.29	9.2575E-01
711.61	9.4152E-01
711.93	9.3557E-01
712.25	9.3666E-01
712.57	9.4823E-01
712.89	9.5447E-01
713.20	9.5705E-01
713.52	9.6529E-01
713.84	9.6733E-01
714.16	9.6154E-01
714.48	9.7068E-01
714.80	9.8404E-01
715.11	9.8050E-01
715.43	9.9400E-01
715.75	9.9159E-01
716.07	1.0068E00
716.39	9.9013E-01
716.70	1.0035E00
717.02	1.0002E00
717.34	1.0278E00
717.66	1.0187E00
717.97	1.0330E00
718.29	1.0426E00
718.61	1.0438E00
718.93	1.0458E00
719.24	1.0502E00
719.56	1.0706E00
719.88	1.0592E00
720.20	1.0806E00
720.51	1.0945E00
720.83	1.0828E00
721.15	1.1009E00
721.46	1.1071E00
721.78	1.1151E00
722.10	1.1289E00
722.42	1.1331E00
722.73	1.1335E00
723.05	1.1338E00
723.37	1.1489E00
723.68	1.1600E00
724.00	1.1599E00
724.32	1.1816E00
724.63	1.1694E00
724.95	1.1838E00
725.27	1.1852E00
725.58	1.1834E00
725.90	1.1793E00
726.22	1.2060E00
726.53	1.1935E00
726.85	1.2049E00
727.16	1.2122E00
727.48	1.2070E00
727.80	1.2192E00
728.11	1.2228E00
728.43	1.2284E00
728.74	1.2252E00
729.06	1.2310E00
729.38	1.2361E00
729.69	1.2322E00
730.01	1.2513E00
730.32	1.2489E00
730.64	1.2521E00
730.96	1.2404E00
731.27	1.2718E00
731.59	1.2562E00
731.90	1.2646E00
732.22	1.2723E00
732.53	1.2821E00
732.85	1.2806E00
733.16	1.2795E00
733.48	1.2743E00
733.80	1.2828E00
734.11	1.2944E00
734.43	1.3100E00
734.74	1.3130E00
735.06	1.3169E00
735.37	1.3274E00
735.69	1.3298E00
736.00	1.3191E00
736.32	1.3353E00
736.63	1.3285E00
736.95	1.3456E00
737.26	1.3562E00
737.58	1.3508E00
737.89	1.3797E00
738.21	1.3649E00
738.52	1.3637E00
738.83	1.3823E00
739.15	1.3685E00
739.46	1.3864E00
739.78	1.3865E00
740.09	1.3988E00
740.41	1.3853E00
740.72	1.3919E00
741.04	1.3887E00
741.35	1.3913E00
741.66	1.4172E00
741.98	1.4066E00
742.29	1.4020E00
742.61	1.4121E00
742.92	1.4181E00
743.23	1.4178E00
743.55	1.4193E00
743.86	1.4198E00
744.18	1.4259E00
744.49	1.4250E00
744.80	1.4178E00
745.12	1.4144E00
745.43	1.4234E00
745.74	1.4210E00
746.06	1.4233E00
746.37	1.4095E00
746.68	1.4243E00
747.00	1.4100E00
747.31	1.4268E00
747.62	1.4100E00
747.94	1.4425E00
748.25	1.4260E00
748.56	1.4234E00
748.88	1.4130E00
749.19	1.4309E00
749.50	1.4183E00
749.82	1.4247E00
750.13	1.4340E00
750.44	1.4223E00
750.75	1.4228E00
751.07	1.4295E00
751.38	1.4166E00
751.69	1.4157E00
752.01	1.4323E00
752.32	1.4406E00
752.63	1.4340E00
752.94	1.4286E00
753.26	1.4366E00
753.57	1.4432E00
753.88	1.4570E00
754.19	1.4386E00
754.51	1.4437E00
754.82	1.4593E00
755.13	1.4587E00
755.44	1.4705E00
755.75	1.4577E00
756.07	1.4650E00
756.38	1.4731E00
756.69	1.4776E00
757.00	1.4780E00
757.31	1.5070E00
757.63	1.5005E00
757.94	1.5092E00
758.25	1.5191E00
758.56	1.5023E00
758.87	1.5207E00
759.18	1.5263E00
759.50	1.5315E00
759.81	1.5355E00
760.12	1.5537E00
760.43	1.5635E00
760.74	1.5754E00
761.05	1.5742E00
761.36	1.5839E00
761.67	1.5911E00
761.99	1.5952E00
762.30	1.5963E00
762.61	1.6167E00
762.92	1.6334E00
763.23	1.6324E00
763.54	1.6550E00
763.85	1.6542E00
764.16	1.6779E00
764.47	1.6937E00
764.78	1.7112E00
765.10	1.7097E00
765.41	1.7154E00
765.72	1.7304E00
766.03	1.7698E00
766.34	1.7771E00
766.65	1.7646E00
766.96	1.8140E00
767.27	1.8048E00
767.58	1.7983E00
767.89	1.8263E00
768.20	1.8472E00
768.51	1.8447E00
768.82	1.8593E00
769.13	1.8726E00
769.44	1.9116E00
769.75	1.9250E00
770.06	1.9432E00
770.37	1.9212E00
770.68	1.9653E00
770.99	1.9863E00
771.30	2.0109E00
771.61	2.0489E00
771.92	2.0402E00
772.23	2.0366E00
772.54	2.0809E00
772.85	2.0706E00
773.16	2.0867E00
773.47	2.1287E00
773.78	2.1092E00
774.09	2.1597E00
774.39	2.1590E00
774.70	2.1939E00
775.01	2.2095E00
775.32	2.2316E00
775.63	2.2456E00
775.94	2.2703E00
776.25	2.2543E00
776.56	2.2910E00
776.87	2.3630E00
777.18	2.3309E00
777.48	2.3722E00
777.79	2.3922E00
778.10	2.4122E00
778.41	2.4245E00
778.72	2.4665E00
779.03	2.4669E00
779.34	2.4982E00
779.65	2.5016E00
779.95	2.5315E00
780.26	2.5476E00
780.57	2.5595E00
780.88	2.5900E00
781.19	2.6063E00
781.50	2.6216E00
781.80	2.6548E00
782.11	2.6891E00
782.42	2.7012E00
782.73	2.6729E00
783.04	2.7701E00
783.34	2.7599E00
783.65	2.8113E00
783.96	2.8190E00
784.27	2.8306E00
784.57	2.8147E00
784.88	2.8674E00
785.19	2.8884E00
785.50	2.9157E00
785.81	2.9598E00
786.11	2.9393E00
786.42	2.9775E00
786.73	3.0403E00
787.04	3.0597E00
787.34	3.0760E00
787.65	3.0429E00
787.96	3.1506E00
788.26	3.1259E00
788.57	3.2046E00
788.88	3.1410E00
789.19	3.2612E00
789.49	3.2429E00
789.80	3.3200E00
790.11	3.3235E00
790.41	3.2956E00
790.72	3.3902E00
791.03	3.4262E00
791.33	3.4087E00
791.64	3.4809E00
791.95	3.4701E00
792.25	3.5292E00
792.56	3.5327E00
792.87	3.5255E00
793.17	3.5510E00
793.48	3.5755E00
793.79	3.6644E00
794.09	3.6798E00
794.40	3.6573E00
794.70	3.6412E00
795.01	3.7548E00
795.32	3.7529E00
795.62	3.7898E00
795.93	3.8085E00
796.23	3.8348E00
796.54	3.8650E00
796.85	3.9073E00
797.15	3.9491E00
797.46	3.9012E00
797.76	3.9962E00
798.07	4.0351E00
798.37	4.0650E00
798.68	4.0949E00
798.99	4.1232E00
799.29	4.1289E00
799.60	4.2118E00
799.90	4.2092E00
800.21	4.3071E00
800.51	4.2985E00
800.82	4.3030E00
801.12	4.3646E00
801.43	4.3972E00
801.73	4.3838E00
802.04	4.4846E00
802.34	4.4734E00
802.65	4.5290E00
802.95	4.5966E00
803.26	4.5806E00
803.56	4.5547E00
803.87	4.6531E00
804.17	4.7196E00
804.48	4.6860E00
804.78	4.7377E00
805.09	4.8291E00
805.39	4.7428E00
805.70	4.8088E00
806.00	4.8828E00
806.30	4.8918E00
806.61	4.9149E00
806.91	4.9212E00
807.22	5.0334E00
807.52	5.0326E00
807.83	5.0472E00
808.13	5.1362E00
808.43	5.0575E00
808.74	5.1166E00
809.04	5.1723E00
809.35	5.2342E00
809.65	5.3079E00
809.95	5.3170E00
810.26	5.4331E00
810.56	5.3597E00
810.86	5.5641E00
811.17	5.4811E00
811.47	5.6306E00
811.77	5.5529E00
812.08	5.5365E00
812.38	5.6654E00
812.69	5.6496E00
812.99	5.6663E00
813.29	5.7393E00
813.59	5.8026E00
813.90	5.9385E00
814.20	5.8694E00
814.50	6.0358E00
814.81	5.8583E00
815.11	6.1028E00
815.41	6.1115E00
815.72	6.1369E00
816.02	6.1880E00
816.32	6.3106E00
816.62	6.0826E00
816.93	6.2748E00
817.23	6.4248E00
817.53	6.2286E00
817.84	6.4312E00
818.14	6.5000E00
818.44	6.4216E00
818.74	6.4648E00
819.04	6.7926E00
819.35	6.6863E00
819.65	6.5604E00
819.95	6.7581E00
820.25	6.8659E00
820.56	6.7317E00
820.86	6.8648E00
821.16	6.8723E00
821.46	7.0809E00
821.76	6.8158E00
822.07	6.9960E00
822.37	7.1692E00
822.67	7.2785E00
822.97	7.4302E00
823.27	7.2718E00
823.57	7.2272E00
823.88	7.4274E00
824.18	7.2953E00
824.48	7.5135E00
824.78	7.7354E00
825.08	7.5513E00
825.38	7.6925E00
825.69	7.7115E00
825.99	7.7425E00
826.29	7.5861E00
826.59	7.8310E00
826.89	8.0109E00
827.19	7.8015E00
827.49	8.0930E00
827.79	8.0107E00
828.09	8.2244E00
828.39	8.2351E00
828.70	8.2154E00
829.00	8.0812E00
829.30	8.2348E00
829.60	8.4080E00
829.90	8.3091E00
830.20	8.4122E00
830.50	8.6852E00
830.80	8.6514E00
831.10	8.5669E00
831.40	8.7546E00
831.70	8.8450E00
832.00	8.9018E00
832.30	8.9643E00
832.60	8.8380E00
832.90	9.0543E00
833.20	8.9561E00
833.50	9.1420E00
833.80	9.1994E00
834.10	9.3212E00
834.40	9.2526E00
834.70	9.3620E00
835.00	9.4988E00
835.30	9.4533E00
835.60	9.5748E00
835.90	9.6774E00
836.20	9.8220E00
836.50	9.8682E00
836.80	9.7004E00
837.10	9.8606E00
837.40	9.8878E00
837.70	9.9780E00
838.00	1.0067E01
838.30	1.0324E01
838.60	1.0192E01
838.90	1.0420E01
839.19	1.0545E01
839.49	1.0730E01
839.79	1.0243E01
840.09	1.0733E01
840.39	1.0536E01
840.69	1.0701E01
840.99	1.1010E01
841.29	1.0899E01
841.59	1.1023E01
841.88	1.1201E01
842.18	1.1093E01
842.48	1.1287E01
842.78	1.1372E01
843.08	1.1513E01
843.38	1.1477E01
843.68	1.1968E01
843.97	1.1827E01
844.27	1.1874E01
844.57	1.1731E01
844.87	1.1832E01
845.17	1.2259E01
845.47	1.1880E01
845.76	1.2344E01
846.06	1.2288E01
846.36	1.2348E01
846.66	1.2345E01
846.96	1.2325E01
847.25	1.2880E01
847.55	1.2529E01
847.85	1.2800E01
848.15	1.2928E01
848.44	1.2895E01
848.74	1.3000E01
849.04	1.3473E01
849.34	1.3252E01
849.63	1.3389E01
849.93	1.3565E01
850.23	1.3651E01
850.53	1.3810E01
850.82	1.3835E01
851.12	1.4284E01
851.42	1.3935E01
851.71	1.4096E01
852.01	1.4282E01
852.31	1.4228E01
852.61	1.4796E01
852.90	1.4413E01
853.20	1.5044E01
853.50	1.4857E01
853.79	1.4931E01
854.09	1.4949E01
854.39	1.5343E01
854.68	1.5535E01
854.98	1.5885E01
855.28	1.5704E01
855.57	1.5703E01
855.87	1.5896E01
856.17	1.5632E01
856.46	1.6176E01
856.76	1.6023E01
857.05	1.6500E01
857.35	1.6812E01
857.65	1.6800E01
857.94	1.6685E01
858.24	1.6595E01
858.53	1.6991E01
858.83	1.7826E01
859.13	1.7477E01
859.42	1.7416E01
859.72	1.7505E01
860.01	1.7999E01
860.31	1.7722E01
860.60	1.8399E01
860.90	1.8403E01
861.20	1.8079E01
861.49	1.8396E01
861.79	1.8667E01
862.08	1.8812E01
862.38	1.8839E01
862.67	1.9203E01
862.97	1.9244E01
863.26	1.9954E01
863.56	1.9859E01
863.85	2.0397E01
864.15	2.0859E01
864.44	2.0546E01
864.74	2.0316E01
865.03	2.1111E01
865.33	2.1295E01
865.62	2.1292E01
865.92	2.1093E01
866.21	2.1445E01
866.51	2.1712E01
866.80	2.2317E01
867.10	2.1748E01
867.39	2.2687E01
867.69	2.2657E01
867.98	2.3053E01
868.27	2.3356E01
868.57	2.3894E01
868.86	2.3487E01
869.16	2.3203E01
869.45	2.4369E01
869.75	2.3869E01
870.04	2.4374E01
870.33	2.4829E01
870.63	2.5146E01
870.92	2.5343E01
871.22	2.6046E01
871.51	2.6183E01
871.80	2.5791E01
872.10	2.5791E01
>>>>>End Processed Spectral Data<<<<<
