SpectraSuite Data File
++++++++++++++++++++++++++++++++++++
Date: Fri May 15 07:55:37 PDT 2015
User: schluterlab
Dark Spectrum Present: Yes
Reference Spectrum Present: No
Number of Sampled Component Spectra: 1
Spectrometers: USB2E3373
Integration Time (usec): 2300000 (USB2E3373)
Spectra Averaged: 3 (USB2E3373)
Boxcar Smoothing: 0 (USB2E3373)
Correct for Electrical Dark: No (USB2E3373)
Strobe/Lamp Enabled: No (USB2E3373)
Correct for Detector Non-linearity: No (USB2E3373)
Correct for Stray Light: No (USB2E3373)
Number of Pixels in Processed Spectrum: 2048
>>>>>Begin Processed Spectral Data<<<<<
178.53	0.0000E00
178.91	0.0000E00
179.29	0.0000E00
179.67	0.0000E00
180.04	0.0000E00
180.42	0.0000E00
180.80	0.0000E00
181.18	0.0000E00
181.56	0.0000E00
181.94	0.0000E00
182.31	0.0000E00
182.69	0.0000E00
183.07	0.0000E00
183.45	0.0000E00
183.83	0.0000E00
184.20	0.0000E00
184.58	0.0000E00
184.96	0.0000E00
185.34	0.0000E00
185.72	0.0000E00
186.09	0.0000E00
186.47	0.0000E00
186.85	0.0000E00
187.23	0.0000E00
187.61	-0.0000E00
187.98	0.0000E00
188.36	0.0000E00
188.74	0.0000E00
189.12	0.0000E00
189.49	0.0000E00
189.87	0.0000E00
190.25	0.0000E00
190.63	0.0000E00
191.00	0.0000E00
191.38	0.0000E00
191.76	0.0000E00
192.14	0.0000E00
192.51	0.0000E00
192.89	0.0000E00
193.27	0.0000E00
193.65	0.0000E00
194.02	0.0000E00
194.40	0.0000E00
194.78	0.0000E00
195.15	0.0000E00
195.53	0.0000E00
195.91	0.0000E00
196.29	0.0000E00
196.66	0.0000E00
197.04	0.0000E00
197.42	0.0000E00
197.79	0.0000E00
198.17	0.0000E00
198.55	0.0000E00
198.92	0.0000E00
199.30	0.0000E00
199.68	0.0000E00
200.05	0.0000E00
200.43	0.0000E00
200.81	0.0000E00
201.18	0.0000E00
201.56	0.0000E00
201.94	0.0000E00
202.31	0.0000E00
202.69	0.0000E00
203.07	0.0000E00
203.44	0.0000E00
203.82	0.0000E00
204.19	0.0000E00
204.57	0.0000E00
204.95	0.0000E00
205.32	0.0000E00
205.70	0.0000E00
206.08	0.0000E00
206.45	0.0000E00
206.83	0.0000E00
207.20	0.0000E00
207.58	0.0000E00
207.96	0.0000E00
208.33	0.0000E00
208.71	0.0000E00
209.08	0.0000E00
209.46	0.0000E00
209.84	0.0000E00
210.21	0.0000E00
210.59	0.0000E00
210.96	0.0000E00
211.34	0.0000E00
211.71	0.0000E00
212.09	0.0000E00
212.46	0.0000E00
212.84	0.0000E00
213.22	0.0000E00
213.59	0.0000E00
213.97	0.0000E00
214.34	0.0000E00
214.72	0.0000E00
215.09	0.0000E00
215.47	0.0000E00
215.84	0.0000E00
216.22	0.0000E00
216.59	0.0000E00
216.97	0.0000E00
217.34	0.0000E00
217.72	0.0000E00
218.09	0.0000E00
218.47	0.0000E00
218.84	0.0000E00
219.22	0.0000E00
219.59	0.0000E00
219.97	0.0000E00
220.34	0.0000E00
220.72	0.0000E00
221.09	0.0000E00
221.47	0.0000E00
221.84	0.0000E00
222.22	0.0000E00
222.59	0.0000E00
222.97	0.0000E00
223.34	0.0000E00
223.72	0.0000E00
224.09	0.0000E00
224.46	0.0000E00
224.84	0.0000E00
225.21	0.0000E00
225.59	0.0000E00
225.96	0.0000E00
226.34	0.0000E00
226.71	0.0000E00
227.08	0.0000E00
227.46	0.0000E00
227.83	0.0000E00
228.21	0.0000E00
228.58	0.0000E00
228.95	0.0000E00
229.33	0.0000E00
229.70	0.0000E00
230.08	0.0000E00
230.45	0.0000E00
230.82	0.0000E00
231.20	0.0000E00
231.57	0.0000E00
231.95	0.0000E00
232.32	0.0000E00
232.69	0.0000E00
233.07	0.0000E00
233.44	-0.0000E00
233.81	0.0000E00
234.19	0.0000E00
234.56	0.0000E00
234.93	0.0000E00
235.31	0.0000E00
235.68	0.0000E00
236.05	0.0000E00
236.43	0.0000E00
236.80	-0.0000E00
237.17	0.0000E00
237.55	0.0000E00
237.92	0.0000E00
238.29	0.0000E00
238.67	0.0000E00
239.04	0.0000E00
239.41	0.0000E00
239.79	0.0000E00
240.16	0.0000E00
240.53	0.0000E00
240.91	0.0000E00
241.28	0.0000E00
241.65	0.0000E00
242.02	0.0000E00
242.40	0.0000E00
242.77	0.0000E00
243.14	0.0000E00
243.51	0.0000E00
243.89	0.0000E00
244.26	0.0000E00
244.63	0.0000E00
245.00	0.0000E00
245.38	0.0000E00
245.75	0.0000E00
246.12	0.0000E00
246.49	0.0000E00
246.87	0.0000E00
247.24	0.0000E00
247.61	0.0000E00
247.98	0.0000E00
248.36	0.0000E00
248.73	0.0000E00
249.10	0.0000E00
249.47	0.0000E00
249.84	0.0000E00
250.22	0.0000E00
250.59	0.0000E00
250.96	0.0000E00
251.33	0.0000E00
251.70	0.0000E00
252.08	0.0000E00
252.45	0.0000E00
252.82	0.0000E00
253.19	0.0000E00
253.56	0.0000E00
253.94	0.0000E00
254.31	0.0000E00
254.68	0.0000E00
255.05	0.0000E00
255.42	0.0000E00
255.79	0.0000E00
256.16	0.0000E00
256.54	0.0000E00
256.91	0.0000E00
257.28	0.0000E00
257.65	0.0000E00
258.02	0.0000E00
258.39	0.0000E00
258.76	0.0000E00
259.14	0.0000E00
259.51	0.0000E00
259.88	0.0000E00
260.25	0.0000E00
260.62	0.0000E00
260.99	0.0000E00
261.36	0.0000E00
261.73	0.0000E00
262.10	0.0000E00
262.47	0.0000E00
262.85	0.0000E00
263.22	0.0000E00
263.59	0.0000E00
263.96	0.0000E00
264.33	0.0000E00
264.70	0.0000E00
265.07	0.0000E00
265.44	0.0000E00
265.81	0.0000E00
266.18	0.0000E00
266.55	0.0000E00
266.92	0.0000E00
267.29	0.0000E00
267.66	0.0000E00
268.03	0.0000E00
268.40	0.0000E00
268.77	0.0000E00
269.14	0.0000E00
269.51	0.0000E00
269.88	0.0000E00
270.25	0.0000E00
270.62	0.0000E00
270.99	0.0000E00
271.36	0.0000E00
271.73	0.0000E00
272.10	0.0000E00
272.47	0.0000E00
272.84	0.0000E00
273.21	0.0000E00
273.58	0.0000E00
273.95	0.0000E00
274.32	0.0000E00
274.69	0.0000E00
275.06	0.0000E00
275.43	0.0000E00
275.80	0.0000E00
276.17	0.0000E00
276.54	0.0000E00
276.91	0.0000E00
277.28	0.0000E00
277.65	-0.0000E00
278.02	0.0000E00
278.39	0.0000E00
278.76	0.0000E00
279.13	0.0000E00
279.50	0.0000E00
279.87	0.0000E00
280.23	0.0000E00
280.60	0.0000E00
280.97	0.0000E00
281.34	0.0000E00
281.71	0.0000E00
282.08	0.0000E00
282.45	0.0000E00
282.82	0.0000E00
283.19	0.0000E00
283.56	0.0000E00
283.92	0.0000E00
284.29	0.0000E00
284.66	0.0000E00
285.03	0.0000E00
285.40	0.0000E00
285.77	0.0000E00
286.14	0.0000E00
286.51	0.0000E00
286.87	0.0000E00
287.24	0.0000E00
287.61	0.0000E00
287.98	0.0000E00
288.35	0.0000E00
288.72	0.0000E00
289.08	0.0000E00
289.45	0.0000E00
289.82	0.0000E00
290.19	0.0000E00
290.56	0.0000E00
290.93	0.0000E00
291.29	0.0000E00
291.66	0.0000E00
292.03	0.0000E00
292.40	0.0000E00
292.77	0.0000E00
293.13	0.0000E00
293.50	0.0000E00
293.87	0.0000E00
294.24	0.0000E00
294.60	0.0000E00
294.97	0.0000E00
295.34	0.0000E00
295.71	0.0000E00
296.08	0.0000E00
296.44	0.0000E00
296.81	0.0000E00
297.18	0.0000E00
297.55	0.0000E00
297.91	0.0000E00
298.28	0.0000E00
298.65	0.0000E00
299.02	0.0000E00
299.38	0.0000E00
299.75	0.0000E00
300.12	4.5130E-01
300.48	1.0111E00
300.85	1.0531E00
301.22	5.2294E-01
301.59	8.6225E-01
301.95	1.5082E00
302.32	5.5537E-01
302.69	4.6489E-01
303.05	6.4726E-01
303.42	1.1260E00
303.79	6.1826E-01
304.15	5.8238E-01
304.52	5.3117E-01
304.89	6.6259E-01
305.25	1.0860E00
305.62	8.1194E-01
305.99	6.9928E-01
306.35	1.4593E00
306.72	7.3874E-01
307.09	1.3716E00
307.45	1.8049E00
307.82	1.0096E00
308.19	6.7988E00
308.55	1.1256E00
308.92	1.0714E00
309.29	1.3216E00
309.65	1.8855E00
310.02	1.3712E00
310.38	1.3733E00
310.75	9.7295E-01
311.12	1.4997E00
311.48	1.4998E00
311.85	9.4106E-01
312.22	1.2075E00
312.58	1.5155E00
312.95	1.4508E00
313.31	1.3919E00
313.68	1.1407E00
314.05	2.0655E00
314.41	1.0050E00
314.78	2.6139E00
315.14	1.3731E00
315.51	1.5143E00
315.87	1.5258E00
316.24	1.8990E00
316.61	1.1219E00
316.97	2.5220E00
317.34	1.4378E00
317.70	1.6679E00
318.07	1.5998E00
318.43	9.6914E-01
318.80	1.1792E00
319.16	2.2991E00
319.53	9.1587E-01
319.89	1.4623E00
320.26	9.5627E-01
320.62	2.1000E00
320.99	1.8020E00
321.35	1.8153E00
321.72	1.0178E00
322.08	1.1529E00
322.45	1.3298E00
322.81	2.5010E00
323.18	1.1817E00
323.54	1.0025E00
323.91	1.5334E00
324.27	1.2074E00
324.64	3.8916E00
325.00	4.3507E00
325.37	2.0757E00
325.73	2.4796E00
326.10	1.9924E00
326.46	1.4843E00
326.83	1.4390E00
327.19	1.7599E00
327.56	1.2304E00
327.92	2.5483E00
328.29	1.2402E00
328.65	1.0011E00
329.01	1.2455E00
329.38	1.2881E00
329.74	1.5876E00
330.11	1.5292E00
330.47	3.1737E00
330.84	1.6510E00
331.20	8.7705E-01
331.56	4.1205E00
331.93	1.9607E00
332.29	1.7866E00
332.66	2.0499E00
333.02	1.7790E00
333.38	1.1035E00
333.75	2.3982E00
334.11	1.0705E00
334.48	1.6905E00
334.84	9.6383E-01
335.20	1.4430E00
335.57	1.6808E00
335.93	1.3870E00
336.29	1.4336E00
336.66	1.4323E00
337.02	1.2144E00
337.38	1.4846E00
337.75	1.1443E00
338.11	1.3825E00
338.47	1.0558E00
338.84	1.4372E00
339.20	1.5515E00
339.56	1.6843E00
339.93	1.5623E00
340.29	1.2362E00
340.65	1.0518E00
341.02	1.5867E00
341.38	1.0642E00
341.74	1.3491E00
342.11	4.6830E00
342.47	1.5180E00
342.83	1.3824E00
343.20	1.7293E00
343.56	1.4538E00
343.92	1.4181E00
344.28	1.0578E00
344.65	1.1807E00
345.01	9.8477E-01
345.37	1.1732E00
345.73	1.4439E00
346.10	1.3314E00
346.46	8.7132E-01
346.82	1.5325E00
347.19	1.7117E00
347.55	1.5594E00
347.91	2.0323E00
348.27	1.0935E00
348.63	1.5994E00
349.00	1.5129E00
349.36	1.3248E00
349.72	1.6886E00
350.08	1.2756E00
350.45	1.1390E00
350.81	1.3565E00
351.17	2.2545E00
351.53	1.8603E00
351.89	1.4524E00
352.26	9.3778E-01
352.62	1.0139E00
352.98	1.1031E00
353.34	1.2954E00
353.70	1.4417E00
354.07	1.1643E00
354.43	1.0751E00
354.79	1.4577E00
355.15	1.2300E00
355.51	1.5521E00
355.87	9.3973E-01
356.24	9.4398E-01
356.60	1.0184E00
356.96	1.1050E00
357.32	1.0685E00
357.68	1.2404E00
358.04	1.0023E00
358.40	1.4472E00
358.77	1.1838E00
359.13	8.5397E-01
359.49	1.2261E00
359.85	1.0375E00
360.21	1.3012E00
360.57	9.6743E-01
360.93	1.2685E00
361.29	1.2281E00
361.66	9.2049E-01
362.02	9.2977E-01
362.38	1.0893E00
362.74	9.2201E-01
363.10	8.6913E-01
363.46	9.5798E-01
363.82	9.8254E-01
364.18	1.0763E00
364.54	9.7695E-01
364.90	8.8421E-01
365.26	1.4782E00
365.62	8.7090E-01
365.98	1.1423E00
366.35	1.1194E00
366.71	9.3901E-01
367.07	1.1105E00
367.43	1.0142E00
367.79	9.5963E-01
368.15	1.1161E00
368.51	1.1806E00
368.87	1.1764E00
369.23	9.7843E-01
369.59	1.0418E00
369.95	1.0970E00
370.31	9.5019E-01
370.67	8.9590E-01
371.03	9.9333E-01
371.39	1.0690E00
371.75	1.2223E00
372.11	1.1035E00
372.47	8.8274E-01
372.83	1.3167E00
373.19	1.1832E00
373.55	8.6271E-01
373.91	9.9930E-01
374.27	1.0076E00
374.63	1.0062E00
374.99	1.0156E00
375.35	8.9361E-01
375.71	8.9382E-01
376.07	8.9248E-01
376.42	1.0410E00
376.78	1.0503E00
377.14	8.2181E-01
377.50	1.0026E00
377.86	9.3386E-01
378.22	8.0307E-01
378.58	8.6730E-01
378.94	8.5299E-01
379.30	9.8706E-01
379.66	8.9100E-01
380.02	8.3390E-01
380.38	9.5869E-01
380.74	7.9739E-01
381.09	8.7079E-01
381.45	7.6596E-01
381.81	8.5291E-01
382.17	9.2732E-01
382.53	8.1668E-01
382.89	9.3708E-01
383.25	7.0227E-01
383.61	8.1037E-01
383.97	7.8476E-01
384.32	8.9077E-01
384.68	8.4700E-01
385.04	8.8082E-01
385.40	8.2116E-01
385.76	8.7767E-01
386.12	8.3759E-01
386.48	7.9559E-01
386.83	7.8231E-01
387.19	8.1145E-01
387.55	8.6935E-01
387.91	7.8017E-01
388.27	8.2848E-01
388.62	8.2023E-01
388.98	8.3294E-01
389.34	7.9969E-01
389.70	8.4316E-01
390.06	8.2473E-01
390.42	8.1651E-01
390.77	7.9963E-01
391.13	7.7475E-01
391.49	8.3380E-01
391.85	7.5916E-01
392.20	8.0988E-01
392.56	8.0307E-01
392.92	7.8361E-01
393.28	7.7360E-01
393.64	8.5348E-01
393.99	7.5068E-01
394.35	8.0628E-01
394.71	8.7453E-01
395.07	8.3362E-01
395.42	7.6540E-01
395.78	8.0018E-01
396.14	7.4083E-01
396.50	7.4388E-01
396.85	7.4683E-01
397.21	7.3947E-01
397.57	8.2252E-01
397.92	7.8931E-01
398.28	7.5574E-01
398.64	8.5159E-01
399.00	7.1520E-01
399.35	6.7656E-01
399.71	7.2383E-01
400.07	7.2815E-01
400.42	7.3709E-01
400.78	7.3383E-01
401.14	7.1900E-01
401.49	7.4367E-01
401.85	6.8034E-01
402.21	6.7072E-01
402.57	6.8983E-01
402.92	7.0421E-01
403.28	6.7451E-01
403.63	6.9539E-01
403.99	7.5508E-01
404.35	6.8648E-01
404.70	6.6619E-01
405.06	6.5373E-01
405.42	6.9538E-01
405.77	6.7866E-01
406.13	6.3002E-01
406.49	6.6982E-01
406.84	6.4380E-01
407.20	6.3896E-01
407.55	7.0200E-01
407.91	7.1032E-01
408.27	6.5504E-01
408.62	6.3532E-01
408.98	6.8856E-01
409.34	6.8384E-01
409.69	6.8117E-01
410.05	6.6514E-01
410.40	6.4301E-01
410.76	6.3278E-01
411.11	6.2368E-01
411.47	6.9535E-01
411.83	6.3423E-01
412.18	6.4556E-01
412.54	6.5274E-01
412.89	6.6990E-01
413.25	6.3737E-01
413.60	6.2380E-01
413.96	6.6581E-01
414.31	6.4488E-01
414.67	6.5066E-01
415.03	6.7439E-01
415.38	6.7627E-01
415.74	6.6714E-01
416.09	6.7830E-01
416.45	6.7335E-01
416.80	6.5058E-01
417.16	6.5101E-01
417.51	6.5040E-01
417.87	6.4284E-01
418.22	6.0810E-01
418.58	6.2161E-01
418.93	6.3109E-01
419.29	6.5601E-01
419.64	6.3854E-01
420.00	6.1938E-01
420.35	6.1042E-01
420.71	6.0826E-01
421.06	6.1352E-01
421.42	6.2484E-01
421.77	6.2846E-01
422.12	6.0973E-01
422.48	5.7280E-01
422.83	6.4076E-01
423.19	5.9236E-01
423.54	6.1108E-01
423.90	6.1452E-01
424.25	6.0388E-01
424.61	6.2597E-01
424.96	5.8808E-01
425.31	5.6294E-01
425.67	5.7381E-01
426.02	5.7962E-01
426.38	5.8968E-01
426.73	5.6464E-01
427.09	5.8693E-01
427.44	5.8201E-01
427.79	5.4639E-01
428.15	6.0067E-01
428.50	5.6647E-01
428.85	5.9596E-01
429.21	5.4881E-01
429.56	5.1968E-01
429.92	5.4192E-01
430.27	5.4300E-01
430.62	5.5462E-01
430.98	5.7560E-01
431.33	5.6103E-01
431.68	5.5399E-01
432.04	5.5408E-01
432.39	5.3412E-01
432.74	5.6134E-01
433.10	5.2526E-01
433.45	5.6841E-01
433.80	5.4559E-01
434.16	5.5821E-01
434.51	5.4275E-01
434.86	5.4900E-01
435.22	5.3046E-01
435.57	5.7968E-01
435.92	5.6085E-01
436.28	5.5244E-01
436.63	5.2858E-01
436.98	5.3788E-01
437.34	5.6198E-01
437.69	5.4231E-01
438.04	5.1990E-01
438.39	5.4586E-01
438.75	5.2642E-01
439.10	5.2000E-01
439.45	5.4659E-01
439.81	5.3340E-01
440.16	5.1470E-01
440.51	5.2148E-01
440.86	5.1393E-01
441.22	5.2058E-01
441.57	5.2723E-01
441.92	5.0144E-01
442.27	5.3418E-01
442.63	5.2409E-01
442.98	5.3908E-01
443.33	5.4025E-01
443.68	5.2259E-01
444.03	4.8655E-01
444.39	4.9161E-01
444.74	5.1750E-01
445.09	5.2105E-01
445.44	5.4376E-01
445.79	4.8010E-01
446.15	5.0970E-01
446.50	5.1181E-01
446.85	4.8058E-01
447.20	4.8712E-01
447.55	5.1156E-01
447.91	5.1097E-01
448.26	4.9961E-01
448.61	5.0022E-01
448.96	4.9567E-01
449.31	4.9315E-01
449.66	5.1396E-01
450.02	4.9763E-01
450.37	4.9897E-01
450.72	4.8534E-01
451.07	5.2089E-01
451.42	5.1416E-01
451.77	4.9940E-01
452.12	4.8583E-01
452.47	5.2822E-01
452.83	4.7371E-01
453.18	5.0991E-01
453.53	4.8845E-01
453.88	4.7133E-01
454.23	4.7939E-01
454.58	4.8754E-01
454.93	4.9058E-01
455.28	4.9093E-01
455.63	4.8759E-01
455.98	4.6493E-01
456.34	4.8802E-01
456.69	4.8169E-01
457.04	4.6988E-01
457.39	4.5570E-01
457.74	4.5386E-01
458.09	4.6783E-01
458.44	4.5117E-01
458.79	4.3930E-01
459.14	4.5140E-01
459.49	4.7248E-01
459.84	4.4538E-01
460.19	4.7472E-01
460.54	4.7030E-01
460.89	4.3578E-01
461.24	4.7493E-01
461.59	4.6200E-01
461.94	4.6766E-01
462.29	4.3145E-01
462.64	4.6302E-01
462.99	4.6305E-01
463.34	4.8069E-01
463.69	4.4473E-01
464.04	4.3577E-01
464.39	4.4410E-01
464.74	4.4896E-01
465.09	4.5915E-01
465.44	4.4581E-01
465.79	4.4557E-01
466.14	4.4621E-01
466.49	4.4278E-01
466.84	4.4654E-01
467.19	4.5190E-01
467.54	4.5164E-01
467.89	4.2796E-01
468.24	4.1582E-01
468.59	4.3016E-01
468.94	4.2004E-01
469.29	4.2144E-01
469.64	4.3799E-01
469.99	4.1891E-01
470.34	4.0318E-01
470.68	4.3772E-01
471.03	4.0817E-01
471.38	4.1179E-01
471.73	4.0226E-01
472.08	3.9216E-01
472.43	3.8366E-01
472.78	3.9841E-01
473.13	3.9883E-01
473.48	3.8933E-01
473.83	3.8240E-01
474.17	3.8952E-01
474.52	3.8520E-01
474.87	3.6768E-01
475.22	3.7297E-01
475.57	3.5429E-01
475.92	3.4164E-01
476.27	3.6285E-01
476.61	3.4730E-01
476.96	3.4318E-01
477.31	3.2615E-01
477.66	3.3598E-01
478.01	3.3137E-01
478.36	3.2732E-01
478.70	3.2480E-01
479.05	3.2943E-01
479.40	3.1312E-01
479.75	3.1448E-01
480.10	3.1182E-01
480.45	3.0787E-01
480.79	3.0685E-01
481.14	3.1461E-01
481.49	3.0582E-01
481.84	2.9680E-01
482.19	2.9265E-01
482.53	2.9311E-01
482.88	2.9180E-01
483.23	2.8764E-01
483.58	2.8280E-01
483.92	2.8920E-01
484.27	2.7690E-01
484.62	2.7750E-01
484.97	2.7225E-01
485.31	2.6829E-01
485.66	2.7508E-01
486.01	2.7302E-01
486.36	2.6619E-01
486.70	2.7034E-01
487.05	2.6872E-01
487.40	2.6330E-01
487.75	2.5537E-01
488.09	2.5978E-01
488.44	2.6696E-01
488.79	2.5640E-01
489.13	2.5830E-01
489.48	2.5861E-01
489.83	2.6044E-01
490.17	2.5209E-01
490.52	2.5280E-01
490.87	2.5424E-01
491.22	2.5676E-01
491.56	2.5201E-01
491.91	2.5599E-01
492.26	2.5305E-01
492.60	2.5237E-01
492.95	2.5388E-01
493.30	2.5615E-01
493.64	2.5117E-01
493.99	2.5331E-01
494.34	2.5128E-01
494.68	2.4658E-01
495.03	2.5435E-01
495.37	2.5020E-01
495.72	2.5249E-01
496.07	2.4829E-01
496.41	2.5182E-01
496.76	2.5004E-01
497.11	2.5172E-01
497.45	2.5019E-01
497.80	2.5186E-01
498.14	2.5200E-01
498.49	2.5223E-01
498.84	2.5142E-01
499.18	2.4985E-01
499.53	2.5299E-01
499.87	2.5110E-01
500.22	2.5334E-01
500.56	2.5172E-01
500.91	2.5030E-01
501.26	2.5207E-01
501.60	2.5164E-01
501.95	2.4816E-01
502.29	2.5009E-01
502.64	2.5048E-01
502.98	2.5179E-01
503.33	2.5205E-01
503.67	2.5085E-01
504.02	2.4961E-01
504.36	2.4767E-01
504.71	2.4958E-01
505.06	2.4951E-01
505.40	2.4892E-01
505.75	2.4688E-01
506.09	2.4749E-01
506.44	2.4629E-01
506.78	2.4788E-01
507.13	2.4796E-01
507.47	2.4550E-01
507.82	2.4453E-01
508.16	2.4479E-01
508.51	2.4420E-01
508.85	2.4366E-01
509.19	2.4317E-01
509.54	2.4640E-01
509.88	2.4482E-01
510.23	2.4216E-01
510.57	2.4118E-01
510.92	2.4494E-01
511.26	2.4273E-01
511.61	2.4243E-01
511.95	2.4299E-01
512.30	2.4086E-01
512.64	2.4189E-01
512.98	2.4128E-01
513.33	2.4087E-01
513.67	2.4101E-01
514.02	2.3952E-01
514.36	2.3912E-01
514.70	2.3986E-01
515.05	2.3864E-01
515.39	2.3962E-01
515.74	2.3657E-01
516.08	2.3914E-01
516.42	2.3721E-01
516.77	2.3755E-01
517.11	2.3624E-01
517.46	2.3851E-01
517.80	2.3580E-01
518.14	2.3673E-01
518.49	2.3694E-01
518.83	2.3424E-01
519.17	2.3809E-01
519.52	2.3578E-01
519.86	2.3538E-01
520.20	2.3277E-01
520.55	2.3515E-01
520.89	2.3560E-01
521.23	2.3535E-01
521.58	2.3470E-01
521.92	2.3864E-01
522.26	2.3726E-01
522.61	2.3385E-01
522.95	2.3562E-01
523.29	2.3524E-01
523.64	2.3429E-01
523.98	2.3447E-01
524.32	2.3676E-01
524.66	2.3607E-01
525.01	2.3765E-01
525.35	2.3778E-01
525.69	2.3802E-01
526.04	2.3885E-01
526.38	2.3513E-01
526.72	2.3821E-01
527.06	2.3797E-01
527.41	2.4174E-01
527.75	2.4223E-01
528.09	2.3908E-01
528.43	2.4076E-01
528.78	2.3843E-01
529.12	2.4485E-01
529.46	2.4249E-01
529.80	2.4269E-01
530.15	2.4348E-01
530.49	2.4459E-01
530.83	2.4571E-01
531.17	2.4592E-01
531.51	2.4655E-01
531.86	2.4745E-01
532.20	2.4973E-01
532.54	2.4972E-01
532.88	2.4982E-01
533.22	2.5101E-01
533.57	2.5168E-01
533.91	2.5379E-01
534.25	2.5405E-01
534.59	2.5248E-01
534.93	2.5381E-01
535.27	2.5484E-01
535.62	2.5756E-01
535.96	2.5925E-01
536.30	2.5921E-01
536.64	2.6012E-01
536.98	2.6085E-01
537.32	2.6102E-01
537.66	2.6032E-01
538.01	2.6390E-01
538.35	2.6542E-01
538.69	2.6348E-01
539.03	2.6907E-01
539.37	2.6572E-01
539.71	2.6762E-01
540.05	2.6796E-01
540.39	2.6804E-01
540.73	2.7079E-01
541.07	2.6894E-01
541.42	2.6902E-01
541.76	2.6924E-01
542.10	2.6980E-01
542.44	2.7153E-01
542.78	2.7177E-01
543.12	2.7171E-01
543.46	2.7760E-01
543.80	2.7433E-01
544.14	2.7566E-01
544.48	2.7264E-01
544.82	2.7583E-01
545.16	2.7537E-01
545.50	2.7480E-01
545.84	2.7933E-01
546.18	2.7598E-01
546.52	2.7932E-01
546.86	2.7538E-01
547.20	2.7843E-01
547.54	2.8324E-01
547.88	2.7898E-01
548.22	2.8004E-01
548.56	2.8040E-01
548.90	2.7818E-01
549.24	2.8218E-01
549.58	2.8168E-01
549.92	2.8171E-01
550.26	2.8506E-01
550.60	2.8309E-01
550.94	2.7898E-01
551.28	2.8612E-01
551.62	2.8314E-01
551.96	2.8568E-01
552.30	2.8387E-01
552.64	2.8595E-01
552.98	2.8412E-01
553.32	2.8433E-01
553.66	2.8224E-01
554.00	2.8325E-01
554.34	2.8621E-01
554.68	2.8729E-01
555.02	2.8579E-01
555.36	2.8569E-01
555.69	2.8852E-01
556.03	2.8738E-01
556.37	2.8714E-01
556.71	2.8592E-01
557.05	2.8489E-01
557.39	2.8642E-01
557.73	2.8577E-01
558.07	2.8788E-01
558.41	2.8624E-01
558.75	2.8702E-01
559.08	2.8806E-01
559.42	2.8382E-01
559.76	2.8783E-01
560.10	2.8694E-01
560.44	2.8752E-01
560.78	2.8508E-01
561.12	2.8687E-01
561.45	2.8770E-01
561.79	2.8805E-01
562.13	2.8676E-01
562.47	2.8682E-01
562.81	2.9098E-01
563.15	2.9029E-01
563.48	2.8831E-01
563.82	2.8629E-01
564.16	2.8911E-01
564.50	2.9001E-01
564.84	2.8968E-01
565.17	2.8943E-01
565.51	2.8614E-01
565.85	2.8961E-01
566.19	2.8861E-01
566.52	2.9025E-01
566.86	2.8911E-01
567.20	2.9038E-01
567.54	2.9261E-01
567.88	2.8964E-01
568.21	2.9137E-01
568.55	2.9097E-01
568.89	2.9117E-01
569.23	2.9292E-01
569.56	2.9042E-01
569.90	2.9107E-01
570.24	2.9373E-01
570.57	2.9227E-01
570.91	2.9483E-01
571.25	2.9295E-01
571.59	2.9351E-01
571.92	2.9343E-01
572.26	2.9532E-01
572.60	2.9761E-01
572.93	2.9561E-01
573.27	2.9962E-01
573.61	2.9922E-01
573.95	2.9529E-01
574.28	2.9966E-01
574.62	2.9918E-01
574.96	2.9987E-01
575.29	2.9861E-01
575.63	3.0255E-01
575.97	3.0181E-01
576.30	3.0912E-01
576.64	3.0404E-01
576.98	3.0514E-01
577.31	3.0717E-01
577.65	3.0787E-01
577.98	3.0732E-01
578.32	3.1123E-01
578.66	3.0979E-01
578.99	3.1427E-01
579.33	3.1369E-01
579.67	3.1384E-01
580.00	3.1441E-01
580.34	3.1784E-01
580.67	3.1701E-01
581.01	3.1737E-01
581.35	3.2041E-01
581.68	3.2172E-01
582.02	3.2064E-01
582.35	3.2143E-01
582.69	3.2345E-01
583.02	3.2867E-01
583.36	3.2616E-01
583.70	3.2521E-01
584.03	3.2764E-01
584.37	3.2827E-01
584.70	3.3263E-01
585.04	3.3306E-01
585.37	3.3045E-01
585.71	3.3498E-01
586.04	3.3379E-01
586.38	3.3191E-01
586.72	3.3672E-01
587.05	3.3612E-01
587.39	3.3777E-01
587.72	3.3729E-01
588.06	3.3976E-01
588.39	3.3856E-01
588.73	3.4445E-01
589.06	3.4351E-01
589.40	3.4482E-01
589.73	3.4636E-01
590.07	3.4915E-01
590.40	3.5033E-01
590.73	3.5430E-01
591.07	3.5091E-01
591.40	3.5231E-01
591.74	3.4913E-01
592.07	3.5415E-01
592.41	3.5480E-01
592.74	3.5368E-01
593.08	3.5482E-01
593.41	3.5659E-01
593.75	3.5356E-01
594.08	3.6086E-01
594.41	3.5649E-01
594.75	3.6064E-01
595.08	3.5976E-01
595.42	3.5596E-01
595.75	3.5913E-01
596.09	3.5915E-01
596.42	3.5968E-01
596.75	3.6265E-01
597.09	3.6612E-01
597.42	3.6088E-01
597.75	3.6408E-01
598.09	3.6455E-01
598.42	3.6239E-01
598.76	3.6593E-01
599.09	3.6578E-01
599.42	3.6895E-01
599.76	3.6849E-01
600.09	3.6837E-01
600.42	3.7081E-01
600.76	3.6704E-01
601.09	3.6945E-01
601.42	3.7670E-01
601.76	3.6989E-01
602.09	3.7054E-01
602.42	3.7198E-01
602.76	3.7234E-01
603.09	3.6919E-01
603.42	3.7228E-01
603.76	3.7144E-01
604.09	3.7214E-01
604.42	3.7302E-01
604.76	3.7250E-01
605.09	3.7639E-01
605.42	3.7378E-01
605.75	3.7599E-01
606.09	3.7531E-01
606.42	3.7404E-01
606.75	3.7691E-01
607.09	3.7601E-01
607.42	3.7612E-01
607.75	3.7756E-01
608.08	3.7816E-01
608.42	3.7860E-01
608.75	3.7682E-01
609.08	3.8179E-01
609.41	3.8035E-01
609.75	3.7911E-01
610.08	3.7896E-01
610.41	3.8053E-01
610.74	3.7981E-01
611.07	3.8231E-01
611.41	3.7807E-01
611.74	3.8260E-01
612.07	3.8640E-01
612.40	3.8036E-01
612.73	3.8066E-01
613.07	3.8590E-01
613.40	3.8155E-01
613.73	3.8110E-01
614.06	3.8368E-01
614.39	3.8480E-01
614.72	3.8752E-01
615.06	3.8482E-01
615.39	3.9011E-01
615.72	3.8499E-01
616.05	3.8990E-01
616.38	3.8657E-01
616.71	3.8908E-01
617.05	3.8492E-01
617.38	3.9035E-01
617.71	3.8352E-01
618.04	3.9095E-01
618.37	3.8629E-01
618.70	3.8508E-01
619.03	3.9051E-01
619.36	3.8219E-01
619.69	3.9075E-01
620.03	3.8443E-01
620.36	3.8869E-01
620.69	3.8720E-01
621.02	3.8835E-01
621.35	3.8546E-01
621.68	3.8422E-01
622.01	3.8357E-01
622.34	3.8647E-01
622.67	3.8632E-01
623.00	3.8642E-01
623.33	3.8508E-01
623.66	3.8635E-01
623.99	3.8657E-01
624.32	3.8242E-01
624.65	3.8512E-01
624.99	3.8478E-01
625.32	3.8773E-01
625.65	3.8338E-01
625.98	3.8202E-01
626.31	3.8560E-01
626.64	3.8753E-01
626.97	3.8525E-01
627.30	3.8258E-01
627.63	3.8396E-01
627.96	3.8542E-01
628.29	3.8087E-01
628.62	3.8633E-01
628.95	3.8522E-01
629.28	3.7873E-01
629.61	3.9016E-01
629.94	3.8451E-01
630.26	3.8648E-01
630.59	3.8939E-01
630.92	3.8651E-01
631.25	3.8901E-01
631.58	3.9168E-01
631.91	3.8679E-01
632.24	3.9459E-01
632.57	3.9065E-01
632.90	3.9275E-01
633.23	3.9326E-01
633.56	3.9434E-01
633.89	3.9450E-01
634.22	3.9418E-01
634.55	3.9718E-01
634.88	4.0240E-01
635.20	3.9811E-01
635.53	4.0276E-01
635.86	4.0222E-01
636.19	4.0703E-01
636.52	4.0841E-01
636.85	4.0965E-01
637.18	4.1344E-01
637.51	4.1242E-01
637.83	4.1324E-01
638.16	4.1043E-01
638.49	4.1846E-01
638.82	4.1578E-01
639.15	4.2128E-01
639.48	4.2360E-01
639.81	4.2771E-01
640.13	4.2252E-01
640.46	4.3068E-01
640.79	4.2658E-01
641.12	4.3464E-01
641.45	4.3053E-01
641.77	4.3152E-01
642.10	4.3876E-01
642.43	4.4114E-01
642.76	4.4294E-01
643.09	4.3913E-01
643.41	4.4438E-01
643.74	4.4625E-01
644.07	4.4500E-01
644.40	4.4780E-01
644.73	4.5202E-01
645.05	4.5572E-01
645.38	4.5541E-01
645.71	4.6249E-01
646.04	4.6035E-01
646.36	4.5950E-01
646.69	4.6776E-01
647.02	4.6688E-01
647.35	4.6527E-01
647.67	4.6938E-01
648.00	4.6822E-01
648.33	4.7586E-01
648.66	4.7177E-01
648.98	4.7619E-01
649.31	4.7548E-01
649.64	4.7681E-01
649.96	4.8049E-01
650.29	4.8702E-01
650.62	4.8525E-01
650.94	4.8752E-01
651.27	4.8654E-01
651.60	4.8944E-01
651.92	4.9357E-01
652.25	4.9643E-01
652.58	4.9408E-01
652.90	4.9755E-01
653.23	4.9719E-01
653.56	5.0154E-01
653.88	5.0449E-01
654.21	5.0236E-01
654.54	5.0625E-01
654.86	5.1048E-01
655.19	5.0310E-01
655.52	5.1217E-01
655.84	5.0910E-01
656.17	5.1479E-01
656.49	5.1589E-01
656.82	5.1391E-01
657.15	5.1775E-01
657.47	5.1666E-01
657.80	5.2047E-01
658.13	5.1973E-01
658.45	5.2356E-01
658.78	5.2658E-01
659.10	5.2634E-01
659.43	5.3167E-01
659.75	5.2688E-01
660.08	5.2822E-01
660.41	5.3316E-01
660.73	5.3264E-01
661.06	5.3576E-01
661.38	5.3485E-01
661.71	5.3868E-01
662.03	5.3543E-01
662.36	5.4132E-01
662.68	5.4295E-01
663.01	5.3589E-01
663.33	5.4474E-01
663.66	5.4765E-01
663.98	5.4977E-01
664.31	5.4339E-01
664.63	5.5431E-01
664.96	5.4542E-01
665.28	5.5057E-01
665.61	5.5036E-01
665.93	5.5586E-01
666.26	5.5494E-01
666.58	5.5759E-01
666.91	5.5567E-01
667.23	5.6053E-01
667.56	5.5910E-01
667.88	5.5834E-01
668.21	5.6365E-01
668.53	5.6199E-01
668.86	5.6451E-01
669.18	5.6215E-01
669.50	5.7202E-01
669.83	5.7302E-01
670.15	5.7473E-01
670.48	5.7522E-01
670.80	5.7030E-01
671.13	5.7017E-01
671.45	5.7599E-01
671.77	5.7449E-01
672.10	5.7315E-01
672.42	5.8307E-01
672.75	5.7636E-01
673.07	5.8423E-01
673.39	5.8347E-01
673.72	5.8466E-01
674.04	5.8917E-01
674.37	5.8795E-01
674.69	5.8648E-01
675.01	5.9129E-01
675.34	5.9240E-01
675.66	5.9391E-01
675.98	5.8666E-01
676.31	5.9712E-01
676.63	5.9673E-01
676.95	5.9625E-01
677.28	6.0131E-01
677.60	5.9950E-01
677.92	6.0345E-01
678.25	6.0789E-01
678.57	6.0790E-01
678.89	6.0708E-01
679.22	6.0913E-01
679.54	6.0843E-01
679.86	6.1278E-01
680.18	6.1197E-01
680.51	6.1044E-01
680.83	6.2634E-01
681.15	6.1974E-01
681.48	6.2091E-01
681.80	6.2133E-01
682.12	6.1892E-01
682.44	6.2793E-01
682.77	6.2696E-01
683.09	6.3204E-01
683.41	6.3174E-01
683.73	6.3711E-01
684.06	6.3771E-01
684.38	6.3576E-01
684.70	6.3841E-01
685.02	6.3800E-01
685.34	6.4449E-01
685.67	6.4130E-01
685.99	6.5393E-01
686.31	6.4793E-01
686.63	6.5512E-01
686.96	6.5722E-01
687.28	6.6000E-01
687.60	6.5805E-01
687.92	6.5931E-01
688.24	6.7090E-01
688.56	6.6965E-01
688.89	6.6773E-01
689.21	6.7188E-01
689.53	6.7201E-01
689.85	6.8406E-01
690.17	6.7761E-01
690.49	6.8747E-01
690.82	6.8696E-01
691.14	6.9116E-01
691.46	6.8918E-01
691.78	6.9666E-01
692.10	6.9259E-01
692.42	6.9826E-01
692.74	7.0210E-01
693.06	7.0594E-01
693.39	7.1104E-01
693.71	7.2042E-01
694.03	7.1389E-01
694.35	7.1408E-01
694.67	7.2589E-01
694.99	7.2549E-01
695.31	7.3209E-01
695.63	7.3193E-01
695.95	7.3261E-01
696.27	7.3400E-01
696.59	7.3768E-01
696.91	7.4584E-01
697.23	7.4942E-01
697.56	7.5126E-01
697.88	7.5508E-01
698.20	7.5359E-01
698.52	7.5795E-01
698.84	7.6820E-01
699.16	7.7366E-01
699.48	7.7135E-01
699.80	7.7295E-01
700.12	7.8704E-01
700.44	7.8405E-01
700.76	7.8709E-01
701.08	7.9122E-01
701.40	7.9506E-01
701.72	7.9693E-01
702.04	8.0382E-01
702.36	8.0291E-01
702.68	8.0863E-01
703.00	8.1947E-01
703.32	8.1407E-01
703.64	8.2301E-01
703.96	8.1267E-01
704.28	8.2585E-01
704.60	8.3712E-01
704.91	8.3448E-01
705.23	8.4228E-01
705.55	8.4825E-01
705.87	8.5326E-01
706.19	8.5180E-01
706.51	8.5005E-01
706.83	8.4929E-01
707.15	8.7985E-01
707.47	8.6936E-01
707.79	8.7425E-01
708.11	8.7842E-01
708.43	8.8148E-01
708.74	8.8820E-01
709.06	8.9733E-01
709.38	8.9672E-01
709.70	8.9940E-01
710.02	9.0462E-01
710.34	8.9758E-01
710.66	9.1364E-01
710.98	9.1768E-01
711.29	9.2351E-01
711.61	9.3989E-01
711.93	9.3460E-01
712.25	9.3455E-01
712.57	9.4610E-01
712.89	9.5241E-01
713.20	9.5557E-01
713.52	9.6388E-01
713.84	9.6599E-01
714.16	9.5988E-01
714.48	9.6901E-01
714.80	9.8293E-01
715.11	9.7839E-01
715.43	9.9245E-01
715.75	9.8979E-01
716.07	1.0045E00
716.39	9.8851E-01
716.70	1.0018E00
717.02	9.9898E-01
717.34	1.0259E00
717.66	1.0174E00
717.97	1.0304E00
718.29	1.0405E00
718.61	1.0420E00
718.93	1.0448E00
719.24	1.0486E00
719.56	1.0681E00
719.88	1.0578E00
720.20	1.0788E00
720.51	1.0939E00
720.83	1.0804E00
721.15	1.0995E00
721.46	1.1055E00
721.78	1.1129E00
722.10	1.1264E00
722.42	1.1313E00
722.73	1.1302E00
723.05	1.1319E00
723.37	1.1467E00
723.68	1.1585E00
724.00	1.1584E00
724.32	1.1794E00
724.63	1.1669E00
724.95	1.1811E00
725.27	1.1837E00
725.58	1.1810E00
725.90	1.1771E00
726.22	1.2041E00
726.53	1.1908E00
726.85	1.2023E00
727.16	1.2096E00
727.48	1.2045E00
727.80	1.2172E00
728.11	1.2212E00
728.43	1.2271E00
728.74	1.2231E00
729.06	1.2288E00
729.38	1.2342E00
729.69	1.2302E00
730.01	1.2494E00
730.32	1.2469E00
730.64	1.2495E00
730.96	1.2389E00
731.27	1.2692E00
731.59	1.2544E00
731.90	1.2620E00
732.22	1.2713E00
732.53	1.2804E00
732.85	1.2786E00
733.16	1.2769E00
733.48	1.2736E00
733.80	1.2806E00
734.11	1.2914E00
734.43	1.3081E00
734.74	1.3108E00
735.06	1.3148E00
735.37	1.3243E00
735.69	1.3265E00
736.00	1.3170E00
736.32	1.3330E00
736.63	1.3268E00
736.95	1.3442E00
737.26	1.3529E00
737.58	1.3488E00
737.89	1.3769E00
738.21	1.3627E00
738.52	1.3613E00
738.83	1.3797E00
739.15	1.3662E00
739.46	1.3840E00
739.78	1.3841E00
740.09	1.3959E00
740.41	1.3831E00
740.72	1.3904E00
741.04	1.3860E00
741.35	1.3890E00
741.66	1.4150E00
741.98	1.4039E00
742.29	1.4002E00
742.61	1.4094E00
742.92	1.4160E00
743.23	1.4153E00
743.55	1.4166E00
743.86	1.4169E00
744.18	1.4239E00
744.49	1.4219E00
744.80	1.4142E00
745.12	1.4123E00
745.43	1.4214E00
745.74	1.4196E00
746.06	1.4205E00
746.37	1.4069E00
746.68	1.4223E00
747.00	1.4075E00
747.31	1.4231E00
747.62	1.4075E00
747.94	1.4404E00
748.25	1.4230E00
748.56	1.4204E00
748.88	1.4102E00
749.19	1.4272E00
749.50	1.4154E00
749.82	1.4215E00
750.13	1.4317E00
750.44	1.4196E00
750.75	1.4201E00
751.07	1.4260E00
751.38	1.4134E00
751.69	1.4133E00
752.01	1.4298E00
752.32	1.4378E00
752.63	1.4309E00
752.94	1.4253E00
753.26	1.4334E00
753.57	1.4411E00
753.88	1.4554E00
754.19	1.4357E00
754.51	1.4410E00
754.82	1.4567E00
755.13	1.4560E00
755.44	1.4669E00
755.75	1.4553E00
756.07	1.4625E00
756.38	1.4708E00
756.69	1.4749E00
757.00	1.4752E00
757.31	1.5039E00
757.63	1.4956E00
757.94	1.5064E00
758.25	1.5160E00
758.56	1.4994E00
758.87	1.5186E00
759.18	1.5234E00
759.50	1.5296E00
759.81	1.5316E00
760.12	1.5509E00
760.43	1.5602E00
760.74	1.5712E00
761.05	1.5709E00
761.36	1.5813E00
761.67	1.5879E00
761.99	1.5928E00
762.30	1.5926E00
762.61	1.6135E00
762.92	1.6298E00
763.23	1.6291E00
763.54	1.6519E00
763.85	1.6509E00
764.16	1.6745E00
764.47	1.6902E00
764.78	1.7079E00
765.10	1.7080E00
765.41	1.7116E00
765.72	1.7269E00
766.03	1.7664E00
766.34	1.7745E00
766.65	1.7614E00
766.96	1.8094E00
767.27	1.8003E00
767.58	1.7949E00
767.89	1.8227E00
768.20	1.8413E00
768.51	1.8412E00
768.82	1.8538E00
769.13	1.8697E00
769.44	1.9087E00
769.75	1.9199E00
770.06	1.9374E00
770.37	1.9163E00
770.68	1.9614E00
770.99	1.9822E00
771.30	2.0062E00
771.61	2.0447E00
771.92	2.0367E00
772.23	2.0339E00
772.54	2.0747E00
772.85	2.0663E00
773.16	2.0809E00
773.47	2.1235E00
773.78	2.1024E00
774.09	2.1556E00
774.39	2.1554E00
774.70	2.1886E00
775.01	2.2037E00
775.32	2.2272E00
775.63	2.2414E00
775.94	2.2658E00
776.25	2.2473E00
776.56	2.2870E00
776.87	2.3579E00
777.18	2.3241E00
777.48	2.3677E00
777.79	2.3879E00
778.10	2.4080E00
778.41	2.4214E00
778.72	2.4627E00
779.03	2.4618E00
779.34	2.4933E00
779.65	2.4973E00
779.95	2.5262E00
780.26	2.5412E00
780.57	2.5545E00
780.88	2.5840E00
781.19	2.5998E00
781.50	2.6177E00
781.80	2.6493E00
782.11	2.6844E00
782.42	2.6956E00
782.73	2.6669E00
783.04	2.7637E00
783.34	2.7523E00
783.65	2.8050E00
783.96	2.8124E00
784.27	2.8215E00
784.57	2.8103E00
784.88	2.8637E00
785.19	2.8792E00
785.50	2.9097E00
785.81	2.9526E00
786.11	2.9338E00
786.42	2.9726E00
786.73	3.0350E00
787.04	3.0507E00
787.34	3.0672E00
787.65	3.0369E00
787.96	3.1433E00
788.26	3.1195E00
788.57	3.1996E00
788.88	3.1323E00
789.19	3.2539E00
789.49	3.2373E00
789.80	3.3119E00
790.11	3.3147E00
790.41	3.2868E00
790.72	3.3846E00
791.03	3.4170E00
791.33	3.4010E00
791.64	3.4730E00
791.95	3.4632E00
792.25	3.5235E00
792.56	3.5281E00
792.87	3.5170E00
793.17	3.5427E00
793.48	3.5709E00
793.79	3.6565E00
794.09	3.6732E00
794.40	3.6522E00
794.70	3.6321E00
795.01	3.7477E00
795.32	3.7455E00
795.62	3.7830E00
795.93	3.7963E00
796.23	3.8278E00
796.54	3.8573E00
796.85	3.9012E00
797.15	3.9399E00
797.46	3.8941E00
797.76	3.9876E00
798.07	4.0291E00
798.37	4.0562E00
798.68	4.0857E00
798.99	4.1143E00
799.29	4.1214E00
799.60	4.2046E00
799.90	4.2030E00
800.21	4.3004E00
800.51	4.2881E00
800.82	4.2926E00
801.12	4.3552E00
801.43	4.3869E00
801.73	4.3751E00
802.04	4.4726E00
802.34	4.4657E00
802.65	4.5196E00
802.95	4.5875E00
803.26	4.5687E00
803.56	4.5465E00
803.87	4.6426E00
804.17	4.7102E00
804.48	4.6743E00
804.78	4.7266E00
805.09	4.8208E00
805.39	4.7338E00
805.70	4.7951E00
806.00	4.8731E00
806.30	4.8812E00
806.61	4.9034E00
806.91	4.9119E00
807.22	5.0234E00
807.52	5.0205E00
807.83	5.0394E00
808.13	5.1225E00
808.43	5.0444E00
808.74	5.1024E00
809.04	5.1630E00
809.35	5.2260E00
809.65	5.2973E00
809.95	5.3097E00
810.26	5.4228E00
810.56	5.3486E00
810.86	5.5545E00
811.17	5.4693E00
811.47	5.6141E00
811.77	5.5443E00
812.08	5.5250E00
812.38	5.6527E00
812.69	5.6389E00
812.99	5.6585E00
813.29	5.7254E00
813.59	5.7946E00
813.90	5.9226E00
814.20	5.8562E00
814.50	6.0264E00
814.81	5.8492E00
815.11	6.0907E00
815.41	6.0988E00
815.72	6.1263E00
816.02	6.1800E00
816.32	6.2992E00
816.62	6.0737E00
816.93	6.2618E00
817.23	6.4176E00
817.53	6.2178E00
817.84	6.4184E00
818.14	6.4848E00
818.44	6.4122E00
818.74	6.4531E00
819.04	6.7762E00
819.35	6.6736E00
819.65	6.5485E00
819.95	6.7453E00
820.25	6.8552E00
820.56	6.7213E00
820.86	6.8530E00
821.16	6.8592E00
821.46	7.0687E00
821.76	6.8070E00
822.07	6.9876E00
822.37	7.1519E00
822.67	7.2646E00
822.97	7.4129E00
823.27	7.2599E00
823.57	7.2185E00
823.88	7.4184E00
824.18	7.2790E00
824.48	7.4960E00
824.78	7.7240E00
825.08	7.5370E00
825.38	7.6825E00
825.69	7.6976E00
825.99	7.7311E00
826.29	7.5697E00
826.59	7.8142E00
826.89	7.9908E00
827.19	7.7874E00
827.49	8.0790E00
827.79	8.0004E00
828.09	8.2109E00
828.39	8.2195E00
828.70	8.2012E00
829.00	8.0589E00
829.30	8.2249E00
829.60	8.3877E00
829.90	8.2998E00
830.20	8.3991E00
830.50	8.6732E00
830.80	8.6402E00
831.10	8.5551E00
831.40	8.7486E00
831.70	8.8267E00
832.00	8.8849E00
832.30	8.9473E00
832.60	8.8250E00
832.90	9.0411E00
833.20	8.9469E00
833.50	9.1200E00
833.80	9.1811E00
834.10	9.3107E00
834.40	9.2415E00
834.70	9.3483E00
835.00	9.4906E00
835.30	9.4418E00
835.60	9.5566E00
835.90	9.6532E00
836.20	9.8068E00
836.50	9.8555E00
836.80	9.6811E00
837.10	9.8461E00
837.40	9.8682E00
837.70	9.9685E00
838.00	1.0048E01
838.30	1.0304E01
838.60	1.0172E01
838.90	1.0406E01
839.19	1.0523E01
839.49	1.0706E01
839.79	1.0225E01
840.09	1.0716E01
840.39	1.0523E01
840.69	1.0680E01
840.99	1.0993E01
841.29	1.0881E01
841.59	1.1004E01
841.88	1.1185E01
842.18	1.1083E01
842.48	1.1269E01
842.78	1.1347E01
843.08	1.1493E01
843.38	1.1465E01
843.68	1.1944E01
843.97	1.1803E01
844.27	1.1850E01
844.57	1.1724E01
844.87	1.1810E01
845.17	1.2240E01
845.47	1.1863E01
845.76	1.2328E01
846.06	1.2261E01
846.36	1.2335E01
846.66	1.2324E01
846.96	1.2314E01
847.25	1.2863E01
847.55	1.2514E01
847.85	1.2775E01
848.15	1.2902E01
848.44	1.2880E01
848.74	1.2976E01
849.04	1.3440E01
849.34	1.3233E01
849.63	1.3361E01
849.93	1.3546E01
850.23	1.3613E01
850.53	1.3786E01
850.82	1.3816E01
851.12	1.4264E01
851.42	1.3917E01
851.71	1.4072E01
852.01	1.4257E01
852.31	1.4202E01
852.61	1.4768E01
852.90	1.4398E01
853.20	1.5024E01
853.50	1.4818E01
853.79	1.4909E01
854.09	1.4920E01
854.39	1.5319E01
854.68	1.5522E01
854.98	1.5868E01
855.28	1.5680E01
855.57	1.5674E01
855.87	1.5869E01
856.17	1.5599E01
856.46	1.6139E01
856.76	1.5994E01
857.05	1.6470E01
857.35	1.6778E01
857.65	1.6765E01
857.94	1.6648E01
858.24	1.6568E01
858.53	1.6966E01
858.83	1.7794E01
859.13	1.7444E01
859.42	1.7389E01
859.72	1.7472E01
860.01	1.7981E01
860.31	1.7697E01
860.60	1.8379E01
860.90	1.8374E01
861.20	1.8052E01
861.49	1.8365E01
861.79	1.8635E01
862.08	1.8778E01
862.38	1.8796E01
862.67	1.9166E01
862.97	1.9211E01
863.26	1.9932E01
863.56	1.9837E01
863.85	2.0365E01
864.15	2.0825E01
864.44	2.0509E01
864.74	2.0269E01
865.03	2.1067E01
865.33	2.1255E01
865.62	2.1268E01
865.92	2.1040E01
866.21	2.1397E01
866.51	2.1687E01
866.80	2.2296E01
867.10	2.1708E01
867.39	2.2644E01
867.69	2.2632E01
867.98	2.3015E01
868.27	2.3289E01
868.57	2.3863E01
868.86	2.3435E01
869.16	2.3161E01
869.45	2.4318E01
869.75	2.3838E01
870.04	2.4330E01
870.33	2.4780E01
870.63	2.5090E01
870.92	2.5317E01
871.22	2.5990E01
871.51	2.6152E01
871.80	2.5758E01
872.10	2.5758E01
>>>>>End Processed Spectral Data<<<<<
