SpectraSuite Data File
++++++++++++++++++++++++++++++++++++
Date: Fri May 15 07:49:30 PDT 2015
User: schluterlab
Dark Spectrum Present: Yes
Reference Spectrum Present: No
Number of Sampled Component Spectra: 1
Spectrometers: USB2E3373
Integration Time (usec): 2300000 (USB2E3373)
Spectra Averaged: 3 (USB2E3373)
Boxcar Smoothing: 0 (USB2E3373)
Correct for Electrical Dark: No (USB2E3373)
Strobe/Lamp Enabled: No (USB2E3373)
Correct for Detector Non-linearity: No (USB2E3373)
Correct for Stray Light: No (USB2E3373)
Number of Pixels in Processed Spectrum: 2048
>>>>>Begin Processed Spectral Data<<<<<
178.53	0.0000E00
178.91	0.0000E00
179.29	0.0000E00
179.67	0.0000E00
180.04	0.0000E00
180.42	0.0000E00
180.80	0.0000E00
181.18	0.0000E00
181.56	0.0000E00
181.94	0.0000E00
182.31	0.0000E00
182.69	0.0000E00
183.07	0.0000E00
183.45	0.0000E00
183.83	0.0000E00
184.20	0.0000E00
184.58	0.0000E00
184.96	0.0000E00
185.34	0.0000E00
185.72	0.0000E00
186.09	0.0000E00
186.47	0.0000E00
186.85	0.0000E00
187.23	0.0000E00
187.61	-0.0000E00
187.98	0.0000E00
188.36	0.0000E00
188.74	0.0000E00
189.12	0.0000E00
189.49	0.0000E00
189.87	0.0000E00
190.25	0.0000E00
190.63	0.0000E00
191.00	0.0000E00
191.38	0.0000E00
191.76	0.0000E00
192.14	0.0000E00
192.51	0.0000E00
192.89	0.0000E00
193.27	0.0000E00
193.65	0.0000E00
194.02	0.0000E00
194.40	0.0000E00
194.78	0.0000E00
195.15	0.0000E00
195.53	0.0000E00
195.91	0.0000E00
196.29	0.0000E00
196.66	0.0000E00
197.04	0.0000E00
197.42	0.0000E00
197.79	0.0000E00
198.17	0.0000E00
198.55	0.0000E00
198.92	0.0000E00
199.30	0.0000E00
199.68	0.0000E00
200.05	0.0000E00
200.43	0.0000E00
200.81	0.0000E00
201.18	0.0000E00
201.56	0.0000E00
201.94	0.0000E00
202.31	0.0000E00
202.69	0.0000E00
203.07	0.0000E00
203.44	0.0000E00
203.82	0.0000E00
204.19	0.0000E00
204.57	0.0000E00
204.95	0.0000E00
205.32	0.0000E00
205.70	0.0000E00
206.08	0.0000E00
206.45	0.0000E00
206.83	0.0000E00
207.20	0.0000E00
207.58	0.0000E00
207.96	0.0000E00
208.33	0.0000E00
208.71	0.0000E00
209.08	0.0000E00
209.46	0.0000E00
209.84	0.0000E00
210.21	0.0000E00
210.59	0.0000E00
210.96	0.0000E00
211.34	0.0000E00
211.71	0.0000E00
212.09	0.0000E00
212.46	0.0000E00
212.84	0.0000E00
213.22	0.0000E00
213.59	0.0000E00
213.97	0.0000E00
214.34	0.0000E00
214.72	0.0000E00
215.09	0.0000E00
215.47	0.0000E00
215.84	0.0000E00
216.22	0.0000E00
216.59	0.0000E00
216.97	0.0000E00
217.34	0.0000E00
217.72	0.0000E00
218.09	0.0000E00
218.47	0.0000E00
218.84	0.0000E00
219.22	0.0000E00
219.59	0.0000E00
219.97	0.0000E00
220.34	0.0000E00
220.72	0.0000E00
221.09	0.0000E00
221.47	0.0000E00
221.84	0.0000E00
222.22	0.0000E00
222.59	0.0000E00
222.97	0.0000E00
223.34	0.0000E00
223.72	0.0000E00
224.09	0.0000E00
224.46	0.0000E00
224.84	0.0000E00
225.21	0.0000E00
225.59	0.0000E00
225.96	0.0000E00
226.34	0.0000E00
226.71	0.0000E00
227.08	0.0000E00
227.46	0.0000E00
227.83	0.0000E00
228.21	0.0000E00
228.58	0.0000E00
228.95	0.0000E00
229.33	0.0000E00
229.70	0.0000E00
230.08	0.0000E00
230.45	0.0000E00
230.82	0.0000E00
231.20	0.0000E00
231.57	0.0000E00
231.95	0.0000E00
232.32	0.0000E00
232.69	0.0000E00
233.07	0.0000E00
233.44	-0.0000E00
233.81	0.0000E00
234.19	0.0000E00
234.56	0.0000E00
234.93	0.0000E00
235.31	0.0000E00
235.68	0.0000E00
236.05	0.0000E00
236.43	0.0000E00
236.80	-0.0000E00
237.17	0.0000E00
237.55	0.0000E00
237.92	0.0000E00
238.29	0.0000E00
238.67	0.0000E00
239.04	0.0000E00
239.41	0.0000E00
239.79	0.0000E00
240.16	0.0000E00
240.53	0.0000E00
240.91	0.0000E00
241.28	0.0000E00
241.65	0.0000E00
242.02	0.0000E00
242.40	0.0000E00
242.77	0.0000E00
243.14	0.0000E00
243.51	0.0000E00
243.89	0.0000E00
244.26	0.0000E00
244.63	0.0000E00
245.00	0.0000E00
245.38	0.0000E00
245.75	0.0000E00
246.12	0.0000E00
246.49	0.0000E00
246.87	0.0000E00
247.24	0.0000E00
247.61	0.0000E00
247.98	0.0000E00
248.36	0.0000E00
248.73	0.0000E00
249.10	0.0000E00
249.47	0.0000E00
249.84	0.0000E00
250.22	0.0000E00
250.59	0.0000E00
250.96	0.0000E00
251.33	0.0000E00
251.70	0.0000E00
252.08	0.0000E00
252.45	0.0000E00
252.82	0.0000E00
253.19	0.0000E00
253.56	0.0000E00
253.94	0.0000E00
254.31	0.0000E00
254.68	0.0000E00
255.05	0.0000E00
255.42	0.0000E00
255.79	0.0000E00
256.16	0.0000E00
256.54	0.0000E00
256.91	0.0000E00
257.28	0.0000E00
257.65	0.0000E00
258.02	0.0000E00
258.39	0.0000E00
258.76	0.0000E00
259.14	0.0000E00
259.51	0.0000E00
259.88	0.0000E00
260.25	0.0000E00
260.62	0.0000E00
260.99	0.0000E00
261.36	0.0000E00
261.73	0.0000E00
262.10	0.0000E00
262.47	0.0000E00
262.85	0.0000E00
263.22	0.0000E00
263.59	0.0000E00
263.96	0.0000E00
264.33	0.0000E00
264.70	0.0000E00
265.07	0.0000E00
265.44	0.0000E00
265.81	0.0000E00
266.18	0.0000E00
266.55	0.0000E00
266.92	0.0000E00
267.29	0.0000E00
267.66	0.0000E00
268.03	0.0000E00
268.40	0.0000E00
268.77	0.0000E00
269.14	0.0000E00
269.51	0.0000E00
269.88	0.0000E00
270.25	0.0000E00
270.62	0.0000E00
270.99	0.0000E00
271.36	0.0000E00
271.73	0.0000E00
272.10	0.0000E00
272.47	0.0000E00
272.84	0.0000E00
273.21	0.0000E00
273.58	0.0000E00
273.95	0.0000E00
274.32	0.0000E00
274.69	0.0000E00
275.06	0.0000E00
275.43	0.0000E00
275.80	0.0000E00
276.17	0.0000E00
276.54	0.0000E00
276.91	0.0000E00
277.28	0.0000E00
277.65	-0.0000E00
278.02	0.0000E00
278.39	0.0000E00
278.76	0.0000E00
279.13	0.0000E00
279.50	0.0000E00
279.87	0.0000E00
280.23	0.0000E00
280.60	0.0000E00
280.97	0.0000E00
281.34	0.0000E00
281.71	0.0000E00
282.08	0.0000E00
282.45	0.0000E00
282.82	0.0000E00
283.19	0.0000E00
283.56	0.0000E00
283.92	0.0000E00
284.29	0.0000E00
284.66	0.0000E00
285.03	0.0000E00
285.40	0.0000E00
285.77	0.0000E00
286.14	0.0000E00
286.51	0.0000E00
286.87	0.0000E00
287.24	0.0000E00
287.61	0.0000E00
287.98	0.0000E00
288.35	0.0000E00
288.72	0.0000E00
289.08	0.0000E00
289.45	0.0000E00
289.82	0.0000E00
290.19	0.0000E00
290.56	0.0000E00
290.93	0.0000E00
291.29	0.0000E00
291.66	0.0000E00
292.03	0.0000E00
292.40	0.0000E00
292.77	0.0000E00
293.13	0.0000E00
293.50	0.0000E00
293.87	0.0000E00
294.24	0.0000E00
294.60	0.0000E00
294.97	0.0000E00
295.34	0.0000E00
295.71	0.0000E00
296.08	0.0000E00
296.44	0.0000E00
296.81	0.0000E00
297.18	0.0000E00
297.55	0.0000E00
297.91	0.0000E00
298.28	0.0000E00
298.65	0.0000E00
299.02	0.0000E00
299.38	0.0000E00
299.75	0.0000E00
300.12	4.1458E-01
300.48	9.2451E-01
300.85	9.7247E-01
301.22	4.7686E-01
301.59	7.9830E-01
301.95	1.3853E00
302.32	5.0779E-01
302.69	4.2797E-01
303.05	5.8805E-01
303.42	1.0347E00
303.79	5.6810E-01
304.15	5.3441E-01
304.52	4.9129E-01
304.89	6.1105E-01
305.25	1.0018E00
305.62	7.4348E-01
305.99	6.4754E-01
306.35	1.3648E00
306.72	6.8561E-01
307.09	1.2876E00
307.45	1.6748E00
307.82	9.4195E-01
308.19	6.3648E00
308.55	1.0516E00
308.92	1.0106E00
309.29	1.2465E00
309.65	1.8481E00
310.02	1.3279E00
310.38	1.3501E00
310.75	9.7020E-01
311.12	1.5004E00
311.48	1.4963E00
311.85	9.3715E-01
312.22	1.2020E00
312.58	1.5086E00
312.95	1.4437E00
313.31	1.3856E00
313.68	1.1344E00
314.05	2.0542E00
314.41	9.9987E-01
314.78	2.6012E00
315.14	1.3666E00
315.51	1.5071E00
315.87	1.5183E00
316.24	1.8907E00
316.61	1.1168E00
316.97	2.5089E00
317.34	1.4307E00
317.70	1.6585E00
318.07	1.5930E00
318.43	9.6462E-01
318.80	1.1736E00
319.16	2.2907E00
319.53	9.1152E-01
319.89	1.4555E00
320.26	9.5173E-01
320.62	2.0907E00
320.99	1.7928E00
321.35	1.8068E00
321.72	1.0127E00
322.08	1.1480E00
322.45	1.3235E00
322.81	2.4885E00
323.18	1.1762E00
323.54	9.9835E-01
323.91	1.5270E00
324.27	1.2026E00
324.64	3.8724E00
325.00	4.3334E00
325.37	2.0655E00
325.73	2.4672E00
326.10	1.9833E00
326.46	1.4775E00
326.83	1.4329E00
327.19	1.7504E00
327.56	1.2247E00
327.92	2.5364E00
328.29	1.2339E00
328.65	9.9570E-01
329.01	1.2393E00
329.38	1.2814E00
329.74	1.5800E00
330.11	1.5216E00
330.47	3.1603E00
330.84	1.6429E00
331.20	8.7288E-01
331.56	4.1016E00
331.93	1.9504E00
332.29	1.7779E00
332.66	2.0419E00
333.02	1.7704E00
333.38	1.0987E00
333.75	2.3862E00
334.11	1.0660E00
334.48	1.6836E00
334.84	9.5925E-01
335.20	1.4356E00
335.57	1.6721E00
335.93	1.3806E00
336.29	1.4278E00
336.66	1.4261E00
337.02	1.2082E00
337.38	1.4774E00
337.75	1.1392E00
338.11	1.3765E00
338.47	1.0504E00
338.84	1.4297E00
339.20	1.5440E00
339.56	1.6765E00
339.93	1.5546E00
340.29	1.2301E00
340.65	1.0474E00
341.02	1.5774E00
341.38	1.0593E00
341.74	1.3426E00
342.11	4.6620E00
342.47	1.5101E00
342.83	1.3750E00
343.20	1.7201E00
343.56	1.4469E00
343.92	1.4121E00
344.28	1.0528E00
344.65	1.1746E00
345.01	9.7966E-01
345.37	1.1672E00
345.73	1.4370E00
346.10	1.3252E00
346.46	8.6719E-01
346.82	1.5248E00
347.19	1.7028E00
347.55	1.5525E00
347.91	2.0216E00
348.27	1.0879E00
348.63	1.5917E00
349.00	1.5061E00
349.36	1.3184E00
349.72	1.6802E00
350.08	1.2694E00
350.45	1.1348E00
350.81	1.3505E00
351.17	2.2444E00
351.53	1.8503E00
351.89	1.4466E00
352.26	9.3365E-01
352.62	1.0097E00
352.98	1.0970E00
353.34	1.2892E00
353.70	1.4354E00
354.07	1.1587E00
354.43	1.0698E00
354.79	1.4508E00
355.15	1.2242E00
355.51	1.5434E00
355.87	9.3583E-01
356.24	9.3966E-01
356.60	1.0134E00
356.96	1.1005E00
357.32	1.0630E00
357.68	1.2343E00
358.04	9.9748E-01
358.40	1.4417E00
358.77	1.1780E00
359.13	8.5058E-01
359.49	1.2207E00
359.85	1.0329E00
360.21	1.2954E00
360.57	9.6358E-01
360.93	1.2624E00
361.29	1.2226E00
361.66	9.1611E-01
362.02	9.2632E-01
362.38	1.0833E00
362.74	9.1803E-01
363.10	8.6485E-01
363.46	9.5302E-01
363.82	9.7778E-01
364.18	1.0707E00
364.54	9.7248E-01
364.90	8.8016E-01
365.26	1.4714E00
365.62	8.6728E-01
365.98	1.1365E00
366.35	1.1136E00
366.71	9.3366E-01
367.07	1.1053E00
367.43	1.0093E00
367.79	9.5499E-01
368.15	1.1106E00
368.51	1.1749E00
368.87	1.1710E00
369.23	9.7361E-01
369.59	1.0366E00
369.95	1.0922E00
370.31	9.4526E-01
370.67	8.9164E-01
371.03	9.8946E-01
371.39	1.0644E00
371.75	1.2166E00
372.11	1.0983E00
372.47	8.7824E-01
372.83	1.3100E00
373.19	1.1781E00
373.55	8.5876E-01
373.91	9.9446E-01
374.27	1.0030E00
374.63	1.0020E00
374.99	1.0108E00
375.35	8.8967E-01
375.71	8.8958E-01
376.07	8.8824E-01
376.42	1.0354E00
376.78	1.0454E00
377.14	8.1791E-01
377.50	9.9745E-01
377.86	9.2853E-01
378.22	7.9925E-01
378.58	8.6295E-01
378.94	8.4894E-01
379.30	9.8211E-01
379.66	8.8638E-01
380.02	8.2929E-01
380.38	9.5380E-01
380.74	7.9353E-01
381.09	8.6710E-01
381.45	7.6225E-01
381.81	8.4856E-01
382.17	9.2283E-01
382.53	8.1350E-01
382.89	9.3270E-01
383.25	6.9857E-01
383.61	8.0722E-01
383.97	7.8082E-01
384.32	8.8738E-01
384.68	8.4297E-01
385.04	8.7633E-01
385.40	8.1704E-01
385.76	8.7380E-01
386.12	8.3347E-01
386.48	7.9188E-01
386.83	7.7879E-01
387.19	8.0675E-01
387.55	8.6559E-01
387.91	7.7613E-01
388.27	8.2425E-01
388.62	8.1647E-01
388.98	8.2891E-01
389.34	7.9631E-01
389.70	8.3908E-01
390.06	8.2081E-01
390.42	8.1291E-01
390.77	7.9576E-01
391.13	7.7100E-01
391.49	8.2977E-01
391.85	7.5569E-01
392.20	8.0596E-01
392.56	7.9953E-01
392.92	7.7961E-01
393.28	7.6932E-01
393.64	8.4920E-01
393.99	7.4718E-01
394.35	8.0258E-01
394.71	8.7090E-01
395.07	8.3008E-01
395.42	7.6149E-01
395.78	7.9617E-01
396.14	7.3782E-01
396.50	7.4047E-01
396.85	7.4315E-01
397.21	7.3615E-01
397.57	8.1854E-01
397.92	7.8529E-01
398.28	7.5169E-01
398.64	8.4798E-01
399.00	7.1149E-01
399.35	6.7363E-01
399.71	7.1995E-01
400.07	7.2469E-01
400.42	7.3384E-01
400.78	7.3035E-01
401.14	7.1496E-01
401.49	7.3969E-01
401.85	6.7763E-01
402.21	6.6822E-01
402.57	6.8655E-01
402.92	7.0080E-01
403.28	6.7108E-01
403.63	6.9209E-01
403.99	7.5162E-01
404.35	6.8345E-01
404.70	6.6325E-01
405.06	6.5073E-01
405.42	6.9189E-01
405.77	6.7549E-01
406.13	6.2697E-01
406.49	6.6658E-01
406.84	6.4063E-01
407.20	6.3598E-01
407.55	6.9824E-01
407.91	7.0701E-01
408.27	6.5220E-01
408.62	6.3219E-01
408.98	6.8553E-01
409.34	6.8059E-01
409.69	6.7775E-01
410.05	6.6255E-01
410.40	6.4045E-01
410.76	6.2955E-01
411.11	6.2066E-01
411.47	6.9192E-01
411.83	6.3154E-01
412.18	6.4260E-01
412.54	6.4969E-01
412.89	6.6666E-01
413.25	6.3385E-01
413.60	6.2078E-01
413.96	6.6275E-01
414.31	6.4203E-01
414.67	6.4734E-01
415.03	6.7112E-01
415.38	6.7306E-01
415.74	6.6397E-01
416.09	6.7514E-01
416.45	6.7003E-01
416.80	6.4759E-01
417.16	6.4791E-01
417.51	6.4703E-01
417.87	6.3973E-01
418.22	6.0489E-01
418.58	6.1881E-01
418.93	6.2815E-01
419.29	6.5272E-01
419.64	6.3545E-01
420.00	6.1617E-01
420.35	6.0715E-01
420.71	6.0547E-01
421.06	6.1092E-01
421.42	6.2182E-01
421.77	6.2520E-01
422.12	6.0699E-01
422.48	5.7023E-01
422.83	6.3738E-01
423.19	5.8959E-01
423.54	6.0796E-01
423.90	6.1197E-01
424.25	6.0112E-01
424.61	6.2326E-01
424.96	5.8513E-01
425.31	5.5992E-01
425.67	5.7073E-01
426.02	5.7712E-01
426.38	5.8647E-01
426.73	5.6200E-01
427.09	5.8439E-01
427.44	5.7919E-01
427.79	5.4403E-01
428.15	5.9807E-01
428.50	5.6378E-01
428.85	5.9323E-01
429.21	5.4653E-01
429.56	5.1743E-01
429.92	5.3915E-01
430.27	5.4041E-01
430.62	5.5270E-01
430.98	5.7262E-01
431.33	5.5807E-01
431.68	5.5145E-01
432.04	5.5135E-01
432.39	5.3167E-01
432.74	5.5881E-01
433.10	5.2262E-01
433.45	5.6556E-01
433.80	5.4328E-01
434.16	5.5546E-01
434.51	5.4008E-01
434.86	5.4625E-01
435.22	5.2817E-01
435.57	5.7753E-01
435.92	5.5790E-01
436.28	5.4962E-01
436.63	5.2625E-01
436.98	5.3528E-01
437.34	5.5931E-01
437.69	5.3950E-01
438.04	5.1761E-01
438.39	5.4340E-01
438.75	5.2365E-01
439.10	5.1726E-01
439.45	5.4427E-01
439.81	5.3128E-01
440.16	5.1190E-01
440.51	5.1900E-01
440.86	5.1144E-01
441.22	5.1815E-01
441.57	5.2468E-01
441.92	4.9897E-01
442.27	5.3136E-01
442.63	5.2151E-01
442.98	5.3657E-01
443.33	5.3750E-01
443.68	5.2020E-01
444.03	4.8453E-01
444.39	4.8952E-01
444.74	5.1517E-01
445.09	5.1866E-01
445.44	5.4061E-01
445.79	4.7819E-01
446.15	5.0732E-01
446.50	5.0942E-01
446.85	4.7797E-01
447.20	4.8472E-01
447.55	5.0953E-01
447.91	5.0876E-01
448.26	4.9719E-01
448.61	4.9775E-01
448.96	4.9357E-01
449.31	4.9068E-01
449.66	5.1120E-01
450.02	4.9543E-01
450.37	4.9647E-01
450.72	4.8311E-01
451.07	5.1850E-01
451.42	5.1118E-01
451.77	4.9673E-01
452.12	4.8382E-01
452.47	5.2571E-01
452.83	4.7133E-01
453.18	5.0753E-01
453.53	4.8617E-01
453.88	4.6917E-01
454.23	4.7706E-01
454.58	4.8522E-01
454.93	4.8816E-01
455.28	4.8851E-01
455.63	4.8527E-01
455.98	4.6260E-01
456.34	4.8562E-01
456.69	4.7928E-01
457.04	4.6761E-01
457.39	4.5318E-01
457.74	4.5143E-01
458.09	4.6508E-01
458.44	4.4907E-01
458.79	4.3736E-01
459.14	4.4914E-01
459.49	4.7052E-01
459.84	4.4303E-01
460.19	4.7222E-01
460.54	4.6798E-01
460.89	4.3367E-01
461.24	4.7284E-01
461.59	4.5988E-01
461.94	4.6580E-01
462.29	4.2947E-01
462.64	4.6078E-01
462.99	4.6065E-01
463.34	4.7833E-01
463.69	4.4285E-01
464.04	4.3340E-01
464.39	4.4206E-01
464.74	4.4671E-01
465.09	4.5685E-01
465.44	4.4376E-01
465.79	4.4306E-01
466.14	4.4425E-01
466.49	4.4056E-01
466.84	4.4457E-01
467.19	4.4948E-01
467.54	4.4953E-01
467.89	4.2600E-01
468.24	4.1394E-01
468.59	4.2797E-01
468.94	4.1790E-01
469.29	4.1951E-01
469.64	4.3614E-01
469.99	4.1677E-01
470.34	4.0141E-01
470.68	4.3564E-01
471.03	4.0616E-01
471.38	4.1008E-01
471.73	4.0014E-01
472.08	3.9003E-01
472.43	3.8210E-01
472.78	3.9672E-01
473.13	3.9696E-01
473.48	3.8748E-01
473.83	3.8061E-01
474.17	3.8747E-01
474.52	3.8366E-01
474.87	3.6600E-01
475.22	3.7113E-01
475.57	3.5275E-01
475.92	3.3996E-01
476.27	3.6115E-01
476.61	3.4568E-01
476.96	3.4152E-01
477.31	3.2463E-01
477.66	3.3429E-01
478.01	3.2982E-01
478.36	3.2568E-01
478.70	3.2306E-01
479.05	3.2789E-01
479.40	3.1164E-01
479.75	3.1315E-01
480.10	3.1028E-01
480.45	3.0652E-01
480.79	3.0539E-01
481.14	3.1317E-01
481.49	3.0445E-01
481.84	2.9529E-01
482.19	2.9143E-01
482.53	2.9152E-01
482.88	2.9026E-01
483.23	2.8640E-01
483.58	2.8138E-01
483.92	2.8805E-01
484.27	2.7527E-01
484.62	2.7618E-01
484.97	2.7093E-01
485.31	2.6695E-01
485.66	2.7377E-01
486.01	2.7170E-01
486.36	2.6488E-01
486.70	2.6886E-01
487.05	2.6745E-01
487.40	2.6189E-01
487.75	2.5437E-01
488.09	2.5845E-01
488.44	2.6578E-01
488.79	2.5503E-01
489.13	2.5705E-01
489.48	2.5752E-01
489.83	2.5927E-01
490.17	2.5089E-01
490.52	2.5148E-01
490.87	2.5279E-01
491.22	2.5559E-01
491.56	2.5072E-01
491.91	2.5472E-01
492.26	2.5188E-01
492.60	2.5104E-01
492.95	2.5280E-01
493.30	2.5496E-01
493.64	2.4984E-01
493.99	2.5235E-01
494.34	2.5030E-01
494.68	2.4549E-01
495.03	2.5321E-01
495.37	2.4895E-01
495.72	2.5157E-01
496.07	2.4704E-01
496.41	2.5070E-01
496.76	2.4864E-01
497.11	2.5059E-01
497.45	2.4887E-01
497.80	2.5073E-01
498.14	2.5084E-01
498.49	2.5119E-01
498.84	2.5029E-01
499.18	2.4862E-01
499.53	2.5187E-01
499.87	2.5002E-01
500.22	2.5224E-01
500.56	2.5067E-01
500.91	2.4916E-01
501.26	2.5080E-01
501.60	2.5022E-01
501.95	2.4695E-01
502.29	2.4895E-01
502.64	2.4924E-01
502.98	2.5047E-01
503.33	2.5089E-01
503.67	2.4968E-01
504.02	2.4860E-01
504.36	2.4653E-01
504.71	2.4847E-01
505.06	2.4836E-01
505.40	2.4784E-01
505.75	2.4569E-01
506.09	2.4646E-01
506.44	2.4525E-01
506.78	2.4674E-01
507.13	2.4669E-01
507.47	2.4420E-01
507.82	2.4341E-01
508.16	2.4367E-01
508.51	2.4313E-01
508.85	2.4255E-01
509.19	2.4190E-01
509.54	2.4508E-01
509.88	2.4372E-01
510.23	2.4112E-01
510.57	2.4020E-01
510.92	2.4384E-01
511.26	2.4166E-01
511.61	2.4119E-01
511.95	2.4194E-01
512.30	2.3965E-01
512.64	2.4055E-01
512.98	2.4007E-01
513.33	2.3953E-01
513.67	2.3988E-01
514.02	2.3856E-01
514.36	2.3788E-01
514.70	2.3861E-01
515.05	2.3740E-01
515.39	2.3848E-01
515.74	2.3559E-01
516.08	2.3804E-01
516.42	2.3600E-01
516.77	2.3644E-01
517.11	2.3509E-01
517.46	2.3721E-01
517.80	2.3461E-01
518.14	2.3569E-01
518.49	2.3571E-01
518.83	2.3314E-01
519.17	2.3689E-01
519.52	2.3451E-01
519.86	2.3418E-01
520.20	2.3160E-01
520.55	2.3377E-01
520.89	2.3442E-01
521.23	2.3421E-01
521.58	2.3360E-01
521.92	2.3751E-01
522.26	2.3600E-01
522.61	2.3272E-01
522.95	2.3418E-01
523.29	2.3396E-01
523.64	2.3323E-01
523.98	2.3341E-01
524.32	2.3551E-01
524.66	2.3478E-01
525.01	2.3640E-01
525.35	2.3675E-01
525.69	2.3697E-01
526.04	2.3777E-01
526.38	2.3415E-01
526.72	2.3714E-01
527.06	2.3696E-01
527.41	2.4068E-01
527.75	2.4085E-01
528.09	2.3778E-01
528.43	2.3947E-01
528.78	2.3730E-01
529.12	2.4373E-01
529.46	2.4136E-01
529.80	2.4151E-01
530.15	2.4226E-01
530.49	2.4353E-01
530.83	2.4448E-01
531.17	2.4471E-01
531.51	2.4516E-01
531.86	2.4634E-01
532.20	2.4845E-01
532.54	2.4864E-01
532.88	2.4859E-01
533.22	2.4983E-01
533.57	2.5044E-01
533.91	2.5254E-01
534.25	2.5282E-01
534.59	2.5117E-01
534.93	2.5251E-01
535.27	2.5370E-01
535.62	2.5633E-01
535.96	2.5802E-01
536.30	2.5793E-01
536.64	2.5882E-01
536.98	2.5945E-01
537.32	2.5994E-01
537.66	2.5902E-01
538.01	2.6269E-01
538.35	2.6406E-01
538.69	2.6202E-01
539.03	2.6779E-01
539.37	2.6466E-01
539.71	2.6651E-01
540.05	2.6652E-01
540.39	2.6668E-01
540.73	2.6950E-01
541.07	2.6755E-01
541.42	2.6792E-01
541.76	2.6787E-01
542.10	2.6835E-01
542.44	2.7024E-01
542.78	2.7043E-01
543.12	2.7049E-01
543.46	2.7624E-01
543.80	2.7305E-01
544.14	2.7449E-01
544.48	2.7132E-01
544.82	2.7466E-01
545.16	2.7413E-01
545.50	2.7347E-01
545.84	2.7803E-01
546.18	2.7469E-01
546.52	2.7790E-01
546.86	2.7419E-01
547.20	2.7698E-01
547.54	2.8204E-01
547.88	2.7758E-01
548.22	2.7876E-01
548.56	2.7907E-01
548.90	2.7700E-01
549.24	2.8086E-01
549.58	2.8032E-01
549.92	2.8025E-01
550.26	2.8378E-01
550.60	2.8177E-01
550.94	2.7763E-01
551.28	2.8476E-01
551.62	2.8177E-01
551.96	2.8447E-01
552.30	2.8254E-01
552.64	2.8471E-01
552.98	2.8284E-01
553.32	2.8300E-01
553.66	2.8078E-01
554.00	2.8190E-01
554.34	2.8482E-01
554.68	2.8587E-01
555.02	2.8443E-01
555.36	2.8443E-01
555.69	2.8707E-01
556.03	2.8621E-01
556.37	2.8577E-01
556.71	2.8441E-01
557.05	2.8349E-01
557.39	2.8525E-01
557.73	2.8429E-01
558.07	2.8648E-01
558.41	2.8485E-01
558.75	2.8560E-01
559.08	2.8657E-01
559.42	2.8249E-01
559.76	2.8634E-01
560.10	2.8555E-01
560.44	2.8605E-01
560.78	2.8370E-01
561.12	2.8544E-01
561.45	2.8640E-01
561.79	2.8660E-01
562.13	2.8554E-01
562.47	2.8561E-01
562.81	2.8955E-01
563.15	2.8896E-01
563.48	2.8699E-01
563.82	2.8501E-01
564.16	2.8776E-01
564.50	2.8848E-01
564.84	2.8847E-01
565.17	2.8797E-01
565.51	2.8471E-01
565.85	2.8816E-01
566.19	2.8721E-01
566.52	2.8872E-01
566.86	2.8769E-01
567.20	2.8880E-01
567.54	2.9111E-01
567.88	2.8834E-01
568.21	2.9006E-01
568.55	2.8951E-01
568.89	2.8979E-01
569.23	2.9155E-01
569.56	2.8884E-01
569.90	2.8946E-01
570.24	2.9231E-01
570.57	2.9088E-01
570.91	2.9348E-01
571.25	2.9140E-01
571.59	2.9206E-01
571.92	2.9221E-01
572.26	2.9391E-01
572.60	2.9606E-01
572.93	2.9405E-01
573.27	2.9822E-01
573.61	2.9784E-01
573.95	2.9396E-01
574.28	2.9803E-01
574.62	2.9768E-01
574.96	2.9857E-01
575.29	2.9714E-01
575.63	3.0127E-01
575.97	3.0051E-01
576.30	3.0803E-01
576.64	3.0270E-01
576.98	3.0372E-01
577.31	3.0568E-01
577.65	3.0636E-01
577.98	3.0618E-01
578.32	3.0977E-01
578.66	3.0843E-01
578.99	3.1280E-01
579.33	3.1225E-01
579.67	3.1243E-01
580.00	3.1289E-01
580.34	3.1641E-01
580.67	3.1528E-01
581.01	3.1602E-01
581.35	3.1880E-01
581.68	3.1992E-01
582.02	3.1904E-01
582.35	3.1976E-01
582.69	3.2174E-01
583.02	3.2717E-01
583.36	3.2473E-01
583.70	3.2363E-01
584.03	3.2611E-01
584.37	3.2677E-01
584.70	3.3090E-01
585.04	3.3141E-01
585.37	3.2905E-01
585.71	3.3327E-01
586.04	3.3220E-01
586.38	3.3018E-01
586.72	3.3511E-01
587.05	3.3455E-01
587.39	3.3631E-01
587.72	3.3560E-01
588.06	3.3817E-01
588.39	3.3706E-01
588.73	3.4299E-01
589.06	3.4170E-01
589.40	3.4306E-01
589.73	3.4465E-01
590.07	3.4746E-01
590.40	3.4872E-01
590.73	3.5252E-01
591.07	3.4921E-01
591.40	3.5072E-01
591.74	3.4750E-01
592.07	3.5268E-01
592.41	3.5302E-01
592.74	3.5200E-01
593.08	3.5328E-01
593.41	3.5511E-01
593.75	3.5191E-01
594.08	3.5943E-01
594.41	3.5491E-01
594.75	3.5867E-01
595.08	3.5821E-01
595.42	3.5426E-01
595.75	3.5724E-01
596.09	3.5747E-01
596.42	3.5831E-01
596.75	3.6089E-01
597.09	3.6432E-01
597.42	3.5901E-01
597.75	3.6254E-01
598.09	3.6276E-01
598.42	3.6076E-01
598.76	3.6429E-01
599.09	3.6423E-01
599.42	3.6703E-01
599.76	3.6681E-01
600.09	3.6675E-01
600.42	3.6914E-01
600.76	3.6517E-01
601.09	3.6753E-01
601.42	3.7452E-01
601.76	3.6813E-01
602.09	3.6887E-01
602.42	3.7021E-01
602.76	3.7066E-01
603.09	3.6737E-01
603.42	3.7057E-01
603.76	3.6949E-01
604.09	3.7047E-01
604.42	3.7128E-01
604.76	3.7114E-01
605.09	3.7470E-01
605.42	3.7204E-01
605.75	3.7423E-01
606.09	3.7355E-01
606.42	3.7229E-01
606.75	3.7515E-01
607.09	3.7422E-01
607.42	3.7430E-01
607.75	3.7622E-01
608.08	3.7629E-01
608.42	3.7693E-01
608.75	3.7529E-01
609.08	3.7948E-01
609.41	3.7835E-01
609.75	3.7770E-01
610.08	3.7739E-01
610.41	3.7875E-01
610.74	3.7810E-01
611.07	3.8043E-01
611.41	3.7623E-01
611.74	3.8049E-01
612.07	3.8463E-01
612.40	3.7832E-01
612.73	3.7875E-01
613.07	3.8387E-01
613.40	3.7963E-01
613.73	3.7942E-01
614.06	3.8205E-01
614.39	3.8280E-01
614.72	3.8548E-01
615.06	3.8306E-01
615.39	3.8832E-01
615.72	3.8289E-01
616.05	3.8805E-01
616.38	3.8447E-01
616.71	3.8709E-01
617.05	3.8309E-01
617.38	3.8846E-01
617.71	3.8176E-01
618.04	3.8919E-01
618.37	3.8432E-01
618.70	3.8328E-01
619.03	3.8848E-01
619.36	3.8024E-01
619.69	3.8869E-01
620.03	3.8274E-01
620.36	3.8714E-01
620.69	3.8566E-01
621.02	3.8670E-01
621.35	3.8363E-01
621.68	3.8276E-01
622.01	3.8195E-01
622.34	3.8486E-01
622.67	3.8448E-01
623.00	3.8424E-01
623.33	3.8305E-01
623.66	3.8441E-01
623.99	3.8453E-01
624.32	3.8060E-01
624.65	3.8322E-01
624.99	3.8315E-01
625.32	3.8599E-01
625.65	3.8139E-01
625.98	3.8004E-01
626.31	3.8370E-01
626.64	3.8549E-01
626.97	3.8375E-01
627.30	3.8059E-01
627.63	3.8230E-01
627.96	3.8355E-01
628.29	3.7903E-01
628.62	3.8466E-01
628.95	3.8336E-01
629.28	3.7703E-01
629.61	3.8793E-01
629.94	3.8244E-01
630.26	3.8478E-01
630.59	3.8771E-01
630.92	3.8470E-01
631.25	3.8726E-01
631.58	3.9016E-01
631.91	3.8498E-01
632.24	3.9264E-01
632.57	3.8866E-01
632.90	3.9095E-01
633.23	3.9146E-01
633.56	3.9271E-01
633.89	3.9259E-01
634.22	3.9213E-01
634.55	3.9509E-01
634.88	4.0021E-01
635.20	3.9608E-01
635.53	4.0078E-01
635.86	4.0027E-01
636.19	4.0509E-01
636.52	4.0625E-01
636.85	4.0767E-01
637.18	4.1129E-01
637.51	4.1067E-01
637.83	4.1113E-01
638.16	4.0851E-01
638.49	4.1668E-01
638.82	4.1366E-01
639.15	4.1917E-01
639.48	4.2166E-01
639.81	4.2553E-01
640.13	4.2069E-01
640.46	4.2829E-01
640.79	4.2499E-01
641.12	4.3272E-01
641.45	4.2859E-01
641.77	4.2935E-01
642.10	4.3656E-01
642.43	4.3881E-01
642.76	4.4080E-01
643.09	4.3731E-01
643.41	4.4208E-01
643.74	4.4401E-01
644.07	4.4303E-01
644.40	4.4560E-01
644.73	4.4976E-01
645.05	4.5371E-01
645.38	4.5313E-01
645.71	4.6017E-01
646.04	4.5816E-01
646.36	4.5736E-01
646.69	4.6582E-01
647.02	4.6482E-01
647.35	4.6342E-01
647.67	4.6731E-01
648.00	4.6579E-01
648.33	4.7384E-01
648.66	4.6953E-01
648.98	4.7405E-01
649.31	4.7322E-01
649.64	4.7470E-01
649.96	4.7837E-01
650.29	4.8461E-01
650.62	4.8328E-01
650.94	4.8511E-01
651.27	4.8431E-01
651.60	4.8736E-01
651.92	4.9114E-01
652.25	4.9411E-01
652.58	4.9216E-01
652.90	4.9514E-01
653.23	4.9521E-01
653.56	4.9929E-01
653.88	5.0214E-01
654.21	4.9975E-01
654.54	5.0388E-01
654.86	5.0805E-01
655.19	5.0067E-01
655.52	5.0977E-01
655.84	5.0642E-01
656.17	5.1203E-01
656.49	5.1366E-01
656.82	5.1151E-01
657.15	5.1520E-01
657.47	5.1375E-01
657.80	5.1826E-01
658.13	5.1726E-01
658.45	5.2076E-01
658.78	5.2399E-01
659.10	5.2392E-01
659.43	5.2933E-01
659.75	5.2401E-01
660.08	5.2530E-01
660.41	5.3085E-01
660.73	5.3006E-01
661.06	5.3303E-01
661.38	5.3240E-01
661.71	5.3621E-01
662.03	5.3330E-01
662.36	5.3866E-01
662.68	5.4032E-01
663.01	5.3362E-01
663.33	5.4215E-01
663.66	5.4462E-01
663.98	5.4706E-01
664.31	5.4100E-01
664.63	5.5206E-01
664.96	5.4274E-01
665.28	5.4786E-01
665.61	5.4750E-01
665.93	5.5293E-01
666.26	5.5254E-01
666.58	5.5469E-01
666.91	5.5312E-01
667.23	5.5772E-01
667.56	5.5644E-01
667.88	5.5578E-01
668.21	5.6092E-01
668.53	5.5961E-01
668.86	5.6178E-01
669.18	5.5947E-01
669.50	5.6970E-01
669.83	5.6995E-01
670.15	5.7195E-01
670.48	5.7249E-01
670.80	5.6778E-01
671.13	5.6775E-01
671.45	5.7320E-01
671.77	5.7195E-01
672.10	5.7043E-01
672.42	5.8005E-01
672.75	5.7337E-01
673.07	5.8175E-01
673.39	5.8084E-01
673.72	5.8168E-01
674.04	5.8591E-01
674.37	5.8450E-01
674.69	5.8353E-01
675.01	5.8842E-01
675.34	5.8963E-01
675.66	5.9124E-01
675.98	5.8366E-01
676.31	5.9408E-01
676.63	5.9410E-01
676.95	5.9311E-01
677.28	5.9850E-01
677.60	5.9680E-01
677.92	6.0043E-01
678.25	6.0499E-01
678.57	6.0458E-01
678.89	6.0466E-01
679.22	6.0581E-01
679.54	6.0538E-01
679.86	6.0976E-01
680.18	6.0901E-01
680.51	6.0780E-01
680.83	6.2369E-01
681.15	6.1669E-01
681.48	6.1834E-01
681.80	6.1869E-01
682.12	6.1624E-01
682.44	6.2505E-01
682.77	6.2414E-01
683.09	6.2892E-01
683.41	6.2857E-01
683.73	6.3458E-01
684.06	6.3506E-01
684.38	6.3263E-01
684.70	6.3559E-01
685.02	6.3491E-01
685.34	6.4198E-01
685.67	6.3775E-01
685.99	6.5054E-01
686.31	6.4524E-01
686.63	6.5200E-01
686.96	6.5427E-01
687.28	6.5714E-01
687.60	6.5509E-01
687.92	6.5594E-01
688.24	6.6765E-01
688.56	6.6640E-01
688.89	6.6432E-01
689.21	6.6857E-01
689.53	6.6864E-01
689.85	6.8039E-01
690.17	6.7450E-01
690.49	6.8390E-01
690.82	6.8369E-01
691.14	6.8739E-01
691.46	6.8602E-01
691.78	6.9329E-01
692.10	6.8887E-01
692.42	6.9434E-01
692.74	6.9863E-01
693.06	7.0252E-01
693.39	7.0753E-01
693.71	7.1668E-01
694.03	7.1049E-01
694.35	7.1062E-01
694.67	7.2224E-01
694.99	7.2178E-01
695.31	7.2842E-01
695.63	7.2832E-01
695.95	7.2938E-01
696.27	7.3095E-01
696.59	7.3372E-01
696.91	7.4191E-01
697.23	7.4643E-01
697.56	7.4729E-01
697.88	7.5129E-01
698.20	7.4994E-01
698.52	7.5383E-01
698.84	7.6435E-01
699.16	7.6971E-01
699.48	7.6795E-01
699.80	7.6928E-01
700.12	7.8289E-01
700.44	7.8012E-01
700.76	7.8314E-01
701.08	7.8780E-01
701.40	7.9169E-01
701.72	7.9307E-01
702.04	7.9910E-01
702.36	7.9902E-01
702.68	8.0478E-01
703.00	8.1572E-01
703.32	8.1027E-01
703.64	8.1909E-01
703.96	8.0865E-01
704.28	8.2185E-01
704.60	8.3328E-01
704.91	8.2979E-01
705.23	8.3827E-01
705.55	8.4399E-01
705.87	8.4912E-01
706.19	8.4775E-01
706.51	8.4629E-01
706.83	8.4517E-01
707.15	8.7551E-01
707.47	8.6530E-01
707.79	8.6979E-01
708.11	8.7446E-01
708.43	8.7660E-01
708.74	8.8451E-01
709.06	8.9345E-01
709.38	8.9322E-01
709.70	8.9466E-01
710.02	9.0031E-01
710.34	8.9362E-01
710.66	9.0913E-01
710.98	9.1426E-01
711.29	9.1888E-01
711.61	9.3542E-01
711.93	9.3039E-01
712.25	9.3083E-01
712.57	9.4201E-01
712.89	9.4771E-01
713.20	9.5069E-01
713.52	9.5879E-01
713.84	9.6073E-01
714.16	9.5440E-01
714.48	9.6398E-01
714.80	9.7749E-01
715.11	9.7390E-01
715.43	9.8739E-01
715.75	9.8516E-01
716.07	1.0003E00
716.39	9.8415E-01
716.70	9.9713E-01
717.02	9.9371E-01
717.34	1.0210E00
717.66	1.0121E00
717.97	1.0256E00
718.29	1.0360E00
718.61	1.0374E00
718.93	1.0394E00
719.24	1.0439E00
719.56	1.0636E00
719.88	1.0523E00
720.20	1.0729E00
720.51	1.0885E00
720.83	1.0761E00
721.15	1.0946E00
721.46	1.1001E00
721.78	1.1082E00
722.10	1.1216E00
722.42	1.1256E00
722.73	1.1256E00
723.05	1.1260E00
723.37	1.1404E00
723.68	1.1533E00
724.00	1.1528E00
724.32	1.1738E00
724.63	1.1620E00
724.95	1.1766E00
725.27	1.1782E00
725.58	1.1758E00
725.90	1.1717E00
726.22	1.1984E00
726.53	1.1864E00
726.85	1.1973E00
727.16	1.2040E00
727.48	1.1986E00
727.80	1.2114E00
728.11	1.2148E00
728.43	1.2202E00
728.74	1.2179E00
729.06	1.2233E00
729.38	1.2279E00
729.69	1.2260E00
730.01	1.2437E00
730.32	1.2415E00
730.64	1.2439E00
730.96	1.2325E00
731.27	1.2636E00
731.59	1.2483E00
731.90	1.2568E00
732.22	1.2658E00
732.53	1.2746E00
732.85	1.2725E00
733.16	1.2713E00
733.48	1.2664E00
733.80	1.2750E00
734.11	1.2861E00
734.43	1.3018E00
734.74	1.3044E00
735.06	1.3089E00
735.37	1.3179E00
735.69	1.3214E00
736.00	1.3110E00
736.32	1.3268E00
736.63	1.3207E00
736.95	1.3379E00
737.26	1.3478E00
737.58	1.3423E00
737.89	1.3701E00
738.21	1.3557E00
738.52	1.3549E00
738.83	1.3734E00
739.15	1.3601E00
739.46	1.3778E00
739.78	1.3778E00
740.09	1.3892E00
740.41	1.3769E00
740.72	1.3834E00
741.04	1.3805E00
741.35	1.3831E00
741.66	1.4079E00
741.98	1.3974E00
742.29	1.3932E00
742.61	1.4036E00
742.92	1.4084E00
743.23	1.4081E00
743.55	1.4095E00
743.86	1.4099E00
744.18	1.4162E00
744.49	1.4158E00
744.80	1.4077E00
745.12	1.4060E00
745.43	1.4150E00
745.74	1.4133E00
746.06	1.4136E00
746.37	1.4000E00
746.68	1.4158E00
747.00	1.4004E00
747.31	1.4169E00
747.62	1.4013E00
747.94	1.4335E00
748.25	1.4165E00
748.56	1.4141E00
748.88	1.4041E00
749.19	1.4221E00
749.50	1.4089E00
749.82	1.4148E00
750.13	1.4247E00
750.44	1.4130E00
750.75	1.4131E00
751.07	1.4197E00
751.38	1.4068E00
751.69	1.4075E00
752.01	1.4233E00
752.32	1.4315E00
752.63	1.4244E00
752.94	1.4191E00
753.26	1.4265E00
753.57	1.4349E00
753.88	1.4478E00
754.19	1.4287E00
754.51	1.4341E00
754.82	1.4494E00
755.13	1.4497E00
755.44	1.4601E00
755.75	1.4478E00
756.07	1.4564E00
756.38	1.4644E00
756.69	1.4675E00
757.00	1.4688E00
757.31	1.4966E00
757.63	1.4899E00
757.94	1.4995E00
758.25	1.5090E00
758.56	1.4925E00
758.87	1.5111E00
759.18	1.5159E00
759.50	1.5213E00
759.81	1.5242E00
760.12	1.5439E00
760.43	1.5545E00
760.74	1.5647E00
761.05	1.5632E00
761.36	1.5753E00
761.67	1.5807E00
761.99	1.5852E00
762.30	1.5857E00
762.61	1.6067E00
762.92	1.6222E00
763.23	1.6207E00
763.54	1.6444E00
763.85	1.6426E00
764.16	1.6671E00
764.47	1.6826E00
764.78	1.6997E00
765.10	1.7000E00
765.41	1.7048E00
765.72	1.7187E00
766.03	1.7572E00
766.34	1.7669E00
766.65	1.7527E00
766.96	1.8014E00
767.27	1.7914E00
767.58	1.7865E00
767.89	1.8156E00
768.20	1.8332E00
768.51	1.8319E00
768.82	1.8456E00
769.13	1.8602E00
769.44	1.8999E00
769.75	1.9106E00
770.06	1.9298E00
770.37	1.9080E00
770.68	1.9516E00
770.99	1.9723E00
771.30	1.9966E00
771.61	2.0349E00
771.92	2.0267E00
772.23	2.0242E00
772.54	2.0647E00
772.85	2.0556E00
773.16	2.0719E00
773.47	2.1136E00
773.78	2.0933E00
774.09	2.1437E00
774.39	2.1444E00
774.70	2.1772E00
775.01	2.1927E00
775.32	2.2164E00
775.63	2.2299E00
775.94	2.2543E00
776.25	2.2372E00
776.56	2.2766E00
776.87	2.3469E00
777.18	2.3132E00
777.48	2.3556E00
777.79	2.3759E00
778.10	2.3960E00
778.41	2.4086E00
778.72	2.4495E00
779.03	2.4498E00
779.34	2.4814E00
779.65	2.4852E00
779.95	2.5133E00
780.26	2.5295E00
780.57	2.5419E00
780.88	2.5726E00
781.19	2.5885E00
781.50	2.6058E00
781.80	2.6387E00
782.11	2.6717E00
782.42	2.6835E00
782.73	2.6528E00
783.04	2.7512E00
783.34	2.7399E00
783.65	2.7927E00
783.96	2.8017E00
784.27	2.8088E00
784.57	2.7967E00
784.88	2.8493E00
785.19	2.8665E00
785.50	2.8948E00
785.81	2.9404E00
786.11	2.9198E00
786.42	2.9579E00
786.73	3.0211E00
787.04	3.0389E00
787.34	3.0529E00
787.65	3.0225E00
787.96	3.1289E00
788.26	3.1049E00
788.57	3.1841E00
788.88	3.1166E00
789.19	3.2375E00
789.49	3.2210E00
789.80	3.2945E00
790.11	3.2986E00
790.41	3.2729E00
790.72	3.3659E00
791.03	3.4007E00
791.33	3.3854E00
791.64	3.4559E00
791.95	3.4462E00
792.25	3.5055E00
792.56	3.5110E00
792.87	3.4988E00
793.17	3.5268E00
793.48	3.5514E00
793.79	3.6391E00
794.09	3.6560E00
794.40	3.6336E00
794.70	3.6182E00
795.01	3.7315E00
795.32	3.7254E00
795.62	3.7653E00
795.93	3.7806E00
796.23	3.8122E00
796.54	3.8393E00
796.85	3.8820E00
797.15	3.9195E00
797.46	3.8749E00
797.76	3.9679E00
798.07	4.0093E00
798.37	4.0341E00
798.68	4.0680E00
798.99	4.0972E00
799.29	4.1000E00
799.60	4.1846E00
799.90	4.1830E00
800.21	4.2803E00
800.51	4.2669E00
800.82	4.2711E00
801.12	4.3345E00
801.43	4.3649E00
801.73	4.3558E00
802.04	4.4540E00
802.34	4.4448E00
802.65	4.4981E00
802.95	4.5656E00
803.26	4.5494E00
803.56	4.5241E00
803.87	4.6197E00
804.17	4.6935E00
804.48	4.6529E00
804.78	4.7074E00
805.09	4.7970E00
805.39	4.7137E00
805.70	4.7698E00
806.00	4.8499E00
806.30	4.8606E00
806.61	4.8818E00
806.91	4.8898E00
807.22	5.0012E00
807.52	5.0001E00
807.83	5.0150E00
808.13	5.0972E00
808.43	5.0256E00
808.74	5.0777E00
809.04	5.1366E00
809.35	5.1994E00
809.65	5.2735E00
809.95	5.2831E00
810.26	5.3988E00
810.56	5.3237E00
810.86	5.5300E00
811.17	5.4437E00
811.47	5.5922E00
811.77	5.5199E00
812.08	5.5011E00
812.38	5.6287E00
812.69	5.6106E00
812.99	5.6286E00
813.29	5.7002E00
813.59	5.7696E00
813.90	5.9027E00
814.20	5.8329E00
814.50	5.9988E00
814.81	5.8239E00
815.11	6.0638E00
815.41	6.0735E00
815.72	6.0955E00
816.02	6.1506E00
816.32	6.2665E00
816.62	6.0443E00
816.93	6.2299E00
817.23	6.3849E00
817.53	6.1898E00
817.84	6.3885E00
818.14	6.4562E00
818.44	6.3806E00
818.74	6.4225E00
819.04	6.7433E00
819.35	6.6436E00
819.65	6.5146E00
819.95	6.7127E00
820.25	6.8203E00
820.56	6.6899E00
820.86	6.8234E00
821.16	6.8225E00
821.46	7.0339E00
821.76	6.7711E00
822.07	6.9538E00
822.37	7.1191E00
822.67	7.2288E00
822.97	7.3802E00
823.27	7.2223E00
823.57	7.1785E00
823.88	7.3838E00
824.18	7.2456E00
824.48	7.4623E00
824.78	7.6886E00
825.08	7.5005E00
825.38	7.6420E00
825.69	7.6550E00
825.99	7.6917E00
826.29	7.5396E00
826.59	7.7763E00
826.89	7.9542E00
827.19	7.7517E00
827.49	8.0413E00
827.79	7.9617E00
828.09	8.1704E00
828.39	8.1840E00
828.70	8.1622E00
829.00	8.0234E00
829.30	8.1830E00
829.60	8.3529E00
829.90	8.2575E00
830.20	8.3556E00
830.50	8.6260E00
830.80	8.5887E00
831.10	8.5166E00
831.40	8.6987E00
831.70	8.7855E00
832.00	8.8465E00
832.30	8.9101E00
832.60	8.7846E00
832.90	8.9935E00
833.20	8.9051E00
833.50	9.0727E00
833.80	9.1391E00
834.10	9.2649E00
834.40	9.1992E00
834.70	9.3063E00
835.00	9.4398E00
835.30	9.3978E00
835.60	9.5186E00
835.90	9.6198E00
836.20	9.7594E00
836.50	9.8078E00
836.80	9.6384E00
837.10	9.8010E00
837.40	9.8196E00
837.70	9.9143E00
838.00	9.9974E00
838.30	1.0253E01
838.60	1.0123E01
838.90	1.0360E01
839.19	1.0472E01
839.49	1.0666E01
839.79	1.0179E01
840.09	1.0662E01
840.39	1.0470E01
840.69	1.0626E01
840.99	1.0937E01
841.29	1.0835E01
841.59	1.0955E01
841.88	1.1133E01
842.18	1.1029E01
842.48	1.1217E01
842.78	1.1291E01
843.08	1.1439E01
843.38	1.1403E01
843.68	1.1886E01
843.97	1.1742E01
844.27	1.1798E01
844.57	1.1667E01
844.87	1.1751E01
845.17	1.2180E01
845.47	1.1796E01
845.76	1.2270E01
846.06	1.2206E01
846.36	1.2268E01
846.66	1.2259E01
846.96	1.2254E01
847.25	1.2797E01
847.55	1.2450E01
847.85	1.2716E01
848.15	1.2842E01
848.44	1.2809E01
848.74	1.2924E01
849.04	1.3384E01
849.34	1.3167E01
849.63	1.3299E01
849.93	1.3483E01
850.23	1.3551E01
850.53	1.3718E01
850.82	1.3756E01
851.12	1.4198E01
851.42	1.3852E01
851.71	1.4002E01
852.01	1.4192E01
852.31	1.4127E01
852.61	1.4701E01
852.90	1.4321E01
853.20	1.4954E01
853.50	1.4746E01
853.79	1.4834E01
854.09	1.4857E01
854.39	1.5247E01
854.68	1.5451E01
854.98	1.5789E01
855.28	1.5602E01
855.57	1.5605E01
855.87	1.5811E01
856.17	1.5532E01
856.46	1.6066E01
856.76	1.5928E01
857.05	1.6389E01
857.35	1.6709E01
857.65	1.6684E01
857.94	1.6582E01
858.24	1.6483E01
858.53	1.6876E01
858.83	1.7708E01
859.13	1.7354E01
859.42	1.7306E01
859.72	1.7408E01
860.01	1.7874E01
860.31	1.7615E01
860.60	1.8277E01
860.90	1.8284E01
861.20	1.7967E01
861.49	1.8268E01
861.79	1.8543E01
862.08	1.8693E01
862.38	1.8718E01
862.67	1.9077E01
862.97	1.9126E01
863.26	1.9839E01
863.56	1.9741E01
863.85	2.0263E01
864.15	2.0731E01
864.44	2.0399E01
864.74	2.0176E01
865.03	2.0987E01
865.33	2.1150E01
865.62	2.1169E01
865.92	2.0939E01
866.21	2.1295E01
866.51	2.1592E01
866.80	2.2184E01
867.10	2.1611E01
867.39	2.2548E01
867.69	2.2516E01
867.98	2.2896E01
868.27	2.3192E01
868.57	2.3750E01
868.86	2.3331E01
869.16	2.3067E01
869.45	2.4209E01
869.75	2.3719E01
870.04	2.4214E01
870.33	2.4654E01
870.63	2.4977E01
870.92	2.5194E01
871.22	2.5871E01
871.51	2.6021E01
871.80	2.5633E01
872.10	2.5633E01
>>>>>End Processed Spectral Data<<<<<
