SpectraSuite Data File
++++++++++++++++++++++++++++++++++++
Date: Thu May 14 11:30:49 PDT 2015
User: schluterlab
Dark Spectrum Present: Yes
Reference Spectrum Present: No
Number of Sampled Component Spectra: 1
Spectrometers: USB2E3373
Integration Time (usec): 2300000 (USB2E3373)
Spectra Averaged: 3 (USB2E3373)
Boxcar Smoothing: 0 (USB2E3373)
Correct for Electrical Dark: No (USB2E3373)
Strobe/Lamp Enabled: No (USB2E3373)
Correct for Detector Non-linearity: No (USB2E3373)
Correct for Stray Light: No (USB2E3373)
Number of Pixels in Processed Spectrum: 2048
>>>>>Begin Processed Spectral Data<<<<<
178.53	0.0000E00
178.91	0.0000E00
179.29	0.0000E00
179.67	0.0000E00
180.04	0.0000E00
180.42	0.0000E00
180.80	0.0000E00
181.18	0.0000E00
181.56	0.0000E00
181.94	0.0000E00
182.31	0.0000E00
182.69	0.0000E00
183.07	0.0000E00
183.45	0.0000E00
183.83	0.0000E00
184.20	0.0000E00
184.58	0.0000E00
184.96	0.0000E00
185.34	0.0000E00
185.72	0.0000E00
186.09	0.0000E00
186.47	0.0000E00
186.85	0.0000E00
187.23	0.0000E00
187.61	0.0000E00
187.98	0.0000E00
188.36	0.0000E00
188.74	0.0000E00
189.12	0.0000E00
189.49	0.0000E00
189.87	0.0000E00
190.25	0.0000E00
190.63	0.0000E00
191.00	0.0000E00
191.38	0.0000E00
191.76	0.0000E00
192.14	0.0000E00
192.51	0.0000E00
192.89	0.0000E00
193.27	0.0000E00
193.65	0.0000E00
194.02	0.0000E00
194.40	0.0000E00
194.78	0.0000E00
195.15	0.0000E00
195.53	0.0000E00
195.91	0.0000E00
196.29	0.0000E00
196.66	0.0000E00
197.04	0.0000E00
197.42	0.0000E00
197.79	0.0000E00
198.17	0.0000E00
198.55	0.0000E00
198.92	0.0000E00
199.30	0.0000E00
199.68	0.0000E00
200.05	0.0000E00
200.43	0.0000E00
200.81	0.0000E00
201.18	0.0000E00
201.56	0.0000E00
201.94	0.0000E00
202.31	0.0000E00
202.69	0.0000E00
203.07	0.0000E00
203.44	0.0000E00
203.82	0.0000E00
204.19	0.0000E00
204.57	0.0000E00
204.95	0.0000E00
205.32	0.0000E00
205.70	0.0000E00
206.08	-0.0000E00
206.45	0.0000E00
206.83	0.0000E00
207.20	0.0000E00
207.58	0.0000E00
207.96	0.0000E00
208.33	0.0000E00
208.71	0.0000E00
209.08	0.0000E00
209.46	0.0000E00
209.84	-0.0000E00
210.21	0.0000E00
210.59	0.0000E00
210.96	0.0000E00
211.34	0.0000E00
211.71	0.0000E00
212.09	0.0000E00
212.46	0.0000E00
212.84	0.0000E00
213.22	0.0000E00
213.59	0.0000E00
213.97	0.0000E00
214.34	0.0000E00
214.72	0.0000E00
215.09	0.0000E00
215.47	0.0000E00
215.84	0.0000E00
216.22	0.0000E00
216.59	0.0000E00
216.97	0.0000E00
217.34	0.0000E00
217.72	0.0000E00
218.09	0.0000E00
218.47	0.0000E00
218.84	0.0000E00
219.22	0.0000E00
219.59	0.0000E00
219.97	0.0000E00
220.34	0.0000E00
220.72	0.0000E00
221.09	0.0000E00
221.47	0.0000E00
221.84	0.0000E00
222.22	0.0000E00
222.59	0.0000E00
222.97	0.0000E00
223.34	0.0000E00
223.72	0.0000E00
224.09	0.0000E00
224.46	0.0000E00
224.84	0.0000E00
225.21	0.0000E00
225.59	0.0000E00
225.96	0.0000E00
226.34	0.0000E00
226.71	0.0000E00
227.08	0.0000E00
227.46	0.0000E00
227.83	0.0000E00
228.21	0.0000E00
228.58	0.0000E00
228.95	0.0000E00
229.33	0.0000E00
229.70	0.0000E00
230.08	0.0000E00
230.45	0.0000E00
230.82	0.0000E00
231.20	0.0000E00
231.57	0.0000E00
231.95	0.0000E00
232.32	0.0000E00
232.69	0.0000E00
233.07	0.0000E00
233.44	0.0000E00
233.81	0.0000E00
234.19	0.0000E00
234.56	0.0000E00
234.93	0.0000E00
235.31	0.0000E00
235.68	0.0000E00
236.05	0.0000E00
236.43	0.0000E00
236.80	0.0000E00
237.17	0.0000E00
237.55	0.0000E00
237.92	0.0000E00
238.29	0.0000E00
238.67	0.0000E00
239.04	0.0000E00
239.41	0.0000E00
239.79	0.0000E00
240.16	0.0000E00
240.53	0.0000E00
240.91	0.0000E00
241.28	0.0000E00
241.65	0.0000E00
242.02	0.0000E00
242.40	0.0000E00
242.77	0.0000E00
243.14	0.0000E00
243.51	0.0000E00
243.89	0.0000E00
244.26	0.0000E00
244.63	0.0000E00
245.00	0.0000E00
245.38	0.0000E00
245.75	0.0000E00
246.12	0.0000E00
246.49	0.0000E00
246.87	0.0000E00
247.24	0.0000E00
247.61	0.0000E00
247.98	0.0000E00
248.36	0.0000E00
248.73	0.0000E00
249.10	0.0000E00
249.47	0.0000E00
249.84	0.0000E00
250.22	0.0000E00
250.59	0.0000E00
250.96	0.0000E00
251.33	0.0000E00
251.70	0.0000E00
252.08	0.0000E00
252.45	0.0000E00
252.82	0.0000E00
253.19	0.0000E00
253.56	0.0000E00
253.94	0.0000E00
254.31	0.0000E00
254.68	0.0000E00
255.05	0.0000E00
255.42	0.0000E00
255.79	0.0000E00
256.16	0.0000E00
256.54	0.0000E00
256.91	0.0000E00
257.28	0.0000E00
257.65	0.0000E00
258.02	0.0000E00
258.39	0.0000E00
258.76	0.0000E00
259.14	0.0000E00
259.51	0.0000E00
259.88	0.0000E00
260.25	0.0000E00
260.62	0.0000E00
260.99	0.0000E00
261.36	0.0000E00
261.73	0.0000E00
262.10	0.0000E00
262.47	0.0000E00
262.85	0.0000E00
263.22	0.0000E00
263.59	0.0000E00
263.96	0.0000E00
264.33	0.0000E00
264.70	0.0000E00
265.07	0.0000E00
265.44	0.0000E00
265.81	0.0000E00
266.18	0.0000E00
266.55	0.0000E00
266.92	0.0000E00
267.29	0.0000E00
267.66	-0.0000E00
268.03	0.0000E00
268.40	0.0000E00
268.77	0.0000E00
269.14	0.0000E00
269.51	0.0000E00
269.88	0.0000E00
270.25	0.0000E00
270.62	0.0000E00
270.99	0.0000E00
271.36	0.0000E00
271.73	0.0000E00
272.10	0.0000E00
272.47	0.0000E00
272.84	0.0000E00
273.21	0.0000E00
273.58	0.0000E00
273.95	0.0000E00
274.32	0.0000E00
274.69	0.0000E00
275.06	0.0000E00
275.43	0.0000E00
275.80	0.0000E00
276.17	0.0000E00
276.54	0.0000E00
276.91	0.0000E00
277.28	0.0000E00
277.65	0.0000E00
278.02	0.0000E00
278.39	0.0000E00
278.76	0.0000E00
279.13	0.0000E00
279.50	0.0000E00
279.87	0.0000E00
280.23	0.0000E00
280.60	0.0000E00
280.97	0.0000E00
281.34	0.0000E00
281.71	0.0000E00
282.08	0.0000E00
282.45	0.0000E00
282.82	0.0000E00
283.19	0.0000E00
283.56	0.0000E00
283.92	0.0000E00
284.29	0.0000E00
284.66	0.0000E00
285.03	0.0000E00
285.40	0.0000E00
285.77	0.0000E00
286.14	0.0000E00
286.51	0.0000E00
286.87	0.0000E00
287.24	0.0000E00
287.61	0.0000E00
287.98	0.0000E00
288.35	0.0000E00
288.72	0.0000E00
289.08	0.0000E00
289.45	0.0000E00
289.82	0.0000E00
290.19	0.0000E00
290.56	0.0000E00
290.93	0.0000E00
291.29	0.0000E00
291.66	0.0000E00
292.03	0.0000E00
292.40	0.0000E00
292.77	0.0000E00
293.13	0.0000E00
293.50	0.0000E00
293.87	0.0000E00
294.24	0.0000E00
294.60	0.0000E00
294.97	0.0000E00
295.34	0.0000E00
295.71	0.0000E00
296.08	0.0000E00
296.44	0.0000E00
296.81	0.0000E00
297.18	0.0000E00
297.55	0.0000E00
297.91	0.0000E00
298.28	0.0000E00
298.65	0.0000E00
299.02	0.0000E00
299.38	0.0000E00
299.75	0.0000E00
300.12	6.6423E-01
300.48	7.9863E-01
300.85	6.6034E-01
301.22	1.2274E00
301.59	7.0094E-01
301.95	7.6696E-01
302.32	6.4087E-01
302.69	7.5488E-01
303.05	6.9606E-01
303.42	1.1181E00
303.79	1.0538E00
304.15	6.7841E-01
304.52	8.8624E-01
304.89	1.0092E00
305.25	5.6037E-01
305.62	7.6687E-01
305.99	8.5026E-01
306.35	7.1349E-01
306.72	8.9804E-01
307.09	1.0126E00
307.45	9.9716E-01
307.82	1.1153E00
308.19	4.0726E00
308.55	1.0211E00
308.92	8.7040E-01
309.29	8.2503E-01
309.65	8.1628E-01
310.02	1.2636E00
310.38	9.8997E-01
310.75	8.2001E-01
311.12	1.2607E00
311.48	1.0399E00
311.85	1.4252E00
312.22	1.0049E00
312.58	1.8646E00
312.95	8.3225E-01
313.31	1.0260E00
313.68	1.4092E00
314.05	1.2504E00
314.41	1.4688E00
314.78	1.1946E00
315.14	3.1841E00
315.51	1.3838E00
315.87	9.9313E-01
316.24	2.3857E00
316.61	1.4304E00
316.97	1.4109E00
317.34	1.4198E00
317.70	1.1130E00
318.07	1.2994E00
318.43	1.3074E00
318.80	2.0805E00
319.16	1.3984E00
319.53	3.7083E01
319.89	1.9763E00
320.26	1.5346E00
320.62	2.0537E00
320.99	1.4710E00
321.35	1.6072E00
321.72	2.1433E00
322.08	1.5257E00
322.45	2.6949E00
322.81	2.0205E00
323.18	1.2065E00
323.54	1.2555E00
323.91	2.7689E00
324.27	1.9193E00
324.64	6.0081E00
325.00	1.4345E00
325.37	5.6671E00
325.73	1.5947E00
326.10	5.9504E00
326.46	1.6312E00
326.83	1.5002E00
327.19	1.6392E00
327.56	1.5931E00
327.92	2.3620E00
328.29	3.0281E00
328.65	2.7343E00
329.01	3.6541E00
329.38	1.5682E00
329.74	1.6645E00
330.11	2.1143E00
330.47	2.5003E00
330.84	1.8961E00
331.20	1.8320E00
331.56	2.1961E00
331.93	1.7681E00
332.29	2.1059E00
332.66	2.1871E00
333.02	1.3633E00
333.38	1.6000E00
333.75	1.6454E00
334.11	1.6926E00
334.48	2.4567E00
334.84	2.0743E00
335.20	1.6812E00
335.57	1.9184E00
335.93	2.6797E00
336.29	2.2312E00
336.66	1.9790E00
337.02	2.0534E00
337.38	1.9074E00
337.75	1.5249E00
338.11	1.1876E00
338.47	2.0570E00
338.84	2.6790E00
339.20	4.8806E00
339.56	1.8576E00
339.93	1.8650E00
340.29	1.4678E00
340.65	1.7054E00
341.02	1.7717E00
341.38	1.6752E00
341.74	1.5047E00
342.11	1.5170E00
342.47	2.0944E00
342.83	2.1944E00
343.20	1.4387E00
343.56	2.4191E00
343.92	1.7247E00
344.28	1.9085E00
344.65	1.8666E00
345.01	1.9456E00
345.37	1.6452E00
345.73	1.6620E00
346.10	2.2180E00
346.46	1.7910E00
346.82	1.3469E00
347.19	3.0401E00
347.55	1.6103E00
347.91	3.0931E00
348.27	1.9860E00
348.63	1.6514E00
349.00	1.6227E00
349.36	1.4883E00
349.72	1.7294E00
350.08	2.1900E00
350.45	2.2034E00
350.81	2.1474E00
351.17	1.5016E00
351.53	2.1014E00
351.89	1.9353E00
352.26	1.7491E00
352.62	1.8997E00
352.98	1.2834E00
353.34	2.2118E00
353.70	1.6914E00
354.07	1.2969E00
354.43	1.5572E00
354.79	1.3551E00
355.15	1.3869E00
355.51	1.6089E00
355.87	1.0539E00
356.24	1.5882E00
356.60	1.7048E00
356.96	1.5028E00
357.32	1.8048E00
357.68	1.2606E00
358.04	1.4964E00
358.40	1.5354E00
358.77	1.2822E00
359.13	1.6944E00
359.49	1.6689E00
359.85	1.5475E00
360.21	1.4460E00
360.57	1.3336E00
360.93	1.2609E00
361.29	1.5129E00
361.66	2.3151E00
362.02	1.4617E00
362.38	1.9712E00
362.74	1.3061E00
363.10	1.5375E00
363.46	1.3368E00
363.82	1.3947E00
364.18	1.5357E00
364.54	1.4288E00
364.90	1.1203E00
365.26	1.5121E00
365.62	1.3909E00
365.98	1.9359E00
366.35	1.7093E00
366.71	1.4406E00
367.07	1.4576E00
367.43	1.4318E00
367.79	1.3679E00
368.15	1.1456E00
368.51	1.4196E00
368.87	1.2437E00
369.23	1.3568E00
369.59	1.5792E00
369.95	1.5728E00
370.31	1.2233E00
370.67	1.3282E00
371.03	1.5308E00
371.39	1.4249E00
371.75	1.2317E00
372.11	1.4725E00
372.47	1.2152E00
372.83	1.4815E00
373.19	1.3238E00
373.55	1.4708E00
373.91	1.4661E00
374.27	1.6209E00
374.63	1.3727E00
374.99	1.3541E00
375.35	1.4315E00
375.71	1.2521E00
376.07	1.3914E00
376.42	1.2744E00
376.78	1.4004E00
377.14	1.2988E00
377.50	1.1666E00
377.86	1.3624E00
378.22	1.2096E00
378.58	1.3177E00
378.94	1.0643E00
379.30	1.1378E00
379.66	1.2661E00
380.02	1.1684E00
380.38	1.1907E00
380.74	1.3146E00
381.09	1.0990E00
381.45	1.1627E00
381.81	1.0020E00
382.17	1.3155E00
382.53	1.1696E00
382.89	1.1340E00
383.25	1.2014E00
383.61	1.1480E00
383.97	1.1507E00
384.32	1.0954E00
384.68	1.2794E00
385.04	1.0858E00
385.40	1.0808E00
385.76	1.2259E00
386.12	1.0716E00
386.48	1.1361E00
386.83	1.2137E00
387.19	1.0670E00
387.55	1.1358E00
387.91	1.0341E00
388.27	1.1259E00
388.62	1.2175E00
388.98	1.0259E00
389.34	1.2069E00
389.70	1.0331E00
390.06	1.0007E00
390.42	1.2145E00
390.77	1.0925E00
391.13	1.0568E00
391.49	1.1832E00
391.85	1.2754E00
392.20	1.2195E00
392.56	1.1491E00
392.92	1.0864E00
393.28	1.0771E00
393.64	1.0868E00
393.99	1.1338E00
394.35	1.0875E00
394.71	1.0957E00
395.07	1.0119E00
395.42	1.1090E00
395.78	1.1571E00
396.14	1.0986E00
396.50	1.0575E00
396.85	1.1741E00
397.21	1.0241E00
397.57	1.1191E00
397.92	1.0948E00
398.28	1.0662E00
398.64	1.1242E00
399.00	1.0237E00
399.35	9.9564E-01
399.71	1.0274E00
400.07	1.0799E00
400.42	1.0219E00
400.78	1.0351E00
401.14	9.7031E-01
401.49	1.0301E00
401.85	9.6366E-01
402.21	1.0429E00
402.57	1.0431E00
402.92	1.0129E00
403.28	9.8149E-01
403.63	9.7790E-01
403.99	9.7092E-01
404.35	9.7957E-01
404.70	1.0284E00
405.06	9.3145E-01
405.42	1.0336E00
405.77	9.5451E-01
406.13	9.4263E-01
406.49	8.9618E-01
406.84	9.6918E-01
407.20	9.2733E-01
407.55	1.0161E00
407.91	1.0134E00
408.27	9.2334E-01
408.62	9.0743E-01
408.98	9.1565E-01
409.34	9.0612E-01
409.69	9.5902E-01
410.05	9.2760E-01
410.40	9.1704E-01
410.76	8.7835E-01
411.11	8.3590E-01
411.47	9.1891E-01
411.83	8.5272E-01
412.18	8.5728E-01
412.54	9.2005E-01
412.89	9.1930E-01
413.25	8.5111E-01
413.60	8.8036E-01
413.96	9.4313E-01
414.31	9.0637E-01
414.67	9.5987E-01
415.03	9.6158E-01
415.38	9.2070E-01
415.74	9.5358E-01
416.09	8.8090E-01
416.45	9.4484E-01
416.80	8.8305E-01
417.16	9.5207E-01
417.51	8.9078E-01
417.87	8.7863E-01
418.22	8.5961E-01
418.58	9.2570E-01
418.93	8.3202E-01
419.29	9.0560E-01
419.64	8.7360E-01
420.00	8.3600E-01
420.35	8.1046E-01
420.71	8.6038E-01
421.06	8.4970E-01
421.42	8.5897E-01
421.77	8.6171E-01
422.12	8.6044E-01
422.48	8.3400E-01
422.83	8.8083E-01
423.19	8.4451E-01
423.54	8.4431E-01
423.90	8.4572E-01
424.25	8.0643E-01
424.61	8.4927E-01
424.96	8.3387E-01
425.31	8.0284E-01
425.67	8.0354E-01
426.02	8.1634E-01
426.38	8.0973E-01
426.73	7.9411E-01
427.09	8.1286E-01
427.44	7.4933E-01
427.79	8.0547E-01
428.15	7.8839E-01
428.50	8.0322E-01
428.85	8.2888E-01
429.21	7.6685E-01
429.56	7.4127E-01
429.92	7.6190E-01
430.27	7.5143E-01
430.62	7.8540E-01
430.98	8.0391E-01
431.33	7.7139E-01
431.68	7.7070E-01
432.04	7.3895E-01
432.39	7.5641E-01
432.74	8.0579E-01
433.10	7.3073E-01
433.45	7.7115E-01
433.80	7.7625E-01
434.16	7.7942E-01
434.51	7.4728E-01
434.86	7.8288E-01
435.22	7.3842E-01
435.57	8.1328E-01
435.92	7.5856E-01
436.28	7.8510E-01
436.63	7.3252E-01
436.98	7.4063E-01
437.34	7.5771E-01
437.69	7.3104E-01
438.04	7.0881E-01
438.39	7.6307E-01
438.75	7.3397E-01
439.10	7.0556E-01
439.45	7.4642E-01
439.81	7.2406E-01
440.16	7.0720E-01
440.51	7.2628E-01
440.86	7.2346E-01
441.22	7.1741E-01
441.57	7.3154E-01
441.92	7.1086E-01
442.27	7.4623E-01
442.63	7.1673E-01
442.98	7.6281E-01
443.33	7.4467E-01
443.68	7.1861E-01
444.03	6.6824E-01
444.39	6.6898E-01
444.74	7.2087E-01
445.09	7.3419E-01
445.44	7.2562E-01
445.79	6.5746E-01
446.15	7.2278E-01
446.50	7.0862E-01
446.85	6.7549E-01
447.20	6.6626E-01
447.55	6.8606E-01
447.91	6.9777E-01
448.26	6.9366E-01
448.61	7.0670E-01
448.96	6.8459E-01
449.31	6.8225E-01
449.66	7.1782E-01
450.02	6.7815E-01
450.37	7.0921E-01
450.72	6.7666E-01
451.07	7.1619E-01
451.42	7.1767E-01
451.77	6.9453E-01
452.12	6.9371E-01
452.47	7.3300E-01
452.83	6.5089E-01
453.18	7.0014E-01
453.53	6.8271E-01
453.88	6.4616E-01
454.23	6.5261E-01
454.58	6.5016E-01
454.93	6.8061E-01
455.28	6.7358E-01
455.63	6.7045E-01
455.98	6.5569E-01
456.34	6.8348E-01
456.69	6.7496E-01
457.04	6.5762E-01
457.39	6.3157E-01
457.74	6.2220E-01
458.09	6.4661E-01
458.44	6.2841E-01
458.79	6.0146E-01
459.14	6.2915E-01
459.49	6.4619E-01
459.84	6.2311E-01
460.19	6.5834E-01
460.54	6.4825E-01
460.89	6.0027E-01
461.24	6.6077E-01
461.59	6.3279E-01
461.94	6.5297E-01
462.29	6.0042E-01
462.64	6.4893E-01
462.99	6.5543E-01
463.34	6.6049E-01
463.69	6.2705E-01
464.04	5.9011E-01
464.39	6.0042E-01
464.74	6.1736E-01
465.09	6.3837E-01
465.44	6.0079E-01
465.79	6.2618E-01
466.14	6.2882E-01
466.49	6.0792E-01
466.84	6.1431E-01
467.19	6.1840E-01
467.54	6.4001E-01
467.89	6.0285E-01
468.24	5.7697E-01
468.59	5.8441E-01
468.94	5.7708E-01
469.29	5.8053E-01
469.64	5.9189E-01
469.99	5.7985E-01
470.34	5.5611E-01
470.68	5.9535E-01
471.03	5.7543E-01
471.38	5.5933E-01
471.73	5.6033E-01
472.08	5.3968E-01
472.43	5.2337E-01
472.78	5.4392E-01
473.13	5.4621E-01
473.48	5.4415E-01
473.83	5.2360E-01
474.17	5.3253E-01
474.52	5.3002E-01
474.87	5.0530E-01
475.22	5.1414E-01
475.57	4.8859E-01
475.92	4.7192E-01
476.27	5.0693E-01
476.61	4.8040E-01
476.96	4.7079E-01
477.31	4.5305E-01
477.66	4.6074E-01
478.01	4.5675E-01
478.36	4.5721E-01
478.70	4.4205E-01
479.05	4.5226E-01
479.40	4.2981E-01
479.75	4.3337E-01
480.10	4.3345E-01
480.45	4.1912E-01
480.79	4.2454E-01
481.14	4.3303E-01
481.49	4.1581E-01
481.84	4.0600E-01
482.19	4.0291E-01
482.53	4.0674E-01
482.88	3.9998E-01
483.23	3.9231E-01
483.58	3.9159E-01
483.92	3.9938E-01
484.27	3.8201E-01
484.62	3.8355E-01
484.97	3.7278E-01
485.31	3.7300E-01
485.66	3.7843E-01
486.01	3.8131E-01
486.36	3.6426E-01
486.70	3.6786E-01
487.05	3.6674E-01
487.40	3.6460E-01
487.75	3.5610E-01
488.09	3.5995E-01
488.44	3.6203E-01
488.79	3.6194E-01
489.13	3.5650E-01
489.48	3.5884E-01
489.83	3.5724E-01
490.17	3.4705E-01
490.52	3.4728E-01
490.87	3.4844E-01
491.22	3.4874E-01
491.56	3.4913E-01
491.91	3.5423E-01
492.26	3.4855E-01
492.60	3.4877E-01
492.95	3.5191E-01
493.30	3.5061E-01
493.64	3.4498E-01
493.99	3.4828E-01
494.34	3.4808E-01
494.68	3.4149E-01
495.03	3.5242E-01
495.37	3.4438E-01
495.72	3.5302E-01
496.07	3.4450E-01
496.41	3.4365E-01
496.76	3.4334E-01
497.11	3.4823E-01
497.45	3.4582E-01
497.80	3.4669E-01
498.14	3.4454E-01
498.49	3.4386E-01
498.84	3.4568E-01
499.18	3.4026E-01
499.53	3.4359E-01
499.87	3.4490E-01
500.22	3.4739E-01
500.56	3.4673E-01
500.91	3.4482E-01
501.26	3.4501E-01
501.60	3.4225E-01
501.95	3.4316E-01
502.29	3.4291E-01
502.64	3.3991E-01
502.98	3.4589E-01
503.33	3.3952E-01
503.67	3.4233E-01
504.02	3.4191E-01
504.36	3.3899E-01
504.71	3.4437E-01
505.06	3.4307E-01
505.40	3.3872E-01
505.75	3.3945E-01
506.09	3.4148E-01
506.44	3.3888E-01
506.78	3.3802E-01
507.13	3.3877E-01
507.47	3.3673E-01
507.82	3.3560E-01
508.16	3.3756E-01
508.51	3.3459E-01
508.85	3.3215E-01
509.19	3.3161E-01
509.54	3.3588E-01
509.88	3.3804E-01
510.23	3.3260E-01
510.57	3.3346E-01
510.92	3.3342E-01
511.26	3.3041E-01
511.61	3.3189E-01
511.95	3.3010E-01
512.30	3.2804E-01
512.64	3.2910E-01
512.98	3.2869E-01
513.33	3.2760E-01
513.67	3.3161E-01
514.02	3.2948E-01
514.36	3.2641E-01
514.70	3.2970E-01
515.05	3.2339E-01
515.39	3.2597E-01
515.74	3.2405E-01
516.08	3.2659E-01
516.42	3.2318E-01
516.77	3.2406E-01
517.11	3.2397E-01
517.46	3.2311E-01
517.80	3.2393E-01
518.14	3.2401E-01
518.49	3.2082E-01
518.83	3.2418E-01
519.17	3.2710E-01
519.52	3.2218E-01
519.86	3.2142E-01
520.20	3.2002E-01
520.55	3.1918E-01
520.89	3.1944E-01
521.23	3.2026E-01
521.58	3.2322E-01
521.92	3.2206E-01
522.26	3.2582E-01
522.61	3.1933E-01
522.95	3.2206E-01
523.29	3.1966E-01
523.64	3.2218E-01
523.98	3.2225E-01
524.32	3.2188E-01
524.66	3.2147E-01
525.01	3.2246E-01
525.35	3.2336E-01
525.69	3.2557E-01
526.04	3.2625E-01
526.38	3.2141E-01
526.72	3.2721E-01
527.06	3.2589E-01
527.41	3.2827E-01
527.75	3.2764E-01
528.09	3.2569E-01
528.43	3.2909E-01
528.78	3.2741E-01
529.12	3.3242E-01
529.46	3.3166E-01
529.80	3.3318E-01
530.15	3.3377E-01
530.49	3.3571E-01
530.83	3.3558E-01
531.17	3.3538E-01
531.51	3.3793E-01
531.86	3.3752E-01
532.20	3.4340E-01
532.54	3.3855E-01
532.88	3.4191E-01
533.22	3.4420E-01
533.57	3.4593E-01
533.91	3.4413E-01
534.25	3.4615E-01
534.59	3.4698E-01
534.93	3.4368E-01
535.27	3.4752E-01
535.62	3.5161E-01
535.96	3.5174E-01
536.30	3.5038E-01
536.64	3.5476E-01
536.98	3.5645E-01
537.32	3.5495E-01
537.66	3.5404E-01
538.01	3.6094E-01
538.35	3.6093E-01
538.69	3.5697E-01
539.03	3.6387E-01
539.37	3.5982E-01
539.71	3.6503E-01
540.05	3.6104E-01
540.39	3.6468E-01
540.73	3.6682E-01
541.07	3.6624E-01
541.42	3.6725E-01
541.76	3.6800E-01
542.10	3.6886E-01
542.44	3.7158E-01
542.78	3.7131E-01
543.12	3.6822E-01
543.46	3.7652E-01
543.80	3.7165E-01
544.14	3.7055E-01
544.48	3.6968E-01
544.82	3.7412E-01
545.16	3.7192E-01
545.50	3.7396E-01
545.84	3.8009E-01
546.18	3.7316E-01
546.52	3.7848E-01
546.86	3.7829E-01
547.20	3.7971E-01
547.54	3.8507E-01
547.88	3.7937E-01
548.22	3.7906E-01
548.56	3.8209E-01
548.90	3.7928E-01
549.24	3.8146E-01
549.58	3.8464E-01
549.92	3.8232E-01
550.26	3.8665E-01
550.60	3.8461E-01
550.94	3.7913E-01
551.28	3.8743E-01
551.62	3.8230E-01
551.96	3.8674E-01
552.30	3.9037E-01
552.64	3.8909E-01
552.98	3.8672E-01
553.32	3.8580E-01
553.66	3.8556E-01
554.00	3.8490E-01
554.34	3.8832E-01
554.68	3.9016E-01
555.02	3.8711E-01
555.36	3.9137E-01
555.69	3.9007E-01
556.03	3.8848E-01
556.37	3.8813E-01
556.71	3.8771E-01
557.05	3.8876E-01
557.39	3.8954E-01
557.73	3.9020E-01
558.07	3.9011E-01
558.41	3.8626E-01
558.75	3.9064E-01
559.08	3.8893E-01
559.42	3.8406E-01
559.76	3.9180E-01
560.10	3.9139E-01
560.44	3.9256E-01
560.78	3.8818E-01
561.12	3.8815E-01
561.45	3.8981E-01
561.79	3.9171E-01
562.13	3.9110E-01
562.47	3.9102E-01
562.81	3.9338E-01
563.15	3.9325E-01
563.48	3.9128E-01
563.82	3.8497E-01
564.16	3.9261E-01
564.50	3.9052E-01
564.84	3.9381E-01
565.17	3.9202E-01
565.51	3.8806E-01
565.85	3.9281E-01
566.19	3.9018E-01
566.52	3.9483E-01
566.86	3.9000E-01
567.20	3.9353E-01
567.54	3.9540E-01
567.88	3.9360E-01
568.21	3.9755E-01
568.55	3.9506E-01
568.89	3.9339E-01
569.23	3.9375E-01
569.56	3.9371E-01
569.90	3.9683E-01
570.24	3.9890E-01
570.57	3.9910E-01
570.91	3.9739E-01
571.25	3.9641E-01
571.59	3.9555E-01
571.92	3.9664E-01
572.26	3.9867E-01
572.60	4.0072E-01
572.93	4.0105E-01
573.27	4.0296E-01
573.61	4.0406E-01
573.95	3.9953E-01
574.28	4.0473E-01
574.62	4.0427E-01
574.96	4.1037E-01
575.29	4.0755E-01
575.63	4.1254E-01
575.97	4.0968E-01
576.30	4.1685E-01
576.64	4.1210E-01
576.98	4.1566E-01
577.31	4.1369E-01
577.65	4.1806E-01
577.98	4.1682E-01
578.32	4.2111E-01
578.66	4.2376E-01
578.99	4.2106E-01
579.33	4.2755E-01
579.67	4.2419E-01
580.00	4.2872E-01
580.34	4.2490E-01
580.67	4.3027E-01
581.01	4.3119E-01
581.35	4.3254E-01
581.68	4.3467E-01
582.02	4.3558E-01
582.35	4.3703E-01
582.69	4.3486E-01
583.02	4.4307E-01
583.36	4.4175E-01
583.70	4.3923E-01
584.03	4.4336E-01
584.37	4.4145E-01
584.70	4.4988E-01
585.04	4.4717E-01
585.37	4.4518E-01
585.71	4.5390E-01
586.04	4.4889E-01
586.38	4.5223E-01
586.72	4.5722E-01
587.05	4.5538E-01
587.39	4.5915E-01
587.72	4.5514E-01
588.06	4.6312E-01
588.39	4.5955E-01
588.73	4.6251E-01
589.06	4.6275E-01
589.40	4.6732E-01
589.73	4.6776E-01
590.07	4.7118E-01
590.40	4.7145E-01
590.73	4.7748E-01
591.07	4.7047E-01
591.40	4.7786E-01
591.74	4.7591E-01
592.07	4.8056E-01
592.41	4.8001E-01
592.74	4.8048E-01
593.08	4.7656E-01
593.41	4.7915E-01
593.75	4.8165E-01
594.08	4.8349E-01
594.41	4.8369E-01
594.75	4.8731E-01
595.08	4.8495E-01
595.42	4.8075E-01
595.75	4.8405E-01
596.09	4.8839E-01
596.42	4.8744E-01
596.75	4.8896E-01
597.09	4.9380E-01
597.42	4.8729E-01
597.75	4.9210E-01
598.09	4.9165E-01
598.42	4.9580E-01
598.76	4.9555E-01
599.09	4.9640E-01
599.42	5.0143E-01
599.76	4.9725E-01
600.09	4.9956E-01
600.42	5.0051E-01
600.76	4.9055E-01
601.09	4.9751E-01
601.42	5.0621E-01
601.76	4.9809E-01
602.09	4.9960E-01
602.42	5.0268E-01
602.76	5.0242E-01
603.09	5.0124E-01
603.42	5.0357E-01
603.76	4.9886E-01
604.09	5.0014E-01
604.42	5.0376E-01
604.76	5.0027E-01
605.09	5.0716E-01
605.42	5.0454E-01
605.75	5.0628E-01
606.09	5.0875E-01
606.42	5.0564E-01
606.75	5.0734E-01
607.09	5.1095E-01
607.42	5.0567E-01
607.75	5.1063E-01
608.08	5.1246E-01
608.42	5.1217E-01
608.75	5.0927E-01
609.08	5.1384E-01
609.41	5.1414E-01
609.75	5.1491E-01
610.08	5.0866E-01
610.41	5.1407E-01
610.74	5.1546E-01
611.07	5.1642E-01
611.41	5.1016E-01
611.74	5.1621E-01
612.07	5.1460E-01
612.40	5.1227E-01
612.73	5.1339E-01
613.07	5.1878E-01
613.40	5.1400E-01
613.73	5.1189E-01
614.06	5.1583E-01
614.39	5.1671E-01
614.72	5.1984E-01
615.06	5.1885E-01
615.39	5.2645E-01
615.72	5.1741E-01
616.05	5.2871E-01
616.38	5.2467E-01
616.71	5.2756E-01
617.05	5.1760E-01
617.38	5.2252E-01
617.71	5.1878E-01
618.04	5.2682E-01
618.37	5.1787E-01
618.70	5.2165E-01
619.03	5.2319E-01
619.36	5.1649E-01
619.69	5.2421E-01
620.03	5.1967E-01
620.36	5.1991E-01
620.69	5.1927E-01
621.02	5.2340E-01
621.35	5.1783E-01
621.68	5.1165E-01
622.01	5.1691E-01
622.34	5.1937E-01
622.67	5.1836E-01
623.00	5.2224E-01
623.33	5.1890E-01
623.66	5.1995E-01
623.99	5.2424E-01
624.32	5.1675E-01
624.65	5.1818E-01
624.99	5.1941E-01
625.32	5.2165E-01
625.65	5.2081E-01
625.98	5.1252E-01
626.31	5.1863E-01
626.64	5.2181E-01
626.97	5.1719E-01
627.30	5.1583E-01
627.63	5.1972E-01
627.96	5.1529E-01
628.29	5.1222E-01
628.62	5.1967E-01
628.95	5.2019E-01
629.28	5.1226E-01
629.61	5.2399E-01
629.94	5.2096E-01
630.26	5.2320E-01
630.59	5.2341E-01
630.92	5.1840E-01
631.25	5.2068E-01
631.58	5.2661E-01
631.91	5.2618E-01
632.24	5.2989E-01
632.57	5.2819E-01
632.90	5.2587E-01
633.23	5.2669E-01
633.56	5.3058E-01
633.89	5.3055E-01
634.22	5.3168E-01
634.55	5.3468E-01
634.88	5.3920E-01
635.20	5.3963E-01
635.53	5.4300E-01
635.86	5.4283E-01
636.19	5.4914E-01
636.52	5.4890E-01
636.85	5.4881E-01
637.18	5.5569E-01
637.51	5.5273E-01
637.83	5.5969E-01
638.16	5.5505E-01
638.49	5.6395E-01
638.82	5.6359E-01
639.15	5.6547E-01
639.48	5.6810E-01
639.81	5.7620E-01
640.13	5.6998E-01
640.46	5.7725E-01
640.79	5.7627E-01
641.12	5.8469E-01
641.45	5.8075E-01
641.77	5.8285E-01
642.10	5.9202E-01
642.43	5.9190E-01
642.76	5.9669E-01
643.09	5.9127E-01
643.41	5.9847E-01
643.74	6.0051E-01
644.07	5.9707E-01
644.40	6.0318E-01
644.73	6.1140E-01
645.05	6.1190E-01
645.38	6.1378E-01
645.71	6.1705E-01
646.04	6.1946E-01
646.36	6.1629E-01
646.69	6.2881E-01
647.02	6.2035E-01
647.35	6.2548E-01
647.67	6.3393E-01
648.00	6.2965E-01
648.33	6.4048E-01
648.66	6.3167E-01
648.98	6.4278E-01
649.31	6.3737E-01
649.64	6.3995E-01
649.96	6.4860E-01
650.29	6.5108E-01
650.62	6.5237E-01
650.94	6.5596E-01
651.27	6.5360E-01
651.60	6.5548E-01
651.92	6.6533E-01
652.25	6.6408E-01
652.58	6.6419E-01
652.90	6.6964E-01
653.23	6.6699E-01
653.56	6.6989E-01
653.88	6.7546E-01
654.21	6.7513E-01
654.54	6.7970E-01
654.86	6.8694E-01
655.19	6.7926E-01
655.52	6.9179E-01
655.84	6.8384E-01
656.17	6.8719E-01
656.49	6.9696E-01
656.82	6.8488E-01
657.15	6.9826E-01
657.47	6.9737E-01
657.80	6.9929E-01
658.13	7.0013E-01
658.45	7.0383E-01
658.78	7.0883E-01
659.10	7.1040E-01
659.43	7.1192E-01
659.75	7.0924E-01
660.08	7.0613E-01
660.41	7.1650E-01
660.73	7.1915E-01
661.06	7.2218E-01
661.38	7.2005E-01
661.71	7.2151E-01
662.03	7.1549E-01
662.36	7.2885E-01
662.68	7.2896E-01
663.01	7.2037E-01
663.33	7.3224E-01
663.66	7.3217E-01
663.98	7.3773E-01
664.31	7.3112E-01
664.63	7.4618E-01
664.96	7.3490E-01
665.28	7.4339E-01
665.61	7.4162E-01
665.93	7.4161E-01
666.26	7.4608E-01
666.58	7.4932E-01
666.91	7.4419E-01
667.23	7.5234E-01
667.56	7.4840E-01
667.88	7.5079E-01
668.21	7.6001E-01
668.53	7.5259E-01
668.86	7.5821E-01
669.18	7.5676E-01
669.50	7.6851E-01
669.83	7.6590E-01
670.15	7.6777E-01
670.48	7.7153E-01
670.80	7.6760E-01
671.13	7.6409E-01
671.45	7.7247E-01
671.77	7.7554E-01
672.10	7.6999E-01
672.42	7.8486E-01
672.75	7.7703E-01
673.07	7.8606E-01
673.39	7.8096E-01
673.72	7.8579E-01
674.04	7.9109E-01
674.37	7.8703E-01
674.69	7.8344E-01
675.01	7.9884E-01
675.34	7.9611E-01
675.66	7.9914E-01
675.98	7.8730E-01
676.31	8.0242E-01
676.63	7.9938E-01
676.95	7.9820E-01
677.28	8.0569E-01
677.60	8.0779E-01
677.92	8.1266E-01
678.25	8.1412E-01
678.57	8.1491E-01
678.89	8.1104E-01
679.22	8.2235E-01
679.54	8.1531E-01
679.86	8.2703E-01
680.18	8.1884E-01
680.51	8.1907E-01
680.83	8.3933E-01
681.15	8.2569E-01
681.48	8.3560E-01
681.80	8.2896E-01
682.12	8.3121E-01
682.44	8.4010E-01
682.77	8.4420E-01
683.09	8.5028E-01
683.41	8.4832E-01
683.73	8.5578E-01
684.06	8.5071E-01
684.38	8.5062E-01
684.70	8.5860E-01
685.02	8.6362E-01
685.34	8.6677E-01
685.67	8.6327E-01
685.99	8.7680E-01
686.31	8.6675E-01
686.63	8.8276E-01
686.96	8.8455E-01
687.28	8.8988E-01
687.60	8.7720E-01
687.92	8.8680E-01
688.24	8.9295E-01
688.56	9.0229E-01
688.89	8.9261E-01
689.21	9.0451E-01
689.53	9.0296E-01
689.85	9.1332E-01
690.17	9.0597E-01
690.49	9.2620E-01
690.82	9.1654E-01
691.14	9.2021E-01
691.46	9.1883E-01
691.78	9.2928E-01
692.10	9.2380E-01
692.42	9.3609E-01
692.74	9.3677E-01
693.06	9.4214E-01
693.39	9.5365E-01
693.71	9.6695E-01
694.03	9.6203E-01
694.35	9.6120E-01
694.67	9.6351E-01
694.99	9.7810E-01
695.31	9.7650E-01
695.63	9.8103E-01
695.95	9.8220E-01
696.27	9.8601E-01
696.59	9.8817E-01
696.91	9.9705E-01
697.23	1.0001E00
697.56	1.0038E00
697.88	1.0027E00
698.20	1.0107E00
698.52	1.0150E00
698.84	1.0293E00
699.16	1.0356E00
699.48	1.0244E00
699.80	1.0479E00
700.12	1.0375E00
700.44	1.0424E00
700.76	1.0509E00
701.08	1.0657E00
701.40	1.0646E00
701.72	1.0678E00
702.04	1.0748E00
702.36	1.0735E00
702.68	1.0853E00
703.00	1.0952E00
703.32	1.0900E00
703.64	1.1050E00
703.96	1.1022E00
704.28	1.1109E00
704.60	1.1193E00
704.91	1.1261E00
705.23	1.1255E00
705.55	1.1380E00
705.87	1.1390E00
706.19	1.1385E00
706.51	1.1515E00
706.83	1.1455E00
707.15	1.1745E00
707.47	1.1646E00
707.79	1.1795E00
708.11	1.1746E00
708.43	1.1823E00
708.74	1.1831E00
709.06	1.1935E00
709.38	1.2060E00
709.70	1.2046E00
710.02	1.2114E00
710.34	1.2057E00
710.66	1.2310E00
710.98	1.2278E00
711.29	1.2331E00
711.61	1.2538E00
711.93	1.2640E00
712.25	1.2509E00
712.57	1.2699E00
712.89	1.2755E00
713.20	1.2684E00
713.52	1.2867E00
713.84	1.2908E00
714.16	1.2832E00
714.48	1.2951E00
714.80	1.3146E00
715.11	1.3123E00
715.43	1.3271E00
715.75	1.3309E00
716.07	1.3358E00
716.39	1.3243E00
716.70	1.3363E00
717.02	1.3336E00
717.34	1.3613E00
717.66	1.3655E00
717.97	1.3778E00
718.29	1.3852E00
718.61	1.3913E00
718.93	1.4072E00
719.24	1.4019E00
719.56	1.4286E00
719.88	1.4267E00
720.20	1.4511E00
720.51	1.4665E00
720.83	1.4449E00
721.15	1.4755E00
721.46	1.4755E00
721.78	1.4844E00
722.10	1.5115E00
722.42	1.5050E00
722.73	1.5260E00
723.05	1.5161E00
723.37	1.5336E00
723.68	1.5518E00
724.00	1.5399E00
724.32	1.5648E00
724.63	1.5547E00
724.95	1.5682E00
725.27	1.5795E00
725.58	1.5779E00
725.90	1.5705E00
726.22	1.5967E00
726.53	1.5801E00
726.85	1.6025E00
727.16	1.6096E00
727.48	1.6208E00
727.80	1.6190E00
728.11	1.6193E00
728.43	1.6251E00
728.74	1.6286E00
729.06	1.6514E00
729.38	1.6500E00
729.69	1.6427E00
730.01	1.6593E00
730.32	1.6590E00
730.64	1.6561E00
730.96	1.6656E00
731.27	1.6942E00
731.59	1.6692E00
731.90	1.6911E00
732.22	1.6927E00
732.53	1.6930E00
732.85	1.7127E00
733.16	1.7205E00
733.48	1.7236E00
733.80	1.6999E00
734.11	1.7330E00
734.43	1.7280E00
734.74	1.7318E00
735.06	1.7635E00
735.37	1.7441E00
735.69	1.7664E00
736.00	1.7728E00
736.32	1.7755E00
736.63	1.7823E00
736.95	1.7837E00
737.26	1.8041E00
737.58	1.7947E00
737.89	1.8157E00
738.21	1.8178E00
738.52	1.8121E00
738.83	1.8317E00
739.15	1.8227E00
739.46	1.8434E00
739.78	1.8533E00
740.09	1.8549E00
740.41	1.8553E00
740.72	1.8526E00
741.04	1.8534E00
741.35	1.8561E00
741.66	1.8467E00
741.98	1.8726E00
742.29	1.8656E00
742.61	1.8756E00
742.92	1.8675E00
743.23	1.8772E00
743.55	1.8994E00
743.86	1.8936E00
744.18	1.8760E00
744.49	1.8905E00
744.80	1.8871E00
745.12	1.8862E00
745.43	1.8874E00
745.74	1.8816E00
746.06	1.8908E00
746.37	1.8715E00
746.68	1.8783E00
747.00	1.8890E00
747.31	1.8966E00
747.62	1.8676E00
747.94	1.8999E00
748.25	1.8893E00
748.56	1.8863E00
748.88	1.8858E00
749.19	1.8959E00
749.50	1.8950E00
749.82	1.8847E00
750.13	1.8913E00
750.44	1.8853E00
750.75	1.8714E00
751.07	1.8886E00
751.38	1.8958E00
751.69	1.8932E00
752.01	1.8919E00
752.32	1.9027E00
752.63	1.8885E00
752.94	1.8987E00
753.26	1.9211E00
753.57	1.9030E00
753.88	1.9297E00
754.19	1.9176E00
754.51	1.9143E00
754.82	1.9143E00
755.13	1.9487E00
755.44	1.9327E00
755.75	1.9296E00
756.07	1.9366E00
756.38	1.9558E00
756.69	1.9507E00
757.00	1.9594E00
757.31	1.9837E00
757.63	2.0064E00
757.94	2.0007E00
758.25	1.9998E00
758.56	1.9769E00
758.87	2.0139E00
759.18	2.0352E00
759.50	2.0295E00
759.81	2.0520E00
760.12	2.0434E00
760.43	2.0585E00
760.74	2.0750E00
761.05	2.0744E00
761.36	2.0992E00
761.67	2.1277E00
761.99	2.1329E00
762.30	2.1132E00
762.61	2.1456E00
762.92	2.1662E00
763.23	2.1727E00
763.54	2.1806E00
763.85	2.2171E00
764.16	2.2202E00
764.47	2.2254E00
764.78	2.2483E00
765.10	2.2598E00
765.41	2.2733E00
765.72	2.2809E00
766.03	2.3374E00
766.34	2.3402E00
766.65	2.3565E00
766.96	2.3815E00
767.27	2.3947E00
767.58	2.3748E00
767.89	2.4140E00
768.20	2.4484E00
768.51	2.4632E00
768.82	2.4688E00
769.13	2.4871E00
769.44	2.5421E00
769.75	2.5384E00
770.06	2.5751E00
770.37	2.5396E00
770.68	2.5947E00
770.99	2.6131E00
771.30	2.6544E00
771.61	2.6960E00
771.92	2.6655E00
772.23	2.6901E00
772.54	2.7310E00
772.85	2.7302E00
773.16	2.7937E00
773.47	2.8187E00
773.78	2.7972E00
774.09	2.8737E00
774.39	2.8676E00
774.70	2.9025E00
775.01	2.9192E00
775.32	2.9191E00
775.63	2.9686E00
775.94	3.0023E00
776.25	3.0094E00
776.56	3.0483E00
776.87	3.1196E00
777.18	3.1000E00
777.48	3.1205E00
777.79	3.1634E00
778.10	3.1824E00
778.41	3.2069E00
778.72	3.2407E00
779.03	3.2494E00
779.34	3.3390E00
779.65	3.3106E00
779.95	3.3500E00
780.26	3.3885E00
780.57	3.4159E00
780.88	3.4036E00
781.19	3.4766E00
781.50	3.4838E00
781.80	3.5116E00
782.11	3.5526E00
782.42	3.6245E00
782.73	3.5505E00
783.04	3.5976E00
783.34	3.6848E00
783.65	3.7155E00
783.96	3.7385E00
784.27	3.7336E00
784.57	3.7403E00
784.88	3.8438E00
785.19	3.8433E00
785.50	3.8475E00
785.81	3.8962E00
786.11	3.8691E00
786.42	4.0086E00
786.73	4.0187E00
787.04	3.9822E00
787.34	4.0457E00
787.65	4.0369E00
787.96	4.1413E00
788.26	4.1757E00
788.57	4.2259E00
788.88	4.1458E00
789.19	4.3122E00
789.49	4.3122E00
789.80	4.3368E00
790.11	4.3813E00
790.41	4.3577E00
790.72	4.4865E00
791.03	4.4689E00
791.33	4.5072E00
791.64	4.5167E00
791.95	4.5752E00
792.25	4.6644E00
792.56	4.6961E00
792.87	4.6605E00
793.17	4.7241E00
793.48	4.7071E00
793.79	4.7842E00
794.09	4.9614E00
794.40	4.7585E00
794.70	4.8015E00
795.01	4.9031E00
795.32	4.8896E00
795.62	5.0011E00
795.93	5.0213E00
796.23	5.0645E00
796.54	5.0737E00
796.85	5.0286E00
797.15	5.1719E00
797.46	5.1927E00
797.76	5.3018E00
798.07	5.2538E00
798.37	5.3723E00
798.68	5.3945E00
798.99	5.4577E00
799.29	5.4898E00
799.60	5.5206E00
799.90	5.5451E00
800.21	5.6483E00
800.51	5.6984E00
800.82	5.6660E00
801.12	5.7889E00
801.43	5.6952E00
801.73	5.8084E00
802.04	5.8627E00
802.34	5.8799E00
802.65	5.9926E00
802.95	6.0421E00
803.26	6.1203E00
803.56	6.0069E00
803.87	6.1046E00
804.17	6.1742E00
804.48	6.1433E00
804.78	6.1846E00
805.09	6.3263E00
805.39	6.2587E00
805.70	6.3236E00
806.00	6.4346E00
806.30	6.3367E00
806.61	6.4578E00
806.91	6.4774E00
807.22	6.5482E00
807.52	6.6340E00
807.83	6.5632E00
808.13	6.7244E00
808.43	6.6534E00
808.74	6.8811E00
809.04	6.8226E00
809.35	6.8540E00
809.65	7.0107E00
809.95	6.9386E00
810.26	7.1048E00
810.56	6.9479E00
810.86	7.2717E00
811.17	7.2244E00
811.47	7.3934E00
811.77	7.3734E00
812.08	7.4255E00
812.38	7.4365E00
812.69	7.3784E00
812.99	7.4399E00
813.29	7.4204E00
813.59	7.5983E00
813.90	7.7250E00
814.20	7.7727E00
814.50	7.8373E00
814.81	7.7931E00
815.11	7.9069E00
815.41	8.0031E00
815.72	7.9955E00
816.02	8.1441E00
816.32	8.0381E00
816.62	7.9976E00
816.93	8.0915E00
817.23	8.3323E00
817.53	8.3342E00
817.84	8.5392E00
818.14	8.5099E00
818.44	8.3128E00
818.74	8.6226E00
819.04	8.7609E00
819.35	8.7714E00
819.65	8.6735E00
819.95	8.8306E00
820.25	8.9721E00
820.56	9.0217E00
820.86	9.0255E00
821.16	9.0793E00
821.46	9.0529E00
821.76	9.0352E00
822.07	9.1698E00
822.37	9.4160E00
822.67	9.4343E00
822.97	9.6459E00
823.27	9.5380E00
823.57	9.5137E00
823.88	9.4810E00
824.18	9.7094E00
824.48	9.5117E00
824.78	9.7627E00
825.08	9.7648E00
825.38	9.9984E00
825.69	9.9184E00
825.99	9.8984E00
826.29	1.0110E01
826.59	1.0322E01
826.89	1.0314E01
827.19	1.0240E01
827.49	1.0465E01
827.79	1.0495E01
828.09	1.0516E01
828.39	1.0694E01
828.70	1.0534E01
829.00	1.0796E01
829.30	1.0872E01
829.60	1.0665E01
829.90	1.0909E01
830.20	1.1094E01
830.50	1.1252E01
830.80	1.1506E01
831.10	1.1321E01
831.40	1.1344E01
831.70	1.1372E01
832.00	1.1449E01
832.30	1.1763E01
832.60	1.1549E01
832.90	1.1708E01
833.20	1.1611E01
833.50	1.1703E01
833.80	1.2074E01
834.10	1.2045E01
834.40	1.2207E01
834.70	1.2168E01
835.00	1.2540E01
835.30	1.2436E01
835.60	1.2356E01
835.90	1.2505E01
836.20	1.2762E01
836.50	1.2468E01
836.80	1.2614E01
837.10	1.2874E01
837.40	1.2777E01
837.70	1.2947E01
838.00	1.3229E01
838.30	1.3167E01
838.60	1.3559E01
838.90	1.3369E01
839.19	1.3221E01
839.49	1.3912E01
839.79	1.3493E01
840.09	1.3658E01
840.39	1.3730E01
840.69	1.3829E01
840.99	1.4271E01
841.29	1.4242E01
841.59	1.4211E01
841.88	1.4399E01
842.18	1.4735E01
842.48	1.4590E01
842.78	1.4609E01
843.08	1.4853E01
843.38	1.5165E01
843.68	1.5257E01
843.97	1.5399E01
844.27	1.5158E01
844.57	1.5041E01
844.87	1.5481E01
845.17	1.5413E01
845.47	1.5829E01
845.76	1.5886E01
846.06	1.5930E01
846.36	1.5835E01
846.66	1.6048E01
846.96	1.6022E01
847.25	1.6329E01
847.55	1.6325E01
847.85	1.6485E01
848.15	1.6596E01
848.44	1.6827E01
848.74	1.7212E01
849.04	1.7107E01
849.34	1.7510E01
849.63	1.7163E01
849.93	1.7421E01
850.23	1.7458E01
850.53	1.8100E01
850.82	1.8145E01
851.12	1.8329E01
851.42	1.7960E01
851.71	1.8547E01
852.01	1.8635E01
852.31	1.8566E01
852.61	1.8923E01
852.90	1.8964E01
853.20	1.9384E01
853.50	1.9683E01
853.79	1.9065E01
854.09	1.9245E01
854.39	2.0053E01
854.68	2.0036E01
854.98	1.9728E01
855.28	2.0622E01
855.57	2.0307E01
855.87	2.0582E01
856.17	2.0923E01
856.46	2.1007E01
856.76	2.0913E01
857.05	2.0751E01
857.35	2.1349E01
857.65	2.1630E01
857.94	2.1947E01
858.24	2.1941E01
858.53	2.1808E01
858.83	2.2036E01
859.13	2.2132E01
859.42	2.2374E01
859.72	2.3042E01
860.01	2.2735E01
860.31	2.3193E01
860.60	2.4175E01
860.90	2.3039E01
861.20	2.3949E01
861.49	2.4506E01
861.79	2.4532E01
862.08	2.4857E01
862.38	2.5045E01
862.67	2.5052E01
862.97	2.5198E01
863.26	2.4639E01
863.56	2.5577E01
863.85	2.6764E01
864.15	2.6077E01
864.44	2.6222E01
864.74	2.6841E01
865.03	2.6976E01
865.33	2.7176E01
865.62	2.7887E01
865.92	2.7681E01
866.21	2.8182E01
866.51	2.7860E01
866.80	2.9034E01
867.10	2.9300E01
867.39	2.9059E01
867.69	2.9014E01
867.98	2.9175E01
868.27	2.9745E01
868.57	3.0191E01
868.86	3.0126E01
869.16	3.0178E01
869.45	3.1321E01
869.75	3.0836E01
870.04	3.2406E01
870.33	3.1574E01
870.63	3.2230E01
870.92	3.1658E01
871.22	3.4205E01
871.51	3.4079E01
871.80	3.3251E01
872.10	3.3251E01
>>>>>End Processed Spectral Data<<<<<
