SpectraSuite Data File
++++++++++++++++++++++++++++++++++++
Date: Thu May 14 11:22:36 PDT 2015
User: schluterlab
Dark Spectrum Present: Yes
Reference Spectrum Present: No
Number of Sampled Component Spectra: 1
Spectrometers: USB2E3373
Integration Time (usec): 2300000 (USB2E3373)
Spectra Averaged: 3 (USB2E3373)
Boxcar Smoothing: 0 (USB2E3373)
Correct for Electrical Dark: No (USB2E3373)
Strobe/Lamp Enabled: No (USB2E3373)
Correct for Detector Non-linearity: No (USB2E3373)
Correct for Stray Light: No (USB2E3373)
Number of Pixels in Processed Spectrum: 2048
>>>>>Begin Processed Spectral Data<<<<<
178.53	0.0000E00
178.91	0.0000E00
179.29	0.0000E00
179.67	0.0000E00
180.04	0.0000E00
180.42	0.0000E00
180.80	0.0000E00
181.18	0.0000E00
181.56	0.0000E00
181.94	0.0000E00
182.31	0.0000E00
182.69	0.0000E00
183.07	0.0000E00
183.45	0.0000E00
183.83	0.0000E00
184.20	0.0000E00
184.58	0.0000E00
184.96	0.0000E00
185.34	0.0000E00
185.72	0.0000E00
186.09	0.0000E00
186.47	0.0000E00
186.85	0.0000E00
187.23	0.0000E00
187.61	0.0000E00
187.98	0.0000E00
188.36	0.0000E00
188.74	0.0000E00
189.12	0.0000E00
189.49	0.0000E00
189.87	0.0000E00
190.25	0.0000E00
190.63	0.0000E00
191.00	0.0000E00
191.38	0.0000E00
191.76	0.0000E00
192.14	0.0000E00
192.51	0.0000E00
192.89	0.0000E00
193.27	0.0000E00
193.65	0.0000E00
194.02	0.0000E00
194.40	0.0000E00
194.78	0.0000E00
195.15	0.0000E00
195.53	0.0000E00
195.91	0.0000E00
196.29	0.0000E00
196.66	0.0000E00
197.04	0.0000E00
197.42	0.0000E00
197.79	0.0000E00
198.17	0.0000E00
198.55	0.0000E00
198.92	0.0000E00
199.30	0.0000E00
199.68	0.0000E00
200.05	0.0000E00
200.43	0.0000E00
200.81	0.0000E00
201.18	0.0000E00
201.56	0.0000E00
201.94	0.0000E00
202.31	0.0000E00
202.69	0.0000E00
203.07	0.0000E00
203.44	0.0000E00
203.82	0.0000E00
204.19	0.0000E00
204.57	0.0000E00
204.95	0.0000E00
205.32	0.0000E00
205.70	0.0000E00
206.08	-0.0000E00
206.45	0.0000E00
206.83	0.0000E00
207.20	0.0000E00
207.58	0.0000E00
207.96	0.0000E00
208.33	0.0000E00
208.71	0.0000E00
209.08	0.0000E00
209.46	0.0000E00
209.84	-0.0000E00
210.21	0.0000E00
210.59	0.0000E00
210.96	0.0000E00
211.34	0.0000E00
211.71	0.0000E00
212.09	0.0000E00
212.46	0.0000E00
212.84	0.0000E00
213.22	0.0000E00
213.59	0.0000E00
213.97	0.0000E00
214.34	0.0000E00
214.72	0.0000E00
215.09	0.0000E00
215.47	0.0000E00
215.84	0.0000E00
216.22	0.0000E00
216.59	0.0000E00
216.97	0.0000E00
217.34	0.0000E00
217.72	0.0000E00
218.09	0.0000E00
218.47	0.0000E00
218.84	0.0000E00
219.22	0.0000E00
219.59	0.0000E00
219.97	0.0000E00
220.34	0.0000E00
220.72	0.0000E00
221.09	0.0000E00
221.47	0.0000E00
221.84	0.0000E00
222.22	0.0000E00
222.59	0.0000E00
222.97	0.0000E00
223.34	0.0000E00
223.72	0.0000E00
224.09	0.0000E00
224.46	0.0000E00
224.84	0.0000E00
225.21	0.0000E00
225.59	0.0000E00
225.96	0.0000E00
226.34	0.0000E00
226.71	0.0000E00
227.08	0.0000E00
227.46	0.0000E00
227.83	0.0000E00
228.21	0.0000E00
228.58	0.0000E00
228.95	0.0000E00
229.33	0.0000E00
229.70	0.0000E00
230.08	0.0000E00
230.45	0.0000E00
230.82	0.0000E00
231.20	0.0000E00
231.57	0.0000E00
231.95	0.0000E00
232.32	0.0000E00
232.69	0.0000E00
233.07	0.0000E00
233.44	0.0000E00
233.81	0.0000E00
234.19	0.0000E00
234.56	0.0000E00
234.93	0.0000E00
235.31	0.0000E00
235.68	0.0000E00
236.05	0.0000E00
236.43	0.0000E00
236.80	0.0000E00
237.17	0.0000E00
237.55	0.0000E00
237.92	0.0000E00
238.29	0.0000E00
238.67	0.0000E00
239.04	0.0000E00
239.41	0.0000E00
239.79	0.0000E00
240.16	0.0000E00
240.53	0.0000E00
240.91	0.0000E00
241.28	0.0000E00
241.65	0.0000E00
242.02	0.0000E00
242.40	0.0000E00
242.77	0.0000E00
243.14	0.0000E00
243.51	0.0000E00
243.89	0.0000E00
244.26	0.0000E00
244.63	0.0000E00
245.00	0.0000E00
245.38	0.0000E00
245.75	0.0000E00
246.12	0.0000E00
246.49	0.0000E00
246.87	0.0000E00
247.24	0.0000E00
247.61	0.0000E00
247.98	0.0000E00
248.36	0.0000E00
248.73	0.0000E00
249.10	0.0000E00
249.47	0.0000E00
249.84	0.0000E00
250.22	0.0000E00
250.59	0.0000E00
250.96	0.0000E00
251.33	0.0000E00
251.70	0.0000E00
252.08	0.0000E00
252.45	0.0000E00
252.82	0.0000E00
253.19	0.0000E00
253.56	0.0000E00
253.94	0.0000E00
254.31	0.0000E00
254.68	0.0000E00
255.05	0.0000E00
255.42	0.0000E00
255.79	0.0000E00
256.16	0.0000E00
256.54	0.0000E00
256.91	0.0000E00
257.28	0.0000E00
257.65	0.0000E00
258.02	0.0000E00
258.39	0.0000E00
258.76	0.0000E00
259.14	0.0000E00
259.51	0.0000E00
259.88	0.0000E00
260.25	0.0000E00
260.62	0.0000E00
260.99	0.0000E00
261.36	0.0000E00
261.73	0.0000E00
262.10	0.0000E00
262.47	0.0000E00
262.85	0.0000E00
263.22	0.0000E00
263.59	0.0000E00
263.96	0.0000E00
264.33	0.0000E00
264.70	0.0000E00
265.07	0.0000E00
265.44	0.0000E00
265.81	0.0000E00
266.18	0.0000E00
266.55	0.0000E00
266.92	0.0000E00
267.29	0.0000E00
267.66	-0.0000E00
268.03	0.0000E00
268.40	0.0000E00
268.77	0.0000E00
269.14	0.0000E00
269.51	0.0000E00
269.88	0.0000E00
270.25	0.0000E00
270.62	0.0000E00
270.99	0.0000E00
271.36	0.0000E00
271.73	0.0000E00
272.10	0.0000E00
272.47	0.0000E00
272.84	0.0000E00
273.21	0.0000E00
273.58	0.0000E00
273.95	0.0000E00
274.32	0.0000E00
274.69	0.0000E00
275.06	0.0000E00
275.43	0.0000E00
275.80	0.0000E00
276.17	0.0000E00
276.54	0.0000E00
276.91	0.0000E00
277.28	0.0000E00
277.65	0.0000E00
278.02	0.0000E00
278.39	0.0000E00
278.76	0.0000E00
279.13	0.0000E00
279.50	0.0000E00
279.87	0.0000E00
280.23	0.0000E00
280.60	0.0000E00
280.97	0.0000E00
281.34	0.0000E00
281.71	0.0000E00
282.08	0.0000E00
282.45	0.0000E00
282.82	0.0000E00
283.19	0.0000E00
283.56	0.0000E00
283.92	0.0000E00
284.29	0.0000E00
284.66	0.0000E00
285.03	0.0000E00
285.40	0.0000E00
285.77	0.0000E00
286.14	0.0000E00
286.51	0.0000E00
286.87	0.0000E00
287.24	0.0000E00
287.61	0.0000E00
287.98	0.0000E00
288.35	0.0000E00
288.72	0.0000E00
289.08	0.0000E00
289.45	0.0000E00
289.82	0.0000E00
290.19	0.0000E00
290.56	0.0000E00
290.93	0.0000E00
291.29	0.0000E00
291.66	0.0000E00
292.03	0.0000E00
292.40	0.0000E00
292.77	0.0000E00
293.13	0.0000E00
293.50	0.0000E00
293.87	0.0000E00
294.24	0.0000E00
294.60	0.0000E00
294.97	0.0000E00
295.34	0.0000E00
295.71	0.0000E00
296.08	0.0000E00
296.44	0.0000E00
296.81	0.0000E00
297.18	0.0000E00
297.55	0.0000E00
297.91	0.0000E00
298.28	0.0000E00
298.65	0.0000E00
299.02	0.0000E00
299.38	0.0000E00
299.75	0.0000E00
300.12	6.8308E-02
300.48	1.0312E-01
300.85	6.7223E-02
301.22	1.3656E-01
301.59	8.4450E-02
301.95	9.5463E-02
302.32	6.7990E-02
302.69	7.7065E-02
303.05	7.2372E-02
303.42	1.1901E-01
303.79	1.1132E-01
304.15	7.9702E-02
304.52	8.7763E-02
304.89	9.7949E-02
305.25	5.9801E-02
305.62	7.0023E-02
305.99	9.1174E-02
306.35	6.5890E-02
306.72	8.2875E-02
307.09	1.4456E-01
307.45	1.1657E-01
307.82	1.1304E-01
308.19	4.1543E-01
308.55	8.6151E-02
308.92	8.3208E-02
309.29	7.0495E-02
309.65	1.5925E-01
310.02	1.2148E-01
310.38	8.0583E-02
310.75	6.2176E-02
311.12	9.3607E-02
311.48	7.4147E-02
311.85	1.2462E-01
312.22	9.2972E-02
312.58	1.2872E-01
312.95	5.9843E-02
313.31	6.7126E-02
313.68	9.2170E-02
314.05	8.3081E-02
314.41	9.5778E-02
314.78	8.5309E-02
315.14	4.6272E-01
315.51	8.9034E-02
315.87	6.4126E-02
316.24	1.5010E-01
316.61	9.0069E-02
316.97	8.8803E-02
317.34	1.1529E-01
317.70	7.0917E-02
318.07	9.2089E-02
318.43	9.3880E-02
318.80	1.3542E-01
319.16	8.6420E-02
319.53	2.2664E00
319.89	1.2857E-01
320.26	1.0699E-01
320.62	1.2198E-01
320.99	1.0245E-01
321.35	1.1209E-01
321.72	1.8557E-01
322.08	9.1433E-02
322.45	3.1482E-01
322.81	1.2232E-01
323.18	9.2707E-02
323.54	8.3614E-02
323.91	1.5981E-01
324.27	1.2665E-01
324.64	4.0481E-01
325.00	1.0492E-01
325.37	3.2082E-01
325.73	8.6502E-02
326.10	3.8436E-01
326.46	9.2028E-02
326.83	1.0923E-01
327.19	9.7239E-02
327.56	1.0488E-01
327.92	1.5967E-01
328.29	1.9922E-01
328.65	1.5703E-01
329.01	2.3997E-01
329.38	1.0492E-01
329.74	9.8264E-02
330.11	1.5171E-01
330.47	1.5636E-01
330.84	1.1501E-01
331.20	1.0985E-01
331.56	1.3169E-01
331.93	1.0651E-01
332.29	1.6008E-01
332.66	1.3632E-01
333.02	9.3106E-02
333.38	1.0256E-01
333.75	1.2437E-01
334.11	2.3150E-01
334.48	1.5827E-01
334.84	1.3095E-01
335.20	1.0270E-01
335.57	1.2027E-01
335.93	1.7223E-01
336.29	1.5729E-01
336.66	1.2247E-01
337.02	1.9696E-01
337.38	1.1549E-01
337.75	1.0681E-01
338.11	7.8019E-02
338.47	1.4614E-01
338.84	1.9467E-01
339.20	3.3424E-01
339.56	1.2430E-01
339.93	2.1622E-01
340.29	1.2333E-01
340.65	1.1786E-01
341.02	1.2604E-01
341.38	1.1876E-01
341.74	1.1625E-01
342.11	1.2170E-01
342.47	1.6291E-01
342.83	2.9070E-01
343.20	1.0570E-01
343.56	1.8629E-01
343.92	2.2738E-01
344.28	1.3563E-01
344.65	1.2881E-01
345.01	1.5130E-01
345.37	1.1710E-01
345.73	1.3480E-01
346.10	1.6726E-01
346.46	1.6184E-01
346.82	1.0060E-01
347.19	2.2616E-01
347.55	1.1827E-01
347.91	2.3785E-01
348.27	1.5211E-01
348.63	1.2565E-01
349.00	1.3843E-01
349.36	1.1463E-01
349.72	1.4372E-01
350.08	1.9006E-01
350.45	2.0689E-01
350.81	1.7958E-01
351.17	1.5212E-01
351.53	1.9734E-01
351.89	1.9268E-01
352.26	1.8752E-01
352.62	1.7908E-01
352.98	1.0662E-01
353.34	1.9401E-01
353.70	1.5258E-01
354.07	1.7585E-01
354.43	2.7356E-01
354.79	1.4214E-01
355.15	1.3529E-01
355.51	1.5390E-01
355.87	1.0683E-01
356.24	1.4647E-01
356.60	1.7158E-01
356.96	1.5798E-01
357.32	1.5858E-01
357.68	1.1771E-01
358.04	1.2875E-01
358.40	1.2767E-01
358.77	1.0726E-01
359.13	1.4683E-01
359.49	1.4969E-01
359.85	1.5846E-01
360.21	1.4595E-01
360.57	1.3693E-01
360.93	1.2833E-01
361.29	1.9040E-01
361.66	2.4549E-01
362.02	1.5677E-01
362.38	2.0179E-01
362.74	1.4004E-01
363.10	2.5852E-01
363.46	1.4999E-01
363.82	1.5278E-01
364.18	1.8632E-01
364.54	1.6584E-01
364.90	1.3063E-01
365.26	1.7911E-01
365.62	1.6848E-01
365.98	2.4790E-01
366.35	2.2452E-01
366.71	2.0023E-01
367.07	1.9510E-01
367.43	2.0377E-01
367.79	1.9529E-01
368.15	1.5100E-01
368.51	2.2776E-01
368.87	1.6335E-01
369.23	1.9033E-01
369.59	2.1859E-01
369.95	2.3142E-01
370.31	1.7443E-01
370.67	1.8827E-01
371.03	2.1356E-01
371.39	2.0465E-01
371.75	1.8496E-01
372.11	2.1965E-01
372.47	1.6557E-01
372.83	2.1524E-01
373.19	1.7854E-01
373.55	1.9188E-01
373.91	2.2169E-01
374.27	2.0842E-01
374.63	1.7223E-01
374.99	1.7454E-01
375.35	1.9988E-01
375.71	1.7245E-01
376.07	2.1095E-01
376.42	1.9012E-01
376.78	2.1537E-01
377.14	2.0246E-01
377.50	2.0473E-01
377.86	2.4388E-01
378.22	2.3183E-01
378.58	2.6171E-01
378.94	2.0789E-01
379.30	2.0359E-01
379.66	2.1702E-01
380.02	1.9931E-01
380.38	2.2273E-01
380.74	2.7786E-01
381.09	2.0823E-01
381.45	2.1765E-01
381.81	1.7902E-01
382.17	2.1892E-01
382.53	1.7985E-01
382.89	1.7508E-01
383.25	1.6882E-01
383.61	1.5662E-01
383.97	1.6523E-01
384.32	1.5767E-01
384.68	2.1307E-01
385.04	2.0434E-01
385.40	1.9170E-01
385.76	2.2831E-01
386.12	1.8789E-01
386.48	2.0053E-01
386.83	2.1569E-01
387.19	1.9891E-01
387.55	2.0684E-01
387.91	1.9273E-01
388.27	2.1165E-01
388.62	2.2219E-01
388.98	1.9617E-01
389.34	2.3469E-01
389.70	2.1927E-01
390.06	2.1902E-01
390.42	2.6663E-01
390.77	2.4465E-01
391.13	2.8845E-01
391.49	2.8106E-01
391.85	3.0089E-01
392.20	2.9019E-01
392.56	2.4589E-01
392.92	2.2134E-01
393.28	1.8945E-01
393.64	1.6860E-01
393.99	1.6573E-01
394.35	1.8337E-01
394.71	2.0049E-01
395.07	2.2180E-01
395.42	2.6118E-01
395.78	2.7663E-01
396.14	2.6740E-01
396.50	2.5583E-01
396.85	2.4605E-01
397.21	1.9507E-01
397.57	2.0111E-01
397.92	2.2814E-01
398.28	2.6386E-01
398.64	2.9329E-01
399.00	3.2361E-01
399.35	3.2235E-01
399.71	3.5744E-01
400.07	3.6317E-01
400.42	3.4456E-01
400.78	3.7214E-01
401.14	3.5161E-01
401.49	3.8581E-01
401.85	3.6954E-01
402.21	4.9332E-01
402.57	4.3566E-01
402.92	4.1993E-01
403.28	3.8322E-01
403.63	3.6980E-01
403.99	3.6564E-01
404.35	3.8499E-01
404.70	4.0682E-01
405.06	3.6803E-01
405.42	3.8759E-01
405.77	3.8036E-01
406.13	3.7373E-01
406.49	3.5319E-01
406.84	3.8443E-01
407.20	3.7218E-01
407.55	4.0232E-01
407.91	3.8375E-01
408.27	3.7396E-01
408.62	3.8901E-01
408.98	3.9318E-01
409.34	4.5936E-01
409.69	3.9816E-01
410.05	3.8752E-01
410.40	3.8208E-01
410.76	3.9384E-01
411.11	3.6510E-01
411.47	3.9959E-01
411.83	3.9682E-01
412.18	4.0479E-01
412.54	4.2975E-01
412.89	4.3283E-01
413.25	4.0810E-01
413.60	4.2134E-01
413.96	4.4064E-01
414.31	4.3233E-01
414.67	4.6707E-01
415.03	4.3802E-01
415.38	4.2801E-01
415.74	4.4649E-01
416.09	4.2543E-01
416.45	4.3710E-01
416.80	4.4054E-01
417.16	4.5102E-01
417.51	4.2260E-01
417.87	4.2863E-01
418.22	4.2722E-01
418.58	4.4157E-01
418.93	4.2123E-01
419.29	4.9857E-01
419.64	4.3725E-01
420.00	4.1534E-01
420.35	4.6338E-01
420.71	4.4342E-01
421.06	4.3197E-01
421.42	4.5590E-01
421.77	4.6962E-01
422.12	4.5242E-01
422.48	4.5128E-01
422.83	4.4496E-01
423.19	4.3844E-01
423.54	4.3285E-01
423.90	4.4426E-01
424.25	4.5230E-01
424.61	5.2325E-01
424.96	4.5966E-01
425.31	4.5844E-01
425.67	4.5859E-01
426.02	4.6645E-01
426.38	4.8105E-01
426.73	4.5421E-01
427.09	4.5297E-01
427.44	4.3160E-01
427.79	4.5185E-01
428.15	4.3246E-01
428.50	4.5746E-01
428.85	4.5467E-01
429.21	4.4398E-01
429.56	4.3923E-01
429.92	4.1551E-01
430.27	3.8905E-01
430.62	3.8049E-01
430.98	3.7316E-01
431.33	4.1526E-01
431.68	4.2424E-01
432.04	4.3688E-01
432.39	4.6334E-01
432.74	5.0108E-01
433.10	4.8025E-01
433.45	4.9410E-01
433.80	5.0402E-01
434.16	4.8243E-01
434.51	4.6236E-01
434.86	4.9405E-01
435.22	4.9326E-01
435.57	5.0855E-01
435.92	5.0250E-01
436.28	5.6179E-01
436.63	5.4057E-01
436.98	5.3478E-01
437.34	5.3534E-01
437.69	5.2607E-01
438.04	5.2465E-01
438.39	5.1728E-01
438.75	4.9510E-01
439.10	4.9137E-01
439.45	4.9941E-01
439.81	5.0440E-01
440.16	5.2193E-01
440.51	5.3802E-01
440.86	5.2339E-01
441.22	5.3655E-01
441.57	5.5648E-01
441.92	5.7500E-01
442.27	5.9181E-01
442.63	5.7752E-01
442.98	6.0831E-01
443.33	5.8313E-01
443.68	5.9033E-01
444.03	5.9067E-01
444.39	5.9389E-01
444.74	6.1220E-01
445.09	6.2109E-01
445.44	6.4367E-01
445.79	5.8161E-01
446.15	6.0997E-01
446.50	5.9561E-01
446.85	5.9842E-01
447.20	5.9775E-01
447.55	6.0383E-01
447.91	6.2714E-01
448.26	6.2617E-01
448.61	6.4459E-01
448.96	6.2589E-01
449.31	6.2347E-01
449.66	6.4832E-01
450.02	6.3118E-01
450.37	6.6679E-01
450.72	6.5465E-01
451.07	6.6769E-01
451.42	6.7201E-01
451.77	6.6446E-01
452.12	6.8656E-01
452.47	6.8514E-01
452.83	6.2649E-01
453.18	6.5357E-01
453.53	6.4198E-01
453.88	6.1928E-01
454.23	6.3332E-01
454.58	6.3497E-01
454.93	6.4835E-01
455.28	6.4283E-01
455.63	6.5345E-01
455.98	6.4769E-01
456.34	6.7250E-01
456.69	6.6876E-01
457.04	6.5733E-01
457.39	6.3597E-01
457.74	6.2648E-01
458.09	6.5111E-01
458.44	6.3267E-01
458.79	6.0451E-01
459.14	6.3185E-01
459.49	6.4880E-01
459.84	6.2530E-01
460.19	6.6060E-01
460.54	6.5026E-01
460.89	6.0224E-01
461.24	6.6293E-01
461.59	6.3469E-01
461.94	6.5426E-01
462.29	6.0078E-01
462.64	6.4955E-01
462.99	6.5554E-01
463.34	6.6009E-01
463.69	6.2662E-01
464.04	5.8965E-01
464.39	5.9996E-01
464.74	6.1704E-01
465.09	6.3804E-01
465.44	6.0022E-01
465.79	6.2564E-01
466.14	6.2845E-01
466.49	6.0750E-01
466.84	6.1415E-01
467.19	6.1808E-01
467.54	6.3973E-01
467.89	6.0239E-01
468.24	5.7652E-01
468.59	5.8391E-01
468.94	5.7683E-01
469.29	5.8018E-01
469.64	5.9108E-01
469.99	5.7980E-01
470.34	5.5611E-01
470.68	5.9494E-01
471.03	5.7508E-01
471.38	5.5880E-01
471.73	5.5980E-01
472.08	5.3898E-01
472.43	5.2305E-01
472.78	5.4355E-01
473.13	5.4597E-01
473.48	5.4368E-01
473.83	5.2297E-01
474.17	5.3189E-01
474.52	5.2993E-01
474.87	5.0504E-01
475.22	5.1392E-01
475.57	4.8847E-01
475.92	4.7135E-01
476.27	5.0645E-01
476.61	4.8011E-01
476.96	4.7059E-01
477.31	4.5258E-01
477.66	4.6015E-01
478.01	4.5644E-01
478.36	4.5705E-01
478.70	4.4205E-01
479.05	4.5210E-01
479.40	4.2933E-01
479.75	4.3289E-01
480.10	4.3308E-01
480.45	4.1872E-01
480.79	4.2414E-01
481.14	4.3281E-01
481.49	4.1596E-01
481.84	4.0579E-01
482.19	4.0284E-01
482.53	4.0642E-01
482.88	3.9974E-01
483.23	3.9201E-01
483.58	3.9132E-01
483.92	3.9938E-01
484.27	3.8191E-01
484.62	3.8309E-01
484.97	3.7256E-01
485.31	3.7265E-01
485.66	3.7827E-01
486.01	3.8102E-01
486.36	3.6438E-01
486.70	3.6745E-01
487.05	3.6661E-01
487.40	3.6406E-01
487.75	3.5601E-01
488.09	3.5955E-01
488.44	3.6175E-01
488.79	3.6166E-01
489.13	3.5595E-01
489.48	3.5878E-01
489.83	3.5724E-01
490.17	3.4696E-01
490.52	3.4707E-01
490.87	3.4823E-01
491.22	3.4853E-01
491.56	3.4877E-01
491.91	3.5435E-01
492.26	3.4822E-01
492.60	3.4835E-01
492.95	3.5170E-01
493.30	3.5028E-01
493.64	3.4465E-01
493.99	3.4813E-01
494.34	3.4781E-01
494.68	3.4129E-01
495.03	3.5212E-01
495.37	3.4420E-01
495.72	3.5281E-01
496.07	3.4432E-01
496.41	3.4342E-01
496.76	3.4316E-01
497.11	3.4802E-01
497.45	3.4537E-01
497.80	3.4655E-01
498.14	3.4427E-01
498.49	3.4362E-01
498.84	3.4536E-01
499.18	3.4014E-01
499.53	3.4338E-01
499.87	3.4454E-01
500.22	3.4706E-01
500.56	3.4661E-01
500.91	3.4453E-01
501.26	3.4495E-01
501.60	3.4225E-01
501.95	3.4328E-01
502.29	3.4280E-01
502.64	3.3965E-01
502.98	3.4580E-01
503.33	3.3900E-01
503.67	3.4233E-01
504.02	3.4147E-01
504.36	3.3899E-01
504.71	3.4404E-01
505.06	3.4280E-01
505.40	3.3835E-01
505.75	3.3921E-01
506.09	3.4113E-01
506.44	3.3853E-01
506.78	3.3778E-01
507.13	3.3862E-01
507.47	3.3650E-01
507.82	3.3520E-01
508.16	3.3729E-01
508.51	3.3456E-01
508.85	3.3218E-01
509.19	3.3158E-01
509.54	3.3542E-01
509.88	3.3781E-01
510.23	3.3249E-01
510.57	3.3274E-01
510.92	3.3328E-01
511.26	3.3030E-01
511.61	3.3172E-01
511.95	3.3001E-01
512.30	3.2793E-01
512.64	3.2862E-01
512.98	3.2843E-01
513.33	3.2766E-01
513.67	3.3133E-01
514.02	3.2951E-01
514.36	3.2627E-01
514.70	3.2968E-01
515.05	3.2327E-01
515.39	3.2586E-01
515.74	3.2402E-01
516.08	3.2656E-01
516.42	3.2284E-01
516.77	3.2376E-01
517.11	3.2358E-01
517.46	3.2292E-01
517.80	3.2405E-01
518.14	3.2362E-01
518.49	3.2054E-01
518.83	3.2418E-01
519.17	3.2682E-01
519.52	3.2207E-01
519.86	3.2109E-01
520.20	3.1977E-01
520.55	3.1923E-01
520.89	3.1936E-01
521.23	3.2034E-01
521.58	3.2283E-01
521.92	3.2209E-01
522.26	3.2582E-01
522.61	3.1903E-01
522.95	3.2201E-01
523.29	3.1922E-01
523.64	3.2202E-01
523.98	3.2206E-01
524.32	3.2177E-01
524.66	3.2108E-01
525.01	3.2232E-01
525.35	3.2319E-01
525.69	3.2560E-01
526.04	3.2580E-01
526.38	3.2122E-01
526.72	3.2702E-01
527.06	3.2539E-01
527.41	3.2799E-01
527.75	3.2753E-01
528.09	3.2555E-01
528.43	3.2915E-01
528.78	3.2704E-01
529.12	3.3219E-01
529.46	3.3152E-01
529.80	3.3324E-01
530.15	3.3348E-01
530.49	3.3562E-01
530.83	3.3523E-01
531.17	3.3506E-01
531.51	3.3805E-01
531.86	3.3732E-01
532.20	3.4293E-01
532.54	3.3837E-01
532.88	3.4159E-01
533.22	3.4420E-01
533.57	3.4582E-01
533.91	3.4404E-01
534.25	3.4597E-01
534.59	3.4665E-01
534.93	3.4324E-01
535.27	3.4713E-01
535.62	3.5143E-01
535.96	3.5165E-01
536.30	3.5008E-01
536.64	3.5485E-01
536.98	3.5633E-01
537.32	3.5470E-01
537.66	3.5377E-01
538.01	3.6116E-01
538.35	3.6065E-01
538.69	3.5679E-01
539.03	3.6362E-01
539.37	3.5964E-01
539.71	3.6478E-01
540.05	3.6092E-01
540.39	3.6440E-01
540.73	3.6656E-01
541.07	3.6612E-01
541.42	3.6690E-01
541.76	3.6740E-01
542.10	3.6867E-01
542.44	3.7119E-01
542.78	3.7106E-01
543.12	3.6825E-01
543.46	3.7629E-01
543.80	3.7127E-01
544.14	3.7039E-01
544.48	3.6936E-01
544.82	3.7409E-01
545.16	3.7183E-01
545.50	3.7390E-01
545.84	3.7999E-01
546.18	3.7313E-01
546.52	3.7825E-01
546.86	3.7816E-01
547.20	3.7965E-01
547.54	3.8500E-01
547.88	3.7931E-01
548.22	3.7913E-01
548.56	3.8212E-01
548.90	3.7898E-01
549.24	3.8139E-01
549.58	3.8431E-01
549.92	3.8226E-01
550.26	3.8651E-01
550.60	3.8434E-01
550.94	3.7917E-01
551.28	3.8720E-01
551.62	3.8211E-01
551.96	3.8618E-01
552.30	3.9037E-01
552.64	3.8896E-01
552.98	3.8656E-01
553.32	3.8563E-01
553.66	3.8533E-01
554.00	3.8484E-01
554.34	3.8799E-01
554.68	3.8979E-01
555.02	3.8684E-01
555.36	3.9130E-01
555.69	3.9007E-01
556.03	3.8822E-01
556.37	3.8803E-01
556.71	3.8737E-01
557.05	3.8856E-01
557.39	3.8923E-01
557.73	3.8979E-01
558.07	3.8971E-01
558.41	3.8609E-01
558.75	3.9034E-01
559.08	3.8870E-01
559.42	3.8409E-01
559.76	3.9176E-01
560.10	3.9108E-01
560.44	3.9229E-01
560.78	3.8792E-01
561.12	3.8801E-01
561.45	3.8954E-01
561.79	3.9148E-01
562.13	3.9110E-01
562.47	3.9092E-01
562.81	3.9335E-01
563.15	3.9318E-01
563.48	3.9125E-01
563.82	3.8477E-01
564.16	3.9247E-01
564.50	3.9025E-01
564.84	3.9360E-01
565.17	3.9185E-01
565.51	3.8792E-01
565.85	3.9268E-01
566.19	3.9002E-01
566.52	3.9477E-01
566.86	3.9003E-01
567.20	3.9293E-01
567.54	3.9503E-01
567.88	3.9346E-01
568.21	3.9717E-01
568.55	3.9529E-01
568.89	3.9309E-01
569.23	3.9334E-01
569.56	3.9341E-01
569.90	3.9656E-01
570.24	3.9856E-01
570.57	3.9872E-01
570.91	3.9726E-01
571.25	3.9624E-01
571.59	3.9528E-01
571.92	3.9634E-01
572.26	3.9860E-01
572.60	4.0062E-01
572.93	4.0064E-01
573.27	4.0303E-01
573.61	4.0410E-01
573.95	3.9925E-01
574.28	4.0448E-01
574.62	4.0406E-01
574.96	4.1026E-01
575.29	4.0780E-01
575.63	4.1244E-01
575.97	4.0943E-01
576.30	4.1660E-01
576.64	4.1178E-01
576.98	4.1501E-01
577.31	4.1355E-01
577.65	4.1799E-01
577.98	4.1628E-01
578.32	4.2086E-01
578.66	4.2340E-01
578.99	4.2077E-01
579.33	4.2726E-01
579.67	4.2401E-01
580.00	4.2832E-01
580.34	4.2475E-01
580.67	4.3004E-01
581.01	4.3097E-01
581.35	4.3265E-01
581.68	4.3456E-01
582.02	4.3535E-01
582.35	4.3665E-01
582.69	4.3486E-01
583.02	4.4318E-01
583.36	4.4152E-01
583.70	4.3908E-01
584.03	4.4301E-01
584.37	4.4107E-01
584.70	4.4957E-01
585.04	4.4720E-01
585.37	4.4484E-01
585.71	4.5339E-01
586.04	4.4847E-01
586.38	4.5192E-01
586.72	4.5663E-01
587.05	4.5506E-01
587.39	4.5899E-01
587.72	4.5471E-01
588.06	4.6288E-01
588.39	4.5947E-01
588.73	4.6251E-01
589.06	4.6231E-01
589.40	4.6724E-01
589.73	4.6768E-01
590.07	4.7081E-01
590.40	4.7149E-01
590.73	4.7703E-01
591.07	4.7007E-01
591.40	4.7811E-01
591.74	4.7554E-01
592.07	4.8043E-01
592.41	4.7968E-01
592.74	4.8027E-01
593.08	4.7652E-01
593.41	4.7886E-01
593.75	4.8140E-01
594.08	4.8308E-01
594.41	4.8361E-01
594.75	4.8710E-01
595.08	4.8424E-01
595.42	4.8062E-01
595.75	4.8372E-01
596.09	4.8801E-01
596.42	4.8761E-01
596.75	4.8858E-01
597.09	4.9372E-01
597.42	4.8695E-01
597.75	4.9210E-01
598.09	4.9161E-01
598.42	4.9525E-01
598.76	4.9534E-01
599.09	4.9614E-01
599.42	5.0087E-01
599.76	4.9704E-01
600.09	4.9960E-01
600.42	5.0025E-01
600.76	4.9064E-01
601.09	4.9747E-01
601.42	5.0594E-01
601.76	4.9796E-01
602.09	4.9947E-01
602.42	5.0233E-01
602.76	5.0220E-01
603.09	5.0072E-01
603.42	5.0305E-01
603.76	4.9852E-01
604.09	4.9980E-01
604.42	5.0380E-01
604.76	4.9993E-01
605.09	5.0699E-01
605.42	5.0441E-01
605.75	5.0610E-01
606.09	5.0857E-01
606.42	5.0547E-01
606.75	5.0721E-01
607.09	5.1068E-01
607.42	5.0536E-01
607.75	5.1019E-01
608.08	5.1202E-01
608.42	5.1200E-01
608.75	5.0923E-01
609.08	5.1326E-01
609.41	5.1379E-01
609.75	5.1460E-01
610.08	5.0831E-01
610.41	5.1337E-01
610.74	5.1506E-01
611.07	5.1598E-01
611.41	5.0950E-01
611.74	5.1550E-01
612.07	5.1425E-01
612.40	5.1183E-01
612.73	5.1330E-01
613.07	5.1860E-01
613.40	5.1377E-01
613.73	5.1141E-01
614.06	5.1552E-01
614.39	5.1688E-01
614.72	5.1958E-01
615.06	5.1831E-01
615.39	5.2650E-01
615.72	5.1705E-01
616.05	5.2789E-01
616.38	5.2449E-01
616.71	5.2720E-01
617.05	5.1733E-01
617.38	5.2239E-01
617.71	5.1856E-01
618.04	5.2682E-01
618.37	5.1756E-01
618.70	5.2115E-01
619.03	5.2287E-01
619.36	5.1640E-01
619.69	5.2394E-01
620.03	5.1967E-01
620.36	5.1942E-01
620.69	5.1936E-01
621.02	5.2344E-01
621.35	5.1770E-01
621.68	5.1112E-01
622.01	5.1660E-01
622.34	5.1937E-01
622.67	5.1841E-01
623.00	5.2188E-01
623.33	5.1872E-01
623.66	5.1982E-01
623.99	5.2365E-01
624.32	5.1626E-01
624.65	5.1804E-01
624.99	5.1878E-01
625.32	5.2134E-01
625.65	5.2055E-01
625.98	5.1213E-01
626.31	5.1814E-01
626.64	5.2163E-01
626.97	5.1710E-01
627.30	5.1565E-01
627.63	5.1954E-01
627.96	5.1476E-01
628.29	5.1200E-01
628.62	5.1895E-01
628.95	5.2010E-01
629.28	5.1186E-01
629.61	5.2368E-01
629.94	5.2024E-01
630.26	5.2248E-01
630.59	5.2306E-01
630.92	5.1822E-01
631.25	5.2014E-01
631.58	5.2625E-01
631.91	5.2573E-01
632.24	5.2957E-01
632.57	5.2769E-01
632.90	5.2551E-01
633.23	5.2637E-01
633.56	5.3017E-01
633.89	5.3042E-01
634.22	5.3168E-01
634.55	5.3445E-01
634.88	5.3873E-01
635.20	5.3958E-01
635.53	5.4268E-01
635.86	5.4283E-01
636.19	5.4872E-01
636.52	5.4857E-01
636.85	5.4895E-01
637.18	5.5498E-01
637.51	5.5197E-01
637.83	5.5867E-01
638.16	5.5467E-01
638.49	5.6381E-01
638.82	5.6306E-01
639.15	5.6528E-01
639.48	5.6786E-01
639.81	5.7595E-01
640.13	5.6949E-01
640.46	5.7670E-01
640.79	5.7552E-01
641.12	5.8443E-01
641.45	5.8105E-01
641.77	5.8260E-01
642.10	5.9111E-01
642.43	5.9164E-01
642.76	5.9654E-01
643.09	5.9101E-01
643.41	5.9780E-01
643.74	6.0036E-01
644.07	5.9646E-01
644.40	6.0276E-01
644.73	6.1093E-01
645.05	6.1190E-01
645.38	6.1357E-01
645.71	6.1700E-01
646.04	6.1892E-01
646.36	6.1549E-01
646.69	6.2876E-01
647.02	6.2019E-01
647.35	6.2511E-01
647.67	6.3344E-01
648.00	6.2873E-01
648.33	6.3959E-01
648.66	6.3118E-01
648.98	6.4206E-01
649.31	6.3682E-01
649.64	6.3935E-01
649.96	6.4805E-01
650.29	6.5119E-01
650.62	6.5249E-01
650.94	6.5574E-01
651.27	6.5327E-01
651.60	6.5486E-01
651.92	6.6476E-01
652.25	6.6374E-01
652.58	6.6396E-01
652.90	6.6907E-01
653.23	6.6693E-01
653.56	6.6926E-01
653.88	6.7506E-01
654.21	6.7426E-01
654.54	6.7941E-01
654.86	6.8617E-01
655.19	6.7850E-01
655.52	6.9107E-01
655.84	6.8343E-01
656.17	6.8696E-01
656.49	6.9600E-01
656.82	6.8394E-01
657.15	6.9772E-01
657.47	6.9725E-01
657.80	6.9905E-01
658.13	6.9977E-01
658.45	7.0341E-01
658.78	7.0852E-01
659.10	7.0992E-01
659.43	7.1168E-01
659.75	7.0838E-01
660.08	7.0534E-01
660.41	7.1595E-01
660.73	7.1823E-01
661.06	7.2131E-01
661.38	7.1937E-01
661.71	7.2064E-01
662.03	7.1512E-01
662.36	7.2766E-01
662.68	7.2808E-01
663.01	7.1950E-01
663.33	7.3167E-01
663.66	7.3204E-01
663.98	7.3741E-01
664.31	7.3049E-01
664.63	7.4586E-01
664.96	7.3446E-01
665.28	7.4269E-01
665.61	7.4105E-01
665.93	7.4091E-01
666.26	7.4524E-01
666.58	7.4842E-01
666.91	7.4387E-01
667.23	7.5157E-01
667.56	7.4853E-01
667.88	7.5033E-01
668.21	7.5930E-01
668.53	7.5181E-01
668.86	7.5743E-01
669.18	7.5611E-01
669.50	7.6759E-01
669.83	7.6478E-01
670.15	7.6625E-01
670.48	7.7106E-01
670.80	7.6708E-01
671.13	7.6390E-01
671.45	7.7227E-01
671.77	7.7554E-01
672.10	7.6966E-01
672.42	7.8405E-01
672.75	7.7669E-01
673.07	7.8545E-01
673.39	7.8049E-01
673.72	7.8478E-01
674.04	7.9088E-01
674.37	7.8655E-01
674.69	7.8243E-01
675.01	7.9829E-01
675.34	7.9597E-01
675.66	7.9879E-01
675.98	7.8710E-01
676.31	8.0160E-01
676.63	7.9807E-01
676.95	7.9758E-01
677.28	8.0563E-01
677.60	8.0772E-01
677.92	8.1232E-01
678.25	8.1363E-01
678.57	8.1442E-01
678.89	8.1090E-01
679.22	8.2221E-01
679.54	8.1489E-01
679.86	8.2696E-01
680.18	8.1765E-01
680.51	8.1865E-01
680.83	8.3825E-01
681.15	8.2526E-01
681.48	8.3466E-01
681.80	8.2896E-01
682.12	8.3085E-01
682.44	8.3966E-01
682.77	8.4391E-01
683.09	8.4955E-01
683.41	8.4795E-01
683.73	8.5468E-01
684.06	8.5079E-01
684.38	8.5069E-01
684.70	8.5830E-01
685.02	8.6369E-01
685.34	8.6581E-01
685.67	8.6216E-01
685.99	8.7628E-01
686.31	8.6675E-01
686.63	8.8269E-01
686.96	8.8523E-01
687.28	8.9225E-01
687.60	8.8082E-01
687.92	8.9160E-01
688.24	8.9863E-01
688.56	9.0833E-01
688.89	8.8984E-01
689.21	8.8842E-01
689.53	8.8923E-01
689.85	9.0186E-01
690.17	9.0130E-01
690.49	9.1935E-01
690.82	9.1583E-01
691.14	9.2171E-01
691.46	9.2364E-01
691.78	9.3439E-01
692.10	9.2777E-01
692.42	9.3947E-01
692.74	9.3951E-01
693.06	9.4481E-01
693.39	9.5554E-01
693.71	9.6878E-01
694.03	9.6285E-01
694.35	9.6145E-01
694.67	9.6351E-01
694.99	9.7752E-01
695.31	9.7600E-01
695.63	9.7968E-01
695.95	9.8043E-01
696.27	9.8465E-01
696.59	9.8724E-01
696.91	9.9611E-01
697.23	9.9922E-01
697.56	1.0034E00
697.88	1.0016E00
698.20	1.0097E00
698.52	1.0144E00
698.84	1.0279E00
699.16	1.0345E00
699.48	1.0235E00
699.80	1.0464E00
700.12	1.0363E00
700.44	1.0406E00
700.76	1.0488E00
701.08	1.0643E00
701.40	1.0634E00
701.72	1.0661E00
702.04	1.0738E00
702.36	1.0732E00
702.68	1.0846E00
703.00	1.0936E00
703.32	1.0890E00
703.64	1.1041E00
703.96	1.1012E00
704.28	1.1103E00
704.60	1.1174E00
704.91	1.1242E00
705.23	1.1247E00
705.55	1.1362E00
705.87	1.1381E00
706.19	1.1370E00
706.51	1.1497E00
706.83	1.1443E00
707.15	1.1728E00
707.47	1.1628E00
707.79	1.1777E00
708.11	1.1730E00
708.43	1.1817E00
708.74	1.1819E00
709.06	1.1934E00
709.38	1.2051E00
709.70	1.2031E00
710.02	1.2101E00
710.34	1.2054E00
710.66	1.2296E00
710.98	1.2262E00
711.29	1.2316E00
711.61	1.2516E00
711.93	1.2621E00
712.25	1.2496E00
712.57	1.2679E00
712.89	1.2735E00
713.20	1.2666E00
713.52	1.2854E00
713.84	1.2888E00
714.16	1.2804E00
714.48	1.2936E00
714.80	1.3121E00
715.11	1.3109E00
715.43	1.3254E00
715.75	1.3298E00
716.07	1.3337E00
716.39	1.3232E00
716.70	1.3345E00
717.02	1.3324E00
717.34	1.3609E00
717.66	1.3655E00
717.97	1.3807E00
718.29	1.3915E00
718.61	1.3964E00
718.93	1.4161E00
719.24	1.4116E00
719.56	1.3281E00
719.88	1.2174E00
720.20	1.2051E00
720.51	1.1512E00
720.83	1.1564E00
721.15	1.2454E00
721.46	1.3301E00
721.78	1.3940E00
722.10	1.4603E00
722.42	1.4768E00
722.73	1.4935E00
723.05	1.4694E00
723.37	1.4359E00
723.68	1.3859E00
724.00	1.2815E00
724.32	1.2402E00
724.63	1.2111E00
724.95	1.1895E00
725.27	1.1873E00
725.58	1.1808E00
725.90	1.1949E00
726.22	1.1662E00
726.53	1.1755E00
726.85	1.1860E00
727.16	1.2274E00
727.48	1.1957E00
727.80	1.1327E00
728.11	1.1092E00
728.43	1.1469E00
728.74	1.1943E00
729.06	1.1206E00
729.38	1.0863E00
729.69	1.0745E00
730.01	1.0884E00
730.32	1.0609E00
730.64	1.0555E00
730.96	1.0401E00
731.27	1.0277E00
731.59	1.0080E00
731.90	1.0277E00
732.22	1.0568E00
732.53	1.0651E00
732.85	1.0837E00
733.16	1.1103E00
733.48	1.0935E00
733.80	1.0959E00
734.11	1.1142E00
734.43	1.1086E00
734.74	1.1065E00
735.06	1.1071E00
735.37	1.0788E00
735.69	1.0852E00
736.00	1.0605E00
736.32	1.0292E00
736.63	1.1849E00
736.95	1.0290E00
737.26	1.0351E00
737.58	1.0230E00
737.89	1.0274E00
738.21	1.0532E00
738.52	1.0243E00
738.83	1.0226E00
739.15	1.0265E00
739.46	1.1266E00
739.78	1.0232E00
740.09	1.0402E00
740.41	1.0562E00
740.72	1.0750E00
741.04	1.0520E00
741.35	1.0627E00
741.66	1.0304E00
741.98	1.0564E00
742.29	1.0718E00
742.61	1.0779E00
742.92	1.0648E00
743.23	1.0794E00
743.55	1.1149E00
743.86	1.1050E00
744.18	1.0968E00
744.49	1.1197E00
744.80	1.1390E00
745.12	1.1210E00
745.43	1.1271E00
745.74	1.1176E00
746.06	1.1406E00
746.37	1.1489E00
746.68	1.1423E00
747.00	1.1381E00
747.31	1.1769E00
747.62	1.1313E00
747.94	1.1407E00
748.25	1.1514E00
748.56	1.1471E00
748.88	1.1533E00
749.19	1.1488E00
749.50	1.1523E00
749.82	1.1580E00
750.13	1.1383E00
750.44	1.1598E00
750.75	1.1435E00
751.07	1.1420E00
751.38	1.1466E00
751.69	1.1570E00
752.01	1.1444E00
752.32	1.1554E00
752.63	1.1835E00
752.94	1.1575E00
753.26	1.1648E00
753.57	1.1734E00
753.88	1.1946E00
754.19	1.2590E00
754.51	1.1676E00
754.82	1.2949E00
755.13	1.2052E00
755.44	1.1748E00
755.75	1.1897E00
756.07	1.1797E00
756.38	1.1788E00
756.69	1.2108E00
757.00	1.1733E00
757.31	1.1890E00
757.63	1.2061E00
757.94	1.1957E00
758.25	1.1650E00
758.56	1.1863E00
758.87	1.1918E00
759.18	1.1295E00
759.50	1.0179E00
759.81	9.0635E-01
760.12	6.4866E-01
760.43	5.1109E-01
760.74	4.3601E-01
761.05	3.8505E-01
761.36	4.2656E-01
761.67	5.2673E-01
761.99	5.6612E-01
762.30	6.2039E-01
762.61	6.1904E-01
762.92	5.9018E-01
763.23	5.9594E-01
763.54	5.7632E-01
763.85	5.9314E-01
764.16	6.0475E-01
764.47	7.8411E-01
764.78	6.7084E-01
765.10	7.9908E-01
765.41	7.5978E-01
765.72	9.0159E-01
766.03	8.4307E-01
766.34	8.7802E-01
766.65	9.3035E-01
766.96	1.0844E00
767.27	1.0283E00
767.58	1.0605E00
767.89	1.1172E00
768.20	1.1539E00
768.51	1.1442E00
768.82	1.1654E00
769.13	1.2111E00
769.44	1.1990E00
769.75	1.2363E00
770.06	1.2208E00
770.37	1.2231E00
770.68	1.2388E00
770.99	1.2426E00
771.30	1.2438E00
771.61	1.2584E00
771.92	1.2656E00
772.23	1.2988E00
772.54	1.2644E00
772.85	1.2779E00
773.16	1.2924E00
773.47	1.3058E00
773.78	1.3131E00
774.09	1.3345E00
774.39	1.3408E00
774.70	1.3173E00
775.01	1.3207E00
775.32	1.2949E00
775.63	1.3401E00
775.94	1.3193E00
776.25	1.3423E00
776.56	1.3413E00
776.87	1.3508E00
777.18	1.3398E00
777.48	1.3790E00
777.79	1.3432E00
778.10	1.3828E00
778.41	1.4010E00
778.72	1.3598E00
779.03	1.3692E00
779.34	1.4129E00
779.65	1.3916E00
779.95	1.4043E00
780.26	1.3870E00
780.57	1.4378E00
780.88	1.4058E00
781.19	1.4277E00
781.50	1.4253E00
781.80	1.4061E00
782.11	1.4209E00
782.42	1.4462E00
782.73	1.4432E00
783.04	1.4099E00
783.34	1.4576E00
783.65	1.4367E00
783.96	1.4560E00
784.27	1.4386E00
784.57	1.4625E00
784.88	1.4557E00
785.19	1.5268E00
785.50	1.4879E00
785.81	1.4674E00
786.11	1.4585E00
786.42	1.4907E00
786.73	1.4766E00
787.04	1.5240E00
787.34	1.4438E00
787.65	1.4381E00
787.96	1.4380E00
788.26	1.4509E00
788.57	1.4987E00
788.88	1.4301E00
789.19	1.4232E00
789.49	1.4633E00
789.80	1.5040E00
790.11	1.4606E00
790.41	1.4138E00
790.72	1.4895E00
791.03	1.4307E00
791.33	1.4386E00
791.64	1.4250E00
791.95	1.4837E00
792.25	1.5101E00
792.56	1.4812E00
792.87	1.5315E00
793.17	1.4891E00
793.48	1.5345E00
793.79	1.5462E00
794.09	1.6009E00
794.40	1.6013E00
794.70	1.5634E00
795.01	1.6689E00
795.32	1.5428E00
795.62	1.6302E00
795.93	1.5348E00
796.23	1.5632E00
796.54	1.5058E00
796.85	1.5305E00
797.15	1.5529E00
797.46	1.5628E00
797.76	1.5753E00
798.07	1.6636E00
798.37	1.6589E00
798.68	1.6280E00
798.99	1.6587E00
799.29	1.6315E00
799.60	1.6447E00
799.90	1.6115E00
800.21	1.5988E00
800.51	1.5938E00
800.82	1.6834E00
801.12	1.6618E00
801.43	1.6376E00
801.73	1.6171E00
802.04	1.5996E00
802.34	1.6142E00
802.65	1.6620E00
802.95	1.6197E00
803.26	1.6685E00
803.56	1.6237E00
803.87	1.6267E00
804.17	1.6248E00
804.48	1.6217E00
804.78	1.6772E00
805.09	1.6833E00
805.39	1.6757E00
805.70	1.7379E00
806.00	1.7204E00
806.30	1.7314E00
806.61	1.6978E00
806.91	1.7013E00
807.22	1.7820E00
807.52	1.7745E00
807.83	1.7061E00
808.13	1.7901E00
808.43	1.7768E00
808.74	1.8302E00
809.04	1.7074E00
809.35	1.6776E00
809.65	1.7275E00
809.95	1.6596E00
810.26	1.6340E00
810.56	1.6190E00
810.86	1.6997E00
811.17	1.6147E00
811.47	1.6532E00
811.77	1.5977E00
812.08	1.5593E00
812.38	1.5226E00
812.69	1.5156E00
812.99	1.5528E00
813.29	1.4311E00
813.59	1.3979E00
813.90	1.4312E00
814.20	1.3919E00
814.50	1.3751E00
814.81	1.3412E00
815.11	1.3285E00
815.41	1.2037E00
815.72	1.2115E00
816.02	1.1792E00
816.32	1.1330E00
816.62	1.1064E00
816.93	1.1644E00
817.23	1.1311E00
817.53	1.1356E00
817.84	1.1505E00
818.14	1.1467E00
818.44	1.1579E00
818.74	1.2894E00
819.04	1.1684E00
819.35	1.1615E00
819.65	1.1466E00
819.95	1.1524E00
820.25	1.1977E00
820.56	1.2615E00
820.86	1.2909E00
821.16	1.3859E00
821.46	1.3297E00
821.76	1.3227E00
822.07	1.4825E00
822.37	1.3294E00
822.67	1.5142E00
822.97	1.3742E00
823.27	1.1292E00
823.57	1.0665E00
823.88	1.0674E00
824.18	1.1054E00
824.48	1.0935E00
824.78	1.1181E00
825.08	1.2680E00
825.38	1.3167E00
825.69	1.2153E00
825.99	1.1804E00
826.29	1.2184E00
826.59	1.2323E00
826.89	1.2196E00
827.19	1.4226E00
827.49	1.2081E00
827.79	1.1451E00
828.09	1.1110E00
828.39	1.1018E00
828.70	1.0762E00
829.00	1.1494E00
829.30	1.0511E00
829.60	9.9932E-01
829.90	1.1093E00
830.20	1.0319E00
830.50	9.9555E-01
830.80	1.1030E00
831.10	9.9306E-01
831.40	1.0836E00
831.70	1.0783E00
832.00	1.0646E00
832.30	9.6313E-01
832.60	9.7268E-01
832.90	9.5711E-01
833.20	9.6448E-01
833.50	9.2782E-01
833.80	9.4751E-01
834.10	9.1218E-01
834.40	1.0624E00
834.70	9.9807E-01
835.00	9.6226E-01
835.30	9.5093E-01
835.60	9.4367E-01
835.90	9.2949E-01
836.20	9.6253E-01
836.50	9.4887E-01
836.80	1.1386E00
837.10	1.6194E00
837.40	1.0438E00
837.70	1.1450E00
838.00	9.6633E-01
838.30	1.0453E00
838.60	1.0792E00
838.90	1.0739E00
839.19	1.4190E00
839.49	9.8844E-01
839.79	1.0675E00
840.09	9.6009E-01
840.39	1.1186E00
840.69	1.0829E00
840.99	1.3065E00
841.29	1.1502E00
841.59	1.0102E00
841.88	9.8962E-01
842.18	1.1366E00
842.48	1.0073E00
842.78	9.9181E-01
843.08	1.0153E00
843.38	1.0119E00
843.68	1.2565E00
843.97	1.2475E00
844.27	1.1054E00
844.57	9.9342E-01
844.87	1.0358E00
845.17	1.0338E00
845.47	1.0387E00
845.76	1.1238E00
846.06	1.1418E00
846.36	1.7738E00
846.66	1.0313E00
846.96	1.1737E00
847.25	1.0365E00
847.55	1.0181E00
847.85	1.0609E00
848.15	1.0391E00
848.44	1.0464E00
848.74	1.0808E00
849.04	1.0405E00
849.34	1.1700E00
849.63	1.0411E00
849.93	1.0336E00
850.23	1.0078E00
850.53	1.0404E00
850.82	1.0811E00
851.12	1.0618E00
851.42	1.1478E00
851.71	1.1548E00
852.01	1.0787E00
852.31	1.0893E00
852.61	1.0405E00
852.90	1.0748E00
853.20	1.2378E00
853.50	1.5888E00
853.79	1.3189E00
854.09	1.0878E00
854.39	1.0440E00
854.68	1.0607E00
854.98	1.0290E00
855.28	1.2014E00
855.57	1.3671E00
855.87	1.2045E00
856.17	1.2201E00
856.46	1.0896E00
856.76	1.0475E00
857.05	1.2063E00
857.35	1.1185E00
857.65	1.4808E00
857.94	1.2931E00
858.24	1.3657E00
858.53	1.1467E00
858.83	1.8430E00
859.13	1.1303E00
859.42	1.2121E00
859.72	1.3647E00
860.01	1.1696E00
860.31	1.1811E00
860.60	1.1895E00
860.90	1.3655E00
861.20	1.2464E00
861.49	1.1999E00
861.79	1.2508E00
862.08	2.6929E00
862.38	1.6758E00
862.67	1.2482E00
862.97	1.2530E00
863.26	1.2199E00
863.56	1.4478E00
863.85	1.7394E00
864.15	1.2072E00
864.44	1.2209E00
864.74	1.2959E00
865.03	1.6560E00
865.33	1.4928E00
865.62	1.3085E00
865.92	1.3120E00
866.21	1.2714E00
866.51	1.2364E00
866.80	1.5738E00
867.10	1.8423E00
867.39	1.5020E00
867.69	1.7268E00
867.98	1.3111E00
868.27	1.2141E00
868.57	1.3397E00
868.86	1.5190E00
869.16	1.2856E00
869.45	1.3475E00
869.75	1.3666E00
870.04	1.3989E00
870.33	1.5780E00
870.63	1.3951E00
870.92	1.2840E00
871.22	2.8634E00
871.51	1.4780E00
871.80	1.6528E00
872.10	1.6528E00
>>>>>End Processed Spectral Data<<<<<
