SpectraSuite Data File
++++++++++++++++++++++++++++++++++++
Date: Wed May 13 13:40:34 PDT 2015
User: schluterlab
Dark Spectrum Present: Yes
Reference Spectrum Present: No
Number of Sampled Component Spectra: 1
Spectrometers: USB2E3373
Integration Time (usec): 2200000 (USB2E3373)
Spectra Averaged: 3 (USB2E3373)
Boxcar Smoothing: 0 (USB2E3373)
Correct for Electrical Dark: No (USB2E3373)
Strobe/Lamp Enabled: No (USB2E3373)
Correct for Detector Non-linearity: No (USB2E3373)
Correct for Stray Light: No (USB2E3373)
Number of Pixels in Processed Spectrum: 2048
>>>>>Begin Processed Spectral Data<<<<<
178.53	-0.0000E00
178.91	-0.0000E00
179.29	-0.0000E00
179.67	-0.0000E00
180.04	-0.0000E00
180.42	0.0000E00
180.80	0.0000E00
181.18	0.0000E00
181.56	0.0000E00
181.94	0.0000E00
182.31	0.0000E00
182.69	0.0000E00
183.07	0.0000E00
183.45	0.0000E00
183.83	0.0000E00
184.20	0.0000E00
184.58	0.0000E00
184.96	0.0000E00
185.34	0.0000E00
185.72	0.0000E00
186.09	0.0000E00
186.47	0.0000E00
186.85	0.0000E00
187.23	0.0000E00
187.61	0.0000E00
187.98	0.0000E00
188.36	0.0000E00
188.74	0.0000E00
189.12	0.0000E00
189.49	0.0000E00
189.87	0.0000E00
190.25	0.0000E00
190.63	0.0000E00
191.00	0.0000E00
191.38	0.0000E00
191.76	0.0000E00
192.14	0.0000E00
192.51	0.0000E00
192.89	0.0000E00
193.27	0.0000E00
193.65	0.0000E00
194.02	0.0000E00
194.40	0.0000E00
194.78	0.0000E00
195.15	0.0000E00
195.53	-0.0000E00
195.91	0.0000E00
196.29	0.0000E00
196.66	0.0000E00
197.04	0.0000E00
197.42	0.0000E00
197.79	0.0000E00
198.17	0.0000E00
198.55	0.0000E00
198.92	0.0000E00
199.30	0.0000E00
199.68	0.0000E00
200.05	0.0000E00
200.43	0.0000E00
200.81	0.0000E00
201.18	0.0000E00
201.56	0.0000E00
201.94	0.0000E00
202.31	-0.0000E00
202.69	0.0000E00
203.07	0.0000E00
203.44	0.0000E00
203.82	0.0000E00
204.19	0.0000E00
204.57	0.0000E00
204.95	0.0000E00
205.32	0.0000E00
205.70	0.0000E00
206.08	0.0000E00
206.45	0.0000E00
206.83	0.0000E00
207.20	0.0000E00
207.58	0.0000E00
207.96	0.0000E00
208.33	0.0000E00
208.71	0.0000E00
209.08	0.0000E00
209.46	0.0000E00
209.84	0.0000E00
210.21	0.0000E00
210.59	0.0000E00
210.96	0.0000E00
211.34	0.0000E00
211.71	0.0000E00
212.09	0.0000E00
212.46	0.0000E00
212.84	0.0000E00
213.22	0.0000E00
213.59	0.0000E00
213.97	0.0000E00
214.34	0.0000E00
214.72	0.0000E00
215.09	0.0000E00
215.47	0.0000E00
215.84	0.0000E00
216.22	0.0000E00
216.59	0.0000E00
216.97	0.0000E00
217.34	0.0000E00
217.72	0.0000E00
218.09	0.0000E00
218.47	0.0000E00
218.84	0.0000E00
219.22	0.0000E00
219.59	0.0000E00
219.97	0.0000E00
220.34	0.0000E00
220.72	0.0000E00
221.09	0.0000E00
221.47	0.0000E00
221.84	0.0000E00
222.22	0.0000E00
222.59	0.0000E00
222.97	0.0000E00
223.34	0.0000E00
223.72	0.0000E00
224.09	0.0000E00
224.46	0.0000E00
224.84	0.0000E00
225.21	0.0000E00
225.59	0.0000E00
225.96	0.0000E00
226.34	0.0000E00
226.71	0.0000E00
227.08	0.0000E00
227.46	0.0000E00
227.83	0.0000E00
228.21	0.0000E00
228.58	0.0000E00
228.95	0.0000E00
229.33	0.0000E00
229.70	0.0000E00
230.08	0.0000E00
230.45	0.0000E00
230.82	0.0000E00
231.20	0.0000E00
231.57	0.0000E00
231.95	0.0000E00
232.32	0.0000E00
232.69	0.0000E00
233.07	0.0000E00
233.44	0.0000E00
233.81	0.0000E00
234.19	0.0000E00
234.56	0.0000E00
234.93	0.0000E00
235.31	0.0000E00
235.68	0.0000E00
236.05	0.0000E00
236.43	0.0000E00
236.80	0.0000E00
237.17	0.0000E00
237.55	0.0000E00
237.92	0.0000E00
238.29	0.0000E00
238.67	0.0000E00
239.04	0.0000E00
239.41	0.0000E00
239.79	0.0000E00
240.16	0.0000E00
240.53	0.0000E00
240.91	0.0000E00
241.28	0.0000E00
241.65	0.0000E00
242.02	0.0000E00
242.40	0.0000E00
242.77	0.0000E00
243.14	0.0000E00
243.51	0.0000E00
243.89	0.0000E00
244.26	0.0000E00
244.63	0.0000E00
245.00	0.0000E00
245.38	0.0000E00
245.75	0.0000E00
246.12	0.0000E00
246.49	0.0000E00
246.87	0.0000E00
247.24	0.0000E00
247.61	0.0000E00
247.98	0.0000E00
248.36	0.0000E00
248.73	0.0000E00
249.10	0.0000E00
249.47	0.0000E00
249.84	0.0000E00
250.22	0.0000E00
250.59	0.0000E00
250.96	0.0000E00
251.33	0.0000E00
251.70	0.0000E00
252.08	0.0000E00
252.45	0.0000E00
252.82	0.0000E00
253.19	0.0000E00
253.56	0.0000E00
253.94	0.0000E00
254.31	0.0000E00
254.68	0.0000E00
255.05	0.0000E00
255.42	0.0000E00
255.79	0.0000E00
256.16	0.0000E00
256.54	0.0000E00
256.91	0.0000E00
257.28	0.0000E00
257.65	0.0000E00
258.02	0.0000E00
258.39	0.0000E00
258.76	0.0000E00
259.14	0.0000E00
259.51	0.0000E00
259.88	0.0000E00
260.25	0.0000E00
260.62	0.0000E00
260.99	0.0000E00
261.36	0.0000E00
261.73	0.0000E00
262.10	0.0000E00
262.47	0.0000E00
262.85	0.0000E00
263.22	0.0000E00
263.59	0.0000E00
263.96	0.0000E00
264.33	0.0000E00
264.70	0.0000E00
265.07	0.0000E00
265.44	0.0000E00
265.81	0.0000E00
266.18	0.0000E00
266.55	0.0000E00
266.92	0.0000E00
267.29	0.0000E00
267.66	0.0000E00
268.03	0.0000E00
268.40	0.0000E00
268.77	0.0000E00
269.14	0.0000E00
269.51	0.0000E00
269.88	0.0000E00
270.25	0.0000E00
270.62	0.0000E00
270.99	0.0000E00
271.36	0.0000E00
271.73	0.0000E00
272.10	0.0000E00
272.47	0.0000E00
272.84	0.0000E00
273.21	0.0000E00
273.58	0.0000E00
273.95	0.0000E00
274.32	0.0000E00
274.69	0.0000E00
275.06	0.0000E00
275.43	0.0000E00
275.80	0.0000E00
276.17	0.0000E00
276.54	0.0000E00
276.91	0.0000E00
277.28	0.0000E00
277.65	0.0000E00
278.02	0.0000E00
278.39	0.0000E00
278.76	0.0000E00
279.13	0.0000E00
279.50	0.0000E00
279.87	0.0000E00
280.23	0.0000E00
280.60	0.0000E00
280.97	0.0000E00
281.34	0.0000E00
281.71	0.0000E00
282.08	0.0000E00
282.45	0.0000E00
282.82	0.0000E00
283.19	0.0000E00
283.56	0.0000E00
283.92	0.0000E00
284.29	0.0000E00
284.66	0.0000E00
285.03	0.0000E00
285.40	0.0000E00
285.77	0.0000E00
286.14	0.0000E00
286.51	0.0000E00
286.87	0.0000E00
287.24	0.0000E00
287.61	0.0000E00
287.98	0.0000E00
288.35	0.0000E00
288.72	0.0000E00
289.08	0.0000E00
289.45	0.0000E00
289.82	0.0000E00
290.19	0.0000E00
290.56	0.0000E00
290.93	0.0000E00
291.29	0.0000E00
291.66	0.0000E00
292.03	0.0000E00
292.40	0.0000E00
292.77	0.0000E00
293.13	0.0000E00
293.50	0.0000E00
293.87	0.0000E00
294.24	0.0000E00
294.60	0.0000E00
294.97	0.0000E00
295.34	0.0000E00
295.71	0.0000E00
296.08	0.0000E00
296.44	0.0000E00
296.81	0.0000E00
297.18	0.0000E00
297.55	0.0000E00
297.91	0.0000E00
298.28	0.0000E00
298.65	0.0000E00
299.02	0.0000E00
299.38	0.0000E00
299.75	0.0000E00
300.12	8.7606E-02
300.48	2.3134E-01
300.85	9.0980E-02
301.22	2.4502E-01
301.59	7.8698E-02
301.95	9.1815E-02
302.32	1.2247E-01
302.69	1.2495E-01
303.05	7.8167E-02
303.42	1.0517E-01
303.79	1.2387E-01
304.15	8.1456E-02
304.52	8.2590E-02
304.89	8.0774E-02
305.25	1.6747E-01
305.62	9.9880E-02
305.99	1.2947E-01
306.35	7.3298E-02
306.72	9.7421E-02
307.09	1.0779E-01
307.45	9.8015E-02
307.82	6.6990E-02
308.19	8.4922E-02
308.55	9.1466E-02
308.92	1.1252E-01
309.29	8.8844E-02
309.65	1.7189E-01
310.02	8.6033E-02
310.38	8.2594E-02
310.75	1.1102E-01
311.12	1.0876E-01
311.48	1.8725E-01
311.85	1.3063E-01
312.22	9.6693E-02
312.58	2.0061E-01
312.95	1.2337E-01
313.31	1.1946E-01
313.68	1.5700E-01
314.05	2.5849E-01
314.41	1.4578E-01
314.78	9.0956E-02
315.14	2.1803E-01
315.51	3.0358E-01
315.87	1.3270E-01
316.24	1.9633E-01
316.61	1.8578E-01
316.97	1.2942E-01
317.34	2.3682E-01
317.70	1.7621E-01
318.07	1.8249E-01
318.43	2.1532E-01
318.80	1.5816E-01
319.16	2.0152E-01
319.53	1.4464E-01
319.89	2.9980E-01
320.26	2.3817E-01
320.62	2.8154E-01
320.99	2.6253E-01
321.35	1.4957E-01
321.72	2.1491E-01
322.08	3.0876E-01
322.45	2.2022E-01
322.81	2.0593E-01
323.18	6.8216E-01
323.54	3.4847E-01
323.91	2.6189E-01
324.27	5.5403E-01
324.64	4.3764E-01
325.00	3.4144E-01
325.37	5.5544E-01
325.73	2.1446E-01
326.10	8.2395E-01
326.46	3.8047E-01
326.83	3.4005E-01
327.19	7.1333E-01
327.56	2.8542E-01
327.92	4.0493E-01
328.29	3.1908E-01
328.65	3.9806E-01
329.01	5.0549E-01
329.38	3.4138E-01
329.74	3.0821E-01
330.11	4.7410E-01
330.47	3.1083E-01
330.84	4.2968E-01
331.20	4.2724E-01
331.56	3.9202E-01
331.93	4.5736E-01
332.29	4.4441E-01
332.66	3.0261E-01
333.02	3.6481E-01
333.38	5.5055E-01
333.75	2.6242E-01
334.11	4.9283E-01
334.48	4.0664E-01
334.84	3.8397E-01
335.20	4.7900E-01
335.57	8.9601E-01
335.93	5.9821E-01
336.29	4.5560E-01
336.66	4.2355E-01
337.02	3.2126E-01
337.38	3.5996E-01
337.75	3.7257E-01
338.11	3.2145E-01
338.47	4.6300E-01
338.84	3.9561E-01
339.20	3.3206E-01
339.56	9.9962E-01
339.93	3.6007E-01
340.29	4.0525E-01
340.65	4.3399E-01
341.02	7.4131E-01
341.38	4.9619E-01
341.74	5.4316E-01
342.11	5.4297E-01
342.47	5.5283E-01
342.83	3.4964E-01
343.20	7.0881E-01
343.56	4.3692E-01
343.92	6.6101E-01
344.28	3.7332E-01
344.65	5.7833E-01
345.01	3.5121E-01
345.37	5.8716E-01
345.73	5.6005E-01
346.10	4.7397E-01
346.46	5.8353E-01
346.82	4.4190E-01
347.19	1.0146E00
347.55	4.1706E-01
347.91	4.3125E-01
348.27	4.7219E-01
348.63	4.1316E-01
349.00	4.2811E-01
349.36	8.5594E-01
349.72	5.4348E-01
350.08	8.1508E-01
350.45	5.0091E-01
350.81	4.7503E-01
351.17	6.4239E-01
351.53	6.8023E-01
351.89	5.5197E-01
352.26	6.5161E-01
352.62	5.2545E-01
352.98	5.9296E-01
353.34	5.3489E-01
353.70	7.5412E-01
354.07	6.1111E-01
354.43	6.3289E-01
354.79	6.8049E-01
355.15	5.5072E-01
355.51	5.2352E-01
355.87	5.7805E-01
356.24	5.7718E-01
356.60	5.5252E-01
356.96	5.8800E-01
357.32	4.8544E-01
357.68	4.6357E-01
358.04	3.9867E-01
358.40	4.3032E-01
358.77	3.9655E-01
359.13	4.9233E-01
359.49	5.7621E-01
359.85	6.2222E-01
360.21	4.8981E-01
360.57	6.0137E-01
360.93	5.8689E-01
361.29	6.2914E-01
361.66	4.9486E-01
362.02	4.7630E-01
362.38	6.2406E-01
362.74	5.7882E-01
363.10	6.8029E-01
363.46	7.4437E-01
363.82	6.2720E-01
364.18	7.8067E-01
364.54	7.5087E-01
364.90	7.4228E-01
365.26	7.3450E-01
365.62	8.8220E-01
365.98	8.0430E-01
366.35	6.7101E-01
366.71	8.2854E-01
367.07	1.0583E00
367.43	6.7476E-01
367.79	9.6313E-01
368.15	8.5999E-01
368.51	1.0218E00
368.87	8.8934E-01
369.23	9.6203E-01
369.59	7.8041E-01
369.95	8.6898E-01
370.31	8.4229E-01
370.67	9.7107E-01
371.03	7.8888E-01
371.39	7.9184E-01
371.75	8.1352E-01
372.11	8.3625E-01
372.47	7.3868E-01
372.83	7.5350E-01
373.19	6.0226E-01
373.55	7.5824E-01
373.91	7.6396E-01
374.27	8.1935E-01
374.63	7.9483E-01
374.99	7.3016E-01
375.35	7.3326E-01
375.71	7.8449E-01
376.07	8.3142E-01
376.42	8.5008E-01
376.78	7.8337E-01
377.14	8.9313E-01
377.50	9.7507E-01
377.86	8.2838E-01
378.22	7.7609E-01
378.58	7.7482E-01
378.94	7.5112E-01
379.30	7.8946E-01
379.66	7.7799E-01
380.02	7.6085E-01
380.38	7.3998E-01
380.74	7.7425E-01
381.09	8.1323E-01
381.45	7.4983E-01
381.81	7.2577E-01
382.17	7.6491E-01
382.53	7.9579E-01
382.89	7.1423E-01
383.25	7.5277E-01
383.61	7.4680E-01
383.97	7.2706E-01
384.32	7.2560E-01
384.68	6.9200E-01
385.04	7.6730E-01
385.40	7.8841E-01
385.76	7.8094E-01
386.12	7.3284E-01
386.48	7.4457E-01
386.83	6.9486E-01
387.19	6.9323E-01
387.55	7.7576E-01
387.91	7.4939E-01
388.27	7.0039E-01
388.62	7.8784E-01
388.98	7.1460E-01
389.34	7.9178E-01
389.70	7.1956E-01
390.06	7.4214E-01
390.42	7.4867E-01
390.77	7.3037E-01
391.13	7.4515E-01
391.49	7.3129E-01
391.85	7.7137E-01
392.20	6.8133E-01
392.56	6.9051E-01
392.92	7.0036E-01
393.28	7.0317E-01
393.64	7.3653E-01
393.99	7.5244E-01
394.35	7.3888E-01
394.71	7.2860E-01
395.07	7.1279E-01
395.42	7.1539E-01
395.78	7.2895E-01
396.14	6.5736E-01
396.50	6.6051E-01
396.85	7.2572E-01
397.21	6.9912E-01
397.57	7.1842E-01
397.92	6.7200E-01
398.28	6.4982E-01
398.64	7.7195E-01
399.00	6.2281E-01
399.35	6.4802E-01
399.71	6.9533E-01
400.07	6.7804E-01
400.42	6.6294E-01
400.78	6.7970E-01
401.14	6.8190E-01
401.49	6.3226E-01
401.85	6.2832E-01
402.21	6.3799E-01
402.57	6.3475E-01
402.92	6.6922E-01
403.28	6.3646E-01
403.63	6.3344E-01
403.99	6.4790E-01
404.35	6.2900E-01
404.70	6.1758E-01
405.06	6.2689E-01
405.42	6.4086E-01
405.77	5.9606E-01
406.13	5.9572E-01
406.49	5.9143E-01
406.84	5.9868E-01
407.20	5.8425E-01
407.55	6.2964E-01
407.91	6.4191E-01
408.27	6.0126E-01
408.62	6.0506E-01
408.98	6.1214E-01
409.34	6.2298E-01
409.69	5.9570E-01
410.05	6.2770E-01
410.40	5.9915E-01
410.76	5.5461E-01
411.11	5.5985E-01
411.47	6.0683E-01
411.83	5.7506E-01
412.18	5.8639E-01
412.54	5.7461E-01
412.89	5.7091E-01
413.25	5.9247E-01
413.60	6.1789E-01
413.96	5.8000E-01
414.31	5.8320E-01
414.67	6.1570E-01
415.03	6.0381E-01
415.38	6.1836E-01
415.74	6.1137E-01
416.09	6.0687E-01
416.45	6.1543E-01
416.80	6.0395E-01
417.16	5.9842E-01
417.51	5.9526E-01
417.87	5.7316E-01
418.22	5.6618E-01
418.58	5.7841E-01
418.93	5.5355E-01
419.29	5.9363E-01
419.64	5.7658E-01
420.00	5.4478E-01
420.35	5.3520E-01
420.71	5.6122E-01
421.06	5.6350E-01
421.42	5.7797E-01
421.77	5.6973E-01
422.12	5.6870E-01
422.48	5.3845E-01
422.83	5.7545E-01
423.19	5.4363E-01
423.54	5.4358E-01
423.90	5.5063E-01
424.25	5.1954E-01
424.61	5.7339E-01
424.96	5.3640E-01
425.31	5.3327E-01
425.67	5.1118E-01
426.02	5.3417E-01
426.38	5.3343E-01
426.73	5.0569E-01
427.09	5.2912E-01
427.44	5.0691E-01
427.79	5.1279E-01
428.15	5.2856E-01
428.50	5.2499E-01
428.85	5.3783E-01
429.21	4.9601E-01
429.56	4.8521E-01
429.92	4.9440E-01
430.27	5.1138E-01
430.62	5.1078E-01
430.98	5.1720E-01
431.33	5.0532E-01
431.68	4.8824E-01
432.04	4.8482E-01
432.39	4.9203E-01
432.74	5.0977E-01
433.10	4.7803E-01
433.45	5.0610E-01
433.80	5.0388E-01
434.16	5.1474E-01
434.51	4.8988E-01
434.86	5.0992E-01
435.22	4.9172E-01
435.57	5.2553E-01
435.92	5.1481E-01
436.28	5.1270E-01
436.63	4.7565E-01
436.98	5.0838E-01
437.34	5.0468E-01
437.69	4.8021E-01
438.04	4.6701E-01
438.39	4.9966E-01
438.75	5.1128E-01
439.10	4.6185E-01
439.45	5.0139E-01
439.81	4.9618E-01
440.16	4.6660E-01
440.51	4.8768E-01
440.86	4.8565E-01
441.22	4.7477E-01
441.57	4.7936E-01
441.92	4.6581E-01
442.27	4.8821E-01
442.63	4.7794E-01
442.98	5.1084E-01
443.33	4.9986E-01
443.68	4.6470E-01
444.03	4.3857E-01
444.39	4.4100E-01
444.74	4.7857E-01
445.09	4.8537E-01
445.44	4.8679E-01
445.79	4.2940E-01
446.15	4.6139E-01
446.50	4.7676E-01
446.85	4.4882E-01
447.20	4.3653E-01
447.55	4.7243E-01
447.91	4.5441E-01
448.26	4.6588E-01
448.61	4.6117E-01
448.96	4.5174E-01
449.31	4.5845E-01
449.66	4.6293E-01
450.02	4.5619E-01
450.37	4.5693E-01
450.72	4.4989E-01
451.07	4.8562E-01
451.42	4.8299E-01
451.77	4.5597E-01
452.12	4.5516E-01
452.47	4.7628E-01
452.83	4.3774E-01
453.18	4.6351E-01
453.53	4.5812E-01
453.88	4.3149E-01
454.23	4.2614E-01
454.58	4.2631E-01
454.93	4.5746E-01
455.28	4.5469E-01
455.63	4.4139E-01
455.98	4.3123E-01
456.34	4.5442E-01
456.69	4.4096E-01
457.04	4.4411E-01
457.39	4.1656E-01
457.74	4.2545E-01
458.09	4.1423E-01
458.44	4.1348E-01
458.79	4.0453E-01
459.14	4.1808E-01
459.49	4.3555E-01
459.84	4.1082E-01
460.19	4.3730E-01
460.54	4.3436E-01
460.89	4.0063E-01
461.24	4.3845E-01
461.59	4.1953E-01
461.94	4.2513E-01
462.29	3.9729E-01
462.64	4.2019E-01
462.99	4.2451E-01
463.34	4.4880E-01
463.69	4.2066E-01
464.04	3.9261E-01
464.39	4.0783E-01
464.74	4.1323E-01
465.09	4.2473E-01
465.44	3.9989E-01
465.79	4.1262E-01
466.14	4.1438E-01
466.49	4.0807E-01
466.84	4.0400E-01
467.19	4.1798E-01
467.54	4.1912E-01
467.89	3.9892E-01
468.24	3.7785E-01
468.59	3.9078E-01
468.94	3.8265E-01
469.29	3.8453E-01
469.64	3.9738E-01
469.99	3.8310E-01
470.34	3.7076E-01
470.68	3.9440E-01
471.03	3.8095E-01
471.38	3.8194E-01
471.73	3.6419E-01
472.08	3.5941E-01
472.43	3.4701E-01
472.78	3.6642E-01
473.13	3.6226E-01
473.48	3.5632E-01
473.83	3.4974E-01
474.17	3.5457E-01
474.52	3.5086E-01
474.87	3.3648E-01
475.22	3.4354E-01
475.57	3.2695E-01
475.92	3.1844E-01
476.27	3.2800E-01
476.61	3.1934E-01
476.96	3.1134E-01
477.31	3.0176E-01
477.66	3.0726E-01
478.01	3.0562E-01
478.36	3.0400E-01
478.70	2.9967E-01
479.05	3.0433E-01
479.40	2.9051E-01
479.75	2.8704E-01
480.10	2.8914E-01
480.45	2.8223E-01
480.79	2.8095E-01
481.14	2.8491E-01
481.49	2.7798E-01
481.84	2.7326E-01
482.19	2.7138E-01
482.53	2.7068E-01
482.88	2.6848E-01
483.23	2.6385E-01
483.58	2.5834E-01
483.92	2.6492E-01
484.27	2.5654E-01
484.62	2.5491E-01
484.97	2.4951E-01
485.31	2.4821E-01
485.66	2.5365E-01
486.01	2.5352E-01
486.36	2.4149E-01
486.70	2.4789E-01
487.05	2.4630E-01
487.40	2.4679E-01
487.75	2.3945E-01
488.09	2.3977E-01
488.44	2.4177E-01
488.79	2.3818E-01
489.13	2.3554E-01
489.48	2.3840E-01
489.83	2.3875E-01
490.17	2.3237E-01
490.52	2.3223E-01
490.87	2.3333E-01
491.22	2.3680E-01
491.56	2.3321E-01
491.91	2.3608E-01
492.26	2.3350E-01
492.60	2.3385E-01
492.95	2.3574E-01
493.30	2.3537E-01
493.64	2.3251E-01
493.99	2.3380E-01
494.34	2.3087E-01
494.68	2.2841E-01
495.03	2.3391E-01
495.37	2.3196E-01
495.72	2.3432E-01
496.07	2.2937E-01
496.41	2.3082E-01
496.76	2.2922E-01
497.11	2.3124E-01
497.45	2.3042E-01
497.80	2.3090E-01
498.14	2.3073E-01
498.49	2.3091E-01
498.84	2.3164E-01
499.18	2.3106E-01
499.53	2.3105E-01
499.87	2.2892E-01
500.22	2.3148E-01
500.56	2.3121E-01
500.91	2.3101E-01
501.26	2.3053E-01
501.60	2.3017E-01
501.95	2.2826E-01
502.29	2.3121E-01
502.64	2.2698E-01
502.98	2.3059E-01
503.33	2.2864E-01
503.67	2.2920E-01
504.02	2.2883E-01
504.36	2.2850E-01
504.71	2.2913E-01
505.06	2.2680E-01
505.40	2.2699E-01
505.75	2.2841E-01
506.09	2.2859E-01
506.44	2.2827E-01
506.78	2.2598E-01
507.13	2.2737E-01
507.47	2.2558E-01
507.82	2.2551E-01
508.16	2.2761E-01
508.51	2.2541E-01
508.85	2.2271E-01
509.19	2.2561E-01
509.54	2.2520E-01
509.88	2.2549E-01
510.23	2.2222E-01
510.57	2.2298E-01
510.92	2.2253E-01
511.26	2.2283E-01
511.61	2.2253E-01
511.95	2.2280E-01
512.30	2.2149E-01
512.64	2.2305E-01
512.98	2.1923E-01
513.33	2.2059E-01
513.67	2.2134E-01
514.02	2.2062E-01
514.36	2.1863E-01
514.70	2.2012E-01
515.05	2.1748E-01
515.39	2.1932E-01
515.74	2.1717E-01
516.08	2.1597E-01
516.42	2.1791E-01
516.77	2.1842E-01
517.11	2.1833E-01
517.46	2.1943E-01
517.80	2.1654E-01
518.14	2.1807E-01
518.49	2.1586E-01
518.83	2.1678E-01
519.17	2.1681E-01
519.52	2.1721E-01
519.86	2.1605E-01
520.20	2.1517E-01
520.55	2.1592E-01
520.89	2.1454E-01
521.23	2.1645E-01
521.58	2.1606E-01
521.92	2.1794E-01
522.26	2.1902E-01
522.61	2.1559E-01
522.95	2.1712E-01
523.29	2.1410E-01
523.64	2.1434E-01
523.98	2.1534E-01
524.32	2.1604E-01
524.66	2.1776E-01
525.01	2.1778E-01
525.35	2.1831E-01
525.69	2.1897E-01
526.04	2.1836E-01
526.38	2.1530E-01
526.72	2.1974E-01
527.06	2.1831E-01
527.41	2.2014E-01
527.75	2.2196E-01
528.09	2.2010E-01
528.43	2.2370E-01
528.78	2.2114E-01
529.12	2.2356E-01
529.46	2.2508E-01
529.80	2.2434E-01
530.15	2.2482E-01
530.49	2.2494E-01
530.83	2.2606E-01
531.17	2.2618E-01
531.51	2.2530E-01
531.86	2.2724E-01
532.20	2.2845E-01
532.54	2.2779E-01
532.88	2.2939E-01
533.22	2.3112E-01
533.57	2.3230E-01
533.91	2.3159E-01
534.25	2.3368E-01
534.59	2.3265E-01
534.93	2.3459E-01
535.27	2.3351E-01
535.62	2.3780E-01
535.96	2.3710E-01
536.30	2.3745E-01
536.64	2.3793E-01
536.98	2.3997E-01
537.32	2.3904E-01
537.66	2.3907E-01
538.01	2.4149E-01
538.35	2.4370E-01
538.69	2.4064E-01
539.03	2.4638E-01
539.37	2.4386E-01
539.71	2.4570E-01
540.05	2.4625E-01
540.39	2.4696E-01
540.73	2.4611E-01
541.07	2.4669E-01
541.42	2.4718E-01
541.76	2.4743E-01
542.10	2.4880E-01
542.44	2.4971E-01
542.78	2.5013E-01
543.12	2.4937E-01
543.46	2.5475E-01
543.80	2.5174E-01
544.14	2.5171E-01
544.48	2.5057E-01
544.82	2.5343E-01
545.16	2.5352E-01
545.50	2.5237E-01
545.84	2.5486E-01
546.18	2.5311E-01
546.52	2.5614E-01
546.86	2.5387E-01
547.20	2.5715E-01
547.54	2.6015E-01
547.88	2.5580E-01
548.22	2.5645E-01
548.56	2.5794E-01
548.90	2.5580E-01
549.24	2.5806E-01
549.58	2.5883E-01
549.92	2.5705E-01
550.26	2.6145E-01
550.60	2.5780E-01
550.94	2.5665E-01
551.28	2.6008E-01
551.62	2.5811E-01
551.96	2.6080E-01
552.30	2.6206E-01
552.64	2.6069E-01
552.98	2.6093E-01
553.32	2.6139E-01
553.66	2.6003E-01
554.00	2.6069E-01
554.34	2.6143E-01
554.68	2.6222E-01
555.02	2.6256E-01
555.36	2.6373E-01
555.69	2.6237E-01
556.03	2.6239E-01
556.37	2.6375E-01
556.71	2.6117E-01
557.05	2.6082E-01
557.39	2.6154E-01
557.73	2.6195E-01
558.07	2.6420E-01
558.41	2.6270E-01
558.75	2.6310E-01
559.08	2.6310E-01
559.42	2.6082E-01
559.76	2.6478E-01
560.10	2.6463E-01
560.44	2.6447E-01
560.78	2.6202E-01
561.12	2.6352E-01
561.45	2.6310E-01
561.79	2.6437E-01
562.13	2.6430E-01
562.47	2.6445E-01
562.81	2.6471E-01
563.15	2.6465E-01
563.48	2.6519E-01
563.82	2.6210E-01
564.16	2.6429E-01
564.50	2.6431E-01
564.84	2.6495E-01
565.17	2.6514E-01
565.51	2.6466E-01
565.85	2.6666E-01
566.19	2.6338E-01
566.52	2.6704E-01
566.86	2.6413E-01
567.20	2.6683E-01
567.54	2.6566E-01
567.88	2.6596E-01
568.21	2.6593E-01
568.55	2.6733E-01
568.89	2.6761E-01
569.23	2.6734E-01
569.56	2.6674E-01
569.90	2.6807E-01
570.24	2.6955E-01
570.57	2.6958E-01
570.91	2.7004E-01
571.25	2.6627E-01
571.59	2.6950E-01
571.92	2.6930E-01
572.26	2.7053E-01
572.60	2.7279E-01
572.93	2.7140E-01
573.27	2.7362E-01
573.61	2.7412E-01
573.95	2.6987E-01
574.28	2.7448E-01
574.62	2.7495E-01
574.96	2.7502E-01
575.29	2.7426E-01
575.63	2.7874E-01
575.97	2.7814E-01
576.30	2.8449E-01
576.64	2.8086E-01
576.98	2.8046E-01
577.31	2.8190E-01
577.65	2.8460E-01
577.98	2.8266E-01
578.32	2.8488E-01
578.66	2.8670E-01
578.99	2.8684E-01
579.33	2.8803E-01
579.67	2.8647E-01
580.00	2.9002E-01
580.34	2.8957E-01
580.67	2.9085E-01
581.01	2.9324E-01
581.35	2.9435E-01
581.68	2.9547E-01
582.02	2.9438E-01
582.35	2.9677E-01
582.69	2.9688E-01
583.02	3.0122E-01
583.36	2.9806E-01
583.70	2.9772E-01
584.03	2.9999E-01
584.37	2.9824E-01
584.70	3.0443E-01
585.04	3.0432E-01
585.37	3.0274E-01
585.71	3.0755E-01
586.04	3.0669E-01
586.38	3.0435E-01
586.72	3.0845E-01
587.05	3.0999E-01
587.39	3.1164E-01
587.72	3.0922E-01
588.06	3.1172E-01
588.39	3.1112E-01
588.73	3.1439E-01
589.06	3.1208E-01
589.40	3.1708E-01
589.73	3.1867E-01
590.07	3.1927E-01
590.40	3.1957E-01
590.73	3.2355E-01
591.07	3.1991E-01
591.40	3.2676E-01
591.74	3.1983E-01
592.07	3.2396E-01
592.41	3.2578E-01
592.74	3.2680E-01
593.08	3.2453E-01
593.41	3.2678E-01
593.75	3.2429E-01
594.08	3.2931E-01
594.41	3.2796E-01
594.75	3.2913E-01
595.08	3.2868E-01
595.42	3.2482E-01
595.75	3.3065E-01
596.09	3.3048E-01
596.42	3.2907E-01
596.75	3.3306E-01
597.09	3.3462E-01
597.42	3.3114E-01
597.75	3.3488E-01
598.09	3.3593E-01
598.42	3.3338E-01
598.76	3.3505E-01
599.09	3.3963E-01
599.42	3.3941E-01
599.76	3.3751E-01
600.09	3.3676E-01
600.42	3.4215E-01
600.76	3.3542E-01
601.09	3.3973E-01
601.42	3.4297E-01
601.76	3.3865E-01
602.09	3.3786E-01
602.42	3.4044E-01
602.76	3.3892E-01
603.09	3.3845E-01
603.42	3.4455E-01
603.76	3.4036E-01
604.09	3.4064E-01
604.42	3.4335E-01
604.76	3.4051E-01
605.09	3.4574E-01
605.42	3.4243E-01
605.75	3.4394E-01
606.09	3.4212E-01
606.42	3.4352E-01
606.75	3.4532E-01
607.09	3.4569E-01
607.42	3.4623E-01
607.75	3.4664E-01
608.08	3.4554E-01
608.42	3.4819E-01
608.75	3.4454E-01
609.08	3.4846E-01
609.41	3.4802E-01
609.75	3.4619E-01
610.08	3.4815E-01
610.41	3.5007E-01
610.74	3.4920E-01
611.07	3.4945E-01
611.41	3.4884E-01
611.74	3.5002E-01
612.07	3.5205E-01
612.40	3.4695E-01
612.73	3.5062E-01
613.07	3.5253E-01
613.40	3.4855E-01
613.73	3.4758E-01
614.06	3.5054E-01
614.39	3.5203E-01
614.72	3.5346E-01
615.06	3.5278E-01
615.39	3.5724E-01
615.72	3.5111E-01
616.05	3.5447E-01
616.38	3.5510E-01
616.71	3.5620E-01
617.05	3.5406E-01
617.38	3.5627E-01
617.71	3.5416E-01
618.04	3.5571E-01
618.37	3.5365E-01
618.70	3.5478E-01
619.03	3.5628E-01
619.36	3.5059E-01
619.69	3.5808E-01
620.03	3.5415E-01
620.36	3.5484E-01
620.69	3.5338E-01
621.02	3.5629E-01
621.35	3.5543E-01
621.68	3.5198E-01
622.01	3.5109E-01
622.34	3.5273E-01
622.67	3.5191E-01
623.00	3.5368E-01
623.33	3.5428E-01
623.66	3.5170E-01
623.99	3.5271E-01
624.32	3.5145E-01
624.65	3.5259E-01
624.99	3.5209E-01
625.32	3.5342E-01
625.65	3.5325E-01
625.98	3.4780E-01
626.31	3.5270E-01
626.64	3.5338E-01
626.97	3.5370E-01
627.30	3.5083E-01
627.63	3.5288E-01
627.96	3.4977E-01
628.29	3.4926E-01
628.62	3.5323E-01
628.95	3.5307E-01
629.28	3.4748E-01
629.61	3.5826E-01
629.94	3.5333E-01
630.26	3.5387E-01
630.59	3.5599E-01
630.92	3.5397E-01
631.25	3.5542E-01
631.58	3.5950E-01
631.91	3.5449E-01
632.24	3.6172E-01
632.57	3.5803E-01
632.90	3.5854E-01
633.23	3.5926E-01
633.56	3.6134E-01
633.89	3.6192E-01
634.22	3.6286E-01
634.55	3.6416E-01
634.88	3.6830E-01
635.20	3.6717E-01
635.53	3.6996E-01
635.86	3.7013E-01
636.19	3.7410E-01
636.52	3.7520E-01
636.85	3.7242E-01
637.18	3.7692E-01
637.51	3.7395E-01
637.83	3.7812E-01
638.16	3.7431E-01
638.49	3.8557E-01
638.82	3.8352E-01
639.15	3.8656E-01
639.48	3.8976E-01
639.81	3.9123E-01
640.13	3.8796E-01
640.46	3.9389E-01
640.79	3.9328E-01
641.12	3.9715E-01
641.45	3.9660E-01
641.77	3.9374E-01
642.10	4.0340E-01
642.43	4.0406E-01
642.76	4.0649E-01
643.09	4.0383E-01
643.41	4.0704E-01
643.74	4.0711E-01
644.07	4.0702E-01
644.40	4.1086E-01
644.73	4.1477E-01
645.05	4.1689E-01
645.38	4.1920E-01
645.71	4.2039E-01
646.04	4.2041E-01
646.36	4.1972E-01
646.69	4.2621E-01
647.02	4.2651E-01
647.35	4.2402E-01
647.67	4.2939E-01
648.00	4.2839E-01
648.33	4.3332E-01
648.66	4.3085E-01
648.98	4.3658E-01
649.31	4.3555E-01
649.64	4.3742E-01
649.96	4.4166E-01
650.29	4.4399E-01
650.62	4.4469E-01
650.94	4.4386E-01
651.27	4.4369E-01
651.60	4.4478E-01
651.92	4.5236E-01
652.25	4.5296E-01
652.58	4.5228E-01
652.90	4.5438E-01
653.23	4.5458E-01
653.56	4.5639E-01
653.88	4.5807E-01
654.21	4.5810E-01
654.54	4.6029E-01
654.86	4.6601E-01
655.19	4.6097E-01
655.52	4.6785E-01
655.84	4.6682E-01
656.17	4.6911E-01
656.49	4.7422E-01
656.82	4.6890E-01
657.15	4.7414E-01
657.47	4.7386E-01
657.80	4.7443E-01
658.13	4.7620E-01
658.45	4.7903E-01
658.78	4.7773E-01
659.10	4.8448E-01
659.43	4.8339E-01
659.75	4.8224E-01
660.08	4.8024E-01
660.41	4.8672E-01
660.73	4.8675E-01
661.06	4.9024E-01
661.38	4.8915E-01
661.71	4.9077E-01
662.03	4.9094E-01
662.36	4.9718E-01
662.68	4.9562E-01
663.01	4.8947E-01
663.33	4.9456E-01
663.66	4.9823E-01
663.98	4.9530E-01
664.31	4.9568E-01
664.63	5.0547E-01
664.96	5.0227E-01
665.28	5.0593E-01
665.61	5.0494E-01
665.93	5.0561E-01
666.26	5.0849E-01
666.58	5.0947E-01
666.91	5.0563E-01
667.23	5.1165E-01
667.56	5.0542E-01
667.88	5.1342E-01
668.21	5.1241E-01
668.53	5.1071E-01
668.86	5.2068E-01
669.18	5.1296E-01
669.50	5.2462E-01
669.83	5.2302E-01
670.15	5.2449E-01
670.48	5.2295E-01
670.80	5.2126E-01
671.13	5.1883E-01
671.45	5.2504E-01
671.77	5.2829E-01
672.10	5.2399E-01
672.42	5.3163E-01
672.75	5.2892E-01
673.07	5.3343E-01
673.39	5.2812E-01
673.72	5.3195E-01
674.04	5.3596E-01
674.37	5.3903E-01
674.69	5.3560E-01
675.01	5.4037E-01
675.34	5.4154E-01
675.66	5.4314E-01
675.98	5.3737E-01
676.31	5.4636E-01
676.63	5.4818E-01
676.95	5.4509E-01
677.28	5.4860E-01
677.60	5.4945E-01
677.92	5.4739E-01
678.25	5.5333E-01
678.57	5.5389E-01
678.89	5.5220E-01
679.22	5.6083E-01
679.54	5.5841E-01
679.86	5.5908E-01
680.18	5.6019E-01
680.51	5.6194E-01
680.83	5.6718E-01
681.15	5.6192E-01
681.48	5.6557E-01
681.80	5.6922E-01
682.12	5.6624E-01
682.44	5.7528E-01
682.77	5.7584E-01
683.09	5.7940E-01
683.41	5.7639E-01
683.73	5.8196E-01
684.06	5.8123E-01
684.38	5.8273E-01
684.70	5.8165E-01
685.02	5.8742E-01
685.34	5.9353E-01
685.67	5.8801E-01
685.99	5.9602E-01
686.31	5.9094E-01
686.63	6.0093E-01
686.96	5.9785E-01
687.28	6.0470E-01
687.60	5.9667E-01
687.92	6.0253E-01
688.24	6.0874E-01
688.56	6.1070E-01
688.89	6.1238E-01
689.21	6.0993E-01
689.53	6.1201E-01
689.85	6.2195E-01
690.17	6.1749E-01
690.49	6.2645E-01
690.82	6.2688E-01
691.14	6.2652E-01
691.46	6.3041E-01
691.78	6.3476E-01
692.10	6.2791E-01
692.42	6.3425E-01
692.74	6.3994E-01
693.06	6.4044E-01
693.39	6.5154E-01
693.71	6.5185E-01
694.03	6.5234E-01
694.35	6.5464E-01
694.67	6.5612E-01
694.99	6.6245E-01
695.31	6.6502E-01
695.63	6.6378E-01
695.95	6.7002E-01
696.27	6.6801E-01
696.59	6.7451E-01
696.91	6.8343E-01
697.23	6.8231E-01
697.56	6.8100E-01
697.88	6.8820E-01
698.20	6.8735E-01
698.52	6.9404E-01
698.84	6.9857E-01
699.16	7.0399E-01
699.48	6.9729E-01
699.80	7.0629E-01
700.12	7.1284E-01
700.44	7.1424E-01
700.76	7.1567E-01
701.08	7.2002E-01
701.40	7.2347E-01
701.72	7.3101E-01
702.04	7.3064E-01
702.36	7.3627E-01
702.68	7.3911E-01
703.00	7.4484E-01
703.32	7.4891E-01
703.64	7.4976E-01
703.96	7.4263E-01
704.28	7.5332E-01
704.60	7.6241E-01
704.91	7.6479E-01
705.23	7.6616E-01
705.55	7.7443E-01
705.87	7.6898E-01
706.19	7.7177E-01
706.51	7.7686E-01
706.83	7.8061E-01
707.15	8.0088E-01
707.47	7.8356E-01
707.79	7.9876E-01
708.11	8.0077E-01
708.43	8.0462E-01
708.74	8.1134E-01
709.06	8.2361E-01
709.38	8.1727E-01
709.70	8.1229E-01
710.02	8.2388E-01
710.34	8.2087E-01
710.66	8.4164E-01
710.98	8.3744E-01
711.29	8.3609E-01
711.61	8.5112E-01
711.93	8.5576E-01
712.25	8.4882E-01
712.57	8.6086E-01
712.89	8.6448E-01
713.20	8.6457E-01
713.52	8.7325E-01
713.84	8.8127E-01
714.16	8.7418E-01
714.48	8.7721E-01
714.80	8.9122E-01
715.11	8.8890E-01
715.43	9.0162E-01
715.75	9.0687E-01
716.07	9.1613E-01
716.39	8.9939E-01
716.70	9.1059E-01
717.02	9.0561E-01
717.34	9.3309E-01
717.66	9.2410E-01
717.97	9.3450E-01
718.29	9.4039E-01
718.61	9.5212E-01
718.93	9.5178E-01
719.24	9.5483E-01
719.56	9.7605E-01
719.88	9.6576E-01
720.20	9.7928E-01
720.51	9.9224E-01
720.83	9.8710E-01
721.15	1.0080E00
721.46	1.0038E00
721.78	1.0099E00
722.10	1.0249E00
722.42	1.0339E00
722.73	1.0410E00
723.05	1.0282E00
723.37	1.0424E00
723.68	1.0531E00
724.00	1.0533E00
724.32	1.0715E00
724.63	1.0684E00
724.95	1.0636E00
725.27	1.0747E00
725.58	1.0810E00
725.90	1.0811E00
726.22	1.0985E00
726.53	1.0759E00
726.85	1.0912E00
727.16	1.1135E00
727.48	1.0954E00
727.80	1.1075E00
728.11	1.1122E00
728.43	1.1087E00
728.74	1.1024E00
729.06	1.1250E00
729.38	1.1210E00
729.69	1.1252E00
730.01	1.1328E00
730.32	1.1410E00
730.64	1.1400E00
730.96	1.1292E00
731.27	1.1599E00
731.59	1.1332E00
731.90	1.1472E00
732.22	1.1562E00
732.53	1.1542E00
732.85	1.1670E00
733.16	1.1626E00
733.48	1.1713E00
733.80	1.1648E00
734.11	1.1874E00
734.43	1.1847E00
734.74	1.1834E00
735.06	1.1978E00
735.37	1.2089E00
735.69	1.1933E00
736.00	1.2067E00
736.32	1.2089E00
736.63	1.2163E00
736.95	1.2143E00
737.26	1.2366E00
737.58	1.2361E00
737.89	1.2448E00
738.21	1.2331E00
738.52	1.2393E00
738.83	1.2447E00
739.15	1.2441E00
739.46	1.2611E00
739.78	1.2577E00
740.09	1.2728E00
740.41	1.2643E00
740.72	1.2606E00
741.04	1.2613E00
741.35	1.2648E00
741.66	1.2846E00
741.98	1.2772E00
742.29	1.2854E00
742.61	1.2786E00
742.92	1.2843E00
743.23	1.2826E00
743.55	1.2924E00
743.86	1.2809E00
744.18	1.2897E00
744.49	1.2907E00
744.80	1.2895E00
745.12	1.2908E00
745.43	1.2947E00
745.74	1.2935E00
746.06	1.2854E00
746.37	1.2841E00
746.68	1.2948E00
747.00	1.2927E00
747.31	1.2814E00
747.62	1.2740E00
747.94	1.2939E00
748.25	1.2950E00
748.56	1.2972E00
748.88	1.2775E00
749.19	1.2880E00
749.50	1.2918E00
749.82	1.2825E00
750.13	1.2896E00
750.44	1.2920E00
750.75	1.2771E00
751.07	1.2942E00
751.38	1.3019E00
751.69	1.2771E00
752.01	1.2949E00
752.32	1.2938E00
752.63	1.2965E00
752.94	1.3024E00
753.26	1.3091E00
753.57	1.2946E00
753.88	1.3031E00
754.19	1.3043E00
754.51	1.3081E00
754.82	1.3042E00
755.13	1.3195E00
755.44	1.3180E00
755.75	1.3214E00
756.07	1.3211E00
756.38	1.3361E00
756.69	1.3320E00
757.00	1.3410E00
757.31	1.3574E00
757.63	1.3653E00
757.94	1.3676E00
758.25	1.3821E00
758.56	1.3485E00
758.87	1.3954E00
759.18	1.3974E00
759.50	1.3960E00
759.81	1.3894E00
760.12	1.4047E00
760.43	1.4253E00
760.74	1.1316E00
761.05	6.9181E-01
761.36	7.8902E-01
761.67	9.7314E-01
761.99	1.1190E00
762.30	1.1984E00
762.61	1.1782E00
762.92	1.0984E00
763.23	1.0770E00
763.54	1.0885E00
763.85	1.1218E00
764.16	1.1525E00
764.47	1.3252E00
764.78	1.3089E00
765.10	1.4387E00
765.41	1.4857E00
765.72	1.5681E00
766.03	1.6087E00
766.34	1.6220E00
766.65	1.6297E00
766.96	1.6532E00
767.27	1.6324E00
767.58	1.6335E00
767.89	1.6507E00
768.20	1.6756E00
768.51	1.6762E00
768.82	1.6800E00
769.13	1.7134E00
769.44	1.7360E00
769.75	1.7336E00
770.06	1.7366E00
770.37	1.7350E00
770.68	1.7789E00
770.99	1.7913E00
771.30	1.8004E00
771.61	1.8547E00
771.92	1.8137E00
772.23	1.8382E00
772.54	1.8794E00
772.85	1.8595E00
773.16	1.8765E00
773.47	1.9342E00
773.78	1.9200E00
774.09	1.9504E00
774.39	1.9548E00
774.70	1.9607E00
775.01	2.0000E00
775.32	2.0104E00
775.63	2.0321E00
775.94	2.0539E00
776.25	2.0406E00
776.56	2.0608E00
776.87	2.1161E00
777.18	2.1087E00
777.48	2.1294E00
777.79	2.1483E00
778.10	2.1689E00
778.41	2.1855E00
778.72	2.2106E00
779.03	2.2206E00
779.34	2.2676E00
779.65	2.2694E00
779.95	2.3103E00
780.26	2.2911E00
780.57	2.3323E00
780.88	2.3267E00
781.19	2.3684E00
781.50	2.3721E00
781.80	2.3934E00
782.11	2.3982E00
782.42	2.4568E00
782.73	2.4084E00
783.04	2.5044E00
783.34	2.5013E00
783.65	2.5247E00
783.96	2.5316E00
784.27	2.5439E00
784.57	2.5684E00
784.88	2.5964E00
785.19	2.6086E00
785.50	2.6400E00
785.81	2.6754E00
786.11	2.6404E00
786.42	2.6750E00
786.73	2.7051E00
787.04	2.7393E00
787.34	2.7936E00
787.65	2.8114E00
787.96	2.8812E00
788.26	2.8626E00
788.57	2.8928E00
788.88	2.6753E00
789.19	2.5118E00
789.49	2.4658E00
789.80	2.5090E00
790.11	2.4562E00
790.41	2.4913E00
790.72	2.5003E00
791.03	2.4834E00
791.33	2.4884E00
791.64	2.5230E00
791.95	2.5014E00
792.25	2.5441E00
792.56	2.4962E00
792.87	2.5731E00
793.17	2.5345E00
793.48	2.5893E00
793.79	2.6053E00
794.09	2.6552E00
794.40	2.6796E00
794.70	2.6483E00
795.01	2.6676E00
795.32	2.6275E00
795.62	2.6559E00
795.93	2.5378E00
796.23	2.5457E00
796.54	2.5028E00
796.85	2.5329E00
797.15	2.5630E00
797.46	2.5725E00
797.76	2.6150E00
798.07	2.6884E00
798.37	2.6553E00
798.68	2.6425E00
798.99	2.6374E00
799.29	2.6538E00
799.60	2.6574E00
799.90	2.6174E00
800.21	2.6050E00
800.51	2.5647E00
800.82	2.6288E00
801.12	2.6077E00
801.43	2.5931E00
801.73	2.5910E00
802.04	2.5684E00
802.34	2.5536E00
802.65	2.5517E00
802.95	2.5928E00
803.26	2.5828E00
803.56	2.5503E00
803.87	2.5618E00
804.17	2.5495E00
804.48	2.5490E00
804.78	2.6178E00
805.09	2.6234E00
805.39	2.6692E00
805.70	2.7056E00
806.00	2.7134E00
806.30	2.7521E00
806.61	2.7382E00
806.91	2.7626E00
807.22	2.7653E00
807.52	2.7764E00
807.83	2.7614E00
808.13	2.7910E00
808.43	2.7165E00
808.74	2.7662E00
809.04	2.6694E00
809.35	2.6458E00
809.65	2.6883E00
809.95	2.6267E00
810.26	2.5444E00
810.56	2.6117E00
810.86	2.5819E00
811.17	2.5250E00
811.47	2.4977E00
811.77	2.4303E00
812.08	2.3837E00
812.38	2.4040E00
812.69	2.3402E00
812.99	2.3318E00
813.29	2.2250E00
813.59	2.1330E00
813.90	2.1056E00
814.20	2.0469E00
814.50	1.9984E00
814.81	1.9380E00
815.11	1.8947E00
815.41	1.8276E00
815.72	1.8157E00
816.02	1.7608E00
816.32	1.6920E00
816.62	1.6592E00
816.93	1.7122E00
817.23	1.7198E00
817.53	1.7054E00
817.84	1.7033E00
818.14	1.6736E00
818.44	1.7261E00
818.74	1.8401E00
819.04	1.7938E00
819.35	1.7649E00
819.65	1.8051E00
819.95	1.8220E00
820.25	1.8848E00
820.56	1.9857E00
820.86	2.0646E00
821.16	2.1975E00
821.46	2.1262E00
821.76	2.1514E00
822.07	2.1856E00
822.37	2.0353E00
822.67	2.0853E00
822.97	1.8918E00
823.27	1.7242E00
823.57	1.6735E00
823.88	1.7158E00
824.18	1.7741E00
824.48	1.8625E00
824.78	1.9143E00
825.08	2.0525E00
825.38	2.0936E00
825.69	2.0569E00
825.99	2.0851E00
826.29	2.1186E00
826.59	2.0615E00
826.89	2.1295E00
827.19	2.2118E00
827.49	2.1379E00
827.79	2.0053E00
828.09	1.9287E00
828.39	1.9294E00
828.70	1.9249E00
829.00	1.9461E00
829.30	1.8875E00
829.60	1.8885E00
829.90	1.9246E00
830.20	1.8386E00
830.50	1.8649E00
830.80	1.9414E00
831.10	1.8425E00
831.40	1.9696E00
831.70	1.9024E00
832.00	1.9472E00
832.30	1.8832E00
832.60	1.8766E00
832.90	1.8560E00
833.20	1.9194E00
833.50	1.8630E00
833.80	1.8795E00
834.10	1.8705E00
834.40	1.9479E00
834.70	1.9502E00
835.00	1.9182E00
835.30	1.9405E00
835.60	1.9587E00
835.90	1.9628E00
836.20	2.0143E00
836.50	2.0096E00
836.80	2.1450E00
837.10	2.4453E00
837.40	2.1352E00
837.70	2.1784E00
838.00	2.0468E00
838.30	2.1014E00
838.60	2.1550E00
838.90	2.1426E00
839.19	2.3493E00
839.49	2.1160E00
839.79	2.1968E00
840.09	2.1233E00
840.39	2.1746E00
840.69	2.2242E00
840.99	2.4033E00
841.29	2.2903E00
841.59	2.1898E00
841.88	2.1274E00
842.18	2.2617E00
842.48	2.2226E00
842.78	2.1880E00
843.08	2.2402E00
843.38	2.1671E00
843.68	2.3476E00
843.97	2.3801E00
844.27	2.2612E00
844.57	2.2411E00
844.87	2.2619E00
845.17	2.2547E00
845.47	2.1873E00
845.76	2.3177E00
846.06	2.3435E00
846.36	2.7463E00
846.66	2.3022E00
846.96	2.3324E00
847.25	2.2399E00
847.55	2.2515E00
847.85	2.3069E00
848.15	2.2681E00
848.44	2.2882E00
848.74	2.2284E00
849.04	2.2430E00
849.34	2.3745E00
849.63	2.2724E00
849.93	2.2283E00
850.23	2.2127E00
850.53	2.1614E00
850.82	2.2221E00
851.12	2.1696E00
851.42	2.2376E00
851.71	2.2264E00
852.01	2.2016E00
852.31	2.2746E00
852.61	2.2254E00
852.90	2.2359E00
853.20	2.3052E00
853.50	2.5971E00
853.79	2.4899E00
854.09	2.1648E00
854.39	2.1617E00
854.68	2.1598E00
854.98	2.1429E00
855.28	2.1809E00
855.57	2.3086E00
855.87	2.2281E00
856.17	2.2438E00
856.46	2.1374E00
856.76	2.1568E00
857.05	2.3135E00
857.35	2.2601E00
857.65	2.4407E00
857.94	2.3889E00
858.24	2.4389E00
858.53	2.3553E00
858.83	2.7326E00
859.13	2.3550E00
859.42	2.3143E00
859.72	2.4975E00
860.01	2.3982E00
860.31	2.3357E00
860.60	2.3793E00
860.90	2.5296E00
861.20	2.4184E00
861.49	2.3196E00
861.79	2.4151E00
862.08	3.3187E00
862.38	2.7079E00
862.67	2.4047E00
862.97	2.4101E00
863.26	2.4128E00
863.56	2.6627E00
863.85	2.7915E00
864.15	2.3810E00
864.44	2.5074E00
864.74	2.4555E00
865.03	2.7047E00
865.33	2.5680E00
865.62	2.4941E00
865.92	2.4166E00
866.21	2.5195E00
866.51	2.4648E00
866.80	2.6418E00
867.10	2.7718E00
867.39	2.4305E00
867.69	2.6811E00
867.98	2.2586E00
868.27	2.3433E00
868.57	2.3650E00
868.86	2.6509E00
869.16	2.4618E00
869.45	2.4245E00
869.75	2.4128E00
870.04	2.5015E00
870.33	2.5916E00
870.63	2.4529E00
870.92	2.5685E00
871.22	3.4669E00
871.51	2.5786E00
871.80	2.6714E00
872.10	2.6714E00
>>>>>End Processed Spectral Data<<<<<
