SpectraSuite Data File
++++++++++++++++++++++++++++++++++++
Date: Wed May 13 13:44:53 PDT 2015
User: schluterlab
Dark Spectrum Present: Yes
Reference Spectrum Present: No
Number of Sampled Component Spectra: 1
Spectrometers: USB2E3373
Integration Time (usec): 2200000 (USB2E3373)
Spectra Averaged: 3 (USB2E3373)
Boxcar Smoothing: 0 (USB2E3373)
Correct for Electrical Dark: No (USB2E3373)
Strobe/Lamp Enabled: No (USB2E3373)
Correct for Detector Non-linearity: No (USB2E3373)
Correct for Stray Light: No (USB2E3373)
Number of Pixels in Processed Spectrum: 2048
>>>>>Begin Processed Spectral Data<<<<<
178.53	0.0000E00
178.91	0.0000E00
179.29	0.0000E00
179.67	0.0000E00
180.04	0.0000E00
180.42	0.0000E00
180.80	0.0000E00
181.18	0.0000E00
181.56	0.0000E00
181.94	0.0000E00
182.31	0.0000E00
182.69	0.0000E00
183.07	0.0000E00
183.45	0.0000E00
183.83	0.0000E00
184.20	0.0000E00
184.58	0.0000E00
184.96	0.0000E00
185.34	0.0000E00
185.72	0.0000E00
186.09	0.0000E00
186.47	0.0000E00
186.85	0.0000E00
187.23	0.0000E00
187.61	0.0000E00
187.98	0.0000E00
188.36	0.0000E00
188.74	0.0000E00
189.12	0.0000E00
189.49	0.0000E00
189.87	0.0000E00
190.25	0.0000E00
190.63	0.0000E00
191.00	0.0000E00
191.38	0.0000E00
191.76	0.0000E00
192.14	0.0000E00
192.51	0.0000E00
192.89	0.0000E00
193.27	0.0000E00
193.65	0.0000E00
194.02	0.0000E00
194.40	0.0000E00
194.78	0.0000E00
195.15	0.0000E00
195.53	-0.0000E00
195.91	0.0000E00
196.29	0.0000E00
196.66	0.0000E00
197.04	0.0000E00
197.42	0.0000E00
197.79	0.0000E00
198.17	0.0000E00
198.55	0.0000E00
198.92	0.0000E00
199.30	0.0000E00
199.68	0.0000E00
200.05	0.0000E00
200.43	0.0000E00
200.81	0.0000E00
201.18	0.0000E00
201.56	0.0000E00
201.94	0.0000E00
202.31	-0.0000E00
202.69	0.0000E00
203.07	0.0000E00
203.44	0.0000E00
203.82	0.0000E00
204.19	0.0000E00
204.57	0.0000E00
204.95	0.0000E00
205.32	0.0000E00
205.70	0.0000E00
206.08	0.0000E00
206.45	0.0000E00
206.83	0.0000E00
207.20	0.0000E00
207.58	0.0000E00
207.96	0.0000E00
208.33	0.0000E00
208.71	0.0000E00
209.08	0.0000E00
209.46	0.0000E00
209.84	0.0000E00
210.21	0.0000E00
210.59	0.0000E00
210.96	0.0000E00
211.34	0.0000E00
211.71	0.0000E00
212.09	0.0000E00
212.46	0.0000E00
212.84	0.0000E00
213.22	0.0000E00
213.59	0.0000E00
213.97	0.0000E00
214.34	0.0000E00
214.72	0.0000E00
215.09	0.0000E00
215.47	0.0000E00
215.84	0.0000E00
216.22	0.0000E00
216.59	0.0000E00
216.97	0.0000E00
217.34	0.0000E00
217.72	0.0000E00
218.09	0.0000E00
218.47	0.0000E00
218.84	0.0000E00
219.22	0.0000E00
219.59	0.0000E00
219.97	0.0000E00
220.34	0.0000E00
220.72	0.0000E00
221.09	0.0000E00
221.47	0.0000E00
221.84	0.0000E00
222.22	0.0000E00
222.59	0.0000E00
222.97	0.0000E00
223.34	0.0000E00
223.72	0.0000E00
224.09	0.0000E00
224.46	0.0000E00
224.84	0.0000E00
225.21	0.0000E00
225.59	0.0000E00
225.96	0.0000E00
226.34	0.0000E00
226.71	0.0000E00
227.08	0.0000E00
227.46	0.0000E00
227.83	0.0000E00
228.21	0.0000E00
228.58	0.0000E00
228.95	0.0000E00
229.33	0.0000E00
229.70	0.0000E00
230.08	0.0000E00
230.45	0.0000E00
230.82	0.0000E00
231.20	0.0000E00
231.57	0.0000E00
231.95	0.0000E00
232.32	0.0000E00
232.69	0.0000E00
233.07	0.0000E00
233.44	0.0000E00
233.81	0.0000E00
234.19	0.0000E00
234.56	0.0000E00
234.93	0.0000E00
235.31	0.0000E00
235.68	0.0000E00
236.05	0.0000E00
236.43	0.0000E00
236.80	0.0000E00
237.17	0.0000E00
237.55	0.0000E00
237.92	0.0000E00
238.29	0.0000E00
238.67	0.0000E00
239.04	0.0000E00
239.41	0.0000E00
239.79	0.0000E00
240.16	0.0000E00
240.53	0.0000E00
240.91	0.0000E00
241.28	0.0000E00
241.65	0.0000E00
242.02	0.0000E00
242.40	0.0000E00
242.77	0.0000E00
243.14	0.0000E00
243.51	0.0000E00
243.89	0.0000E00
244.26	0.0000E00
244.63	0.0000E00
245.00	0.0000E00
245.38	0.0000E00
245.75	0.0000E00
246.12	0.0000E00
246.49	0.0000E00
246.87	0.0000E00
247.24	0.0000E00
247.61	0.0000E00
247.98	0.0000E00
248.36	0.0000E00
248.73	0.0000E00
249.10	0.0000E00
249.47	0.0000E00
249.84	0.0000E00
250.22	0.0000E00
250.59	0.0000E00
250.96	0.0000E00
251.33	0.0000E00
251.70	0.0000E00
252.08	0.0000E00
252.45	0.0000E00
252.82	0.0000E00
253.19	0.0000E00
253.56	0.0000E00
253.94	0.0000E00
254.31	0.0000E00
254.68	0.0000E00
255.05	0.0000E00
255.42	0.0000E00
255.79	0.0000E00
256.16	0.0000E00
256.54	0.0000E00
256.91	0.0000E00
257.28	0.0000E00
257.65	0.0000E00
258.02	0.0000E00
258.39	0.0000E00
258.76	0.0000E00
259.14	0.0000E00
259.51	0.0000E00
259.88	0.0000E00
260.25	0.0000E00
260.62	0.0000E00
260.99	0.0000E00
261.36	0.0000E00
261.73	0.0000E00
262.10	0.0000E00
262.47	0.0000E00
262.85	0.0000E00
263.22	0.0000E00
263.59	0.0000E00
263.96	0.0000E00
264.33	0.0000E00
264.70	0.0000E00
265.07	0.0000E00
265.44	0.0000E00
265.81	0.0000E00
266.18	0.0000E00
266.55	0.0000E00
266.92	0.0000E00
267.29	0.0000E00
267.66	0.0000E00
268.03	0.0000E00
268.40	0.0000E00
268.77	0.0000E00
269.14	0.0000E00
269.51	0.0000E00
269.88	0.0000E00
270.25	0.0000E00
270.62	0.0000E00
270.99	0.0000E00
271.36	0.0000E00
271.73	0.0000E00
272.10	0.0000E00
272.47	0.0000E00
272.84	0.0000E00
273.21	0.0000E00
273.58	0.0000E00
273.95	0.0000E00
274.32	0.0000E00
274.69	0.0000E00
275.06	0.0000E00
275.43	0.0000E00
275.80	0.0000E00
276.17	0.0000E00
276.54	0.0000E00
276.91	0.0000E00
277.28	0.0000E00
277.65	0.0000E00
278.02	0.0000E00
278.39	0.0000E00
278.76	0.0000E00
279.13	0.0000E00
279.50	0.0000E00
279.87	0.0000E00
280.23	0.0000E00
280.60	0.0000E00
280.97	0.0000E00
281.34	0.0000E00
281.71	0.0000E00
282.08	0.0000E00
282.45	0.0000E00
282.82	0.0000E00
283.19	0.0000E00
283.56	0.0000E00
283.92	0.0000E00
284.29	0.0000E00
284.66	0.0000E00
285.03	0.0000E00
285.40	0.0000E00
285.77	0.0000E00
286.14	0.0000E00
286.51	0.0000E00
286.87	0.0000E00
287.24	0.0000E00
287.61	0.0000E00
287.98	0.0000E00
288.35	0.0000E00
288.72	0.0000E00
289.08	0.0000E00
289.45	0.0000E00
289.82	0.0000E00
290.19	0.0000E00
290.56	0.0000E00
290.93	0.0000E00
291.29	0.0000E00
291.66	0.0000E00
292.03	0.0000E00
292.40	0.0000E00
292.77	0.0000E00
293.13	0.0000E00
293.50	0.0000E00
293.87	0.0000E00
294.24	0.0000E00
294.60	0.0000E00
294.97	0.0000E00
295.34	0.0000E00
295.71	0.0000E00
296.08	0.0000E00
296.44	0.0000E00
296.81	0.0000E00
297.18	0.0000E00
297.55	0.0000E00
297.91	0.0000E00
298.28	0.0000E00
298.65	0.0000E00
299.02	0.0000E00
299.38	0.0000E00
299.75	0.0000E00
300.12	8.0541E-02
300.48	2.1854E-01
300.85	8.3664E-02
301.22	2.3531E-01
301.59	7.3894E-02
301.95	8.7045E-02
302.32	1.1701E-01
302.69	1.2297E-01
303.05	7.4722E-02
303.42	1.0489E-01
303.79	1.2246E-01
304.15	8.0040E-02
304.52	8.4075E-02
304.89	8.2759E-02
305.25	1.7466E-01
305.62	1.0724E-01
305.99	1.3718E-01
306.35	7.9330E-02
306.72	1.0604E-01
307.09	1.1616E-01
307.45	1.0910E-01
307.82	7.5530E-02
308.19	9.5321E-02
308.55	1.0801E-01
308.92	1.3470E-01
309.29	1.0750E-01
309.65	1.9318E-01
310.02	1.0411E-01
310.38	1.0441E-01
310.75	1.4498E-01
311.12	1.4498E-01
311.48	2.5631E-01
311.85	1.7288E-01
312.22	1.2649E-01
312.58	2.7500E-01
312.95	1.7382E-01
313.31	1.6821E-01
313.68	2.2199E-01
314.05	3.7966E-01
314.41	2.1018E-01
314.78	1.2954E-01
315.14	2.8736E-01
315.51	4.4948E-01
315.87	1.9799E-01
316.24	2.9129E-01
316.61	2.8431E-01
316.97	2.0010E-01
317.34	3.5068E-01
317.70	2.7368E-01
318.07	2.8297E-01
318.43	3.3317E-01
318.80	2.5125E-01
319.16	3.2153E-01
319.53	2.3048E-01
319.89	4.7281E-01
320.26	3.7177E-01
320.62	4.6284E-01
320.99	4.1249E-01
321.35	2.4148E-01
321.72	3.3316E-01
322.08	5.1102E-01
322.45	3.2903E-01
322.81	3.3599E-01
323.18	1.0684E00
323.54	5.6000E-01
323.91	4.2975E-01
324.27	9.1649E-01
324.64	7.1804E-01
325.00	5.5909E-01
325.37	9.4819E-01
325.73	3.6613E-01
326.10	1.4066E00
326.46	6.7092E-01
326.83	5.8942E-01
327.19	1.2534E00
327.56	4.9999E-01
327.92	7.1904E-01
328.29	5.6216E-01
328.65	7.1048E-01
329.01	8.7902E-01
329.38	5.9742E-01
329.74	5.5242E-01
330.11	8.3941E-01
330.47	5.5560E-01
330.84	7.7740E-01
331.20	7.7013E-01
331.56	7.0713E-01
331.93	8.1951E-01
332.29	7.8212E-01
332.66	5.4278E-01
333.02	6.4765E-01
333.38	9.8119E-01
333.75	4.6449E-01
334.11	8.1219E-01
334.48	7.3195E-01
334.84	6.8912E-01
335.20	8.7042E-01
335.57	1.6160E00
335.93	1.0646E00
336.29	8.1011E-01
336.66	7.5743E-01
337.02	5.4814E-01
337.38	6.4218E-01
337.75	6.6496E-01
338.11	5.7985E-01
338.47	8.3664E-01
338.84	7.0731E-01
339.20	6.0490E-01
339.56	1.8040E00
339.93	6.1422E-01
340.29	7.1856E-01
340.65	7.8489E-01
341.02	1.3397E00
341.38	8.9952E-01
341.74	9.7377E-01
342.11	9.7772E-01
342.47	9.9479E-01
342.83	6.0111E-01
343.20	1.2888E00
343.56	7.8745E-01
343.92	1.1389E00
344.28	6.8017E-01
344.65	1.0429E00
345.01	6.3326E-01
345.37	1.0678E00
345.73	1.0091E00
346.10	8.6351E-01
346.46	1.0414E00
346.82	8.0672E-01
347.19	1.8706E00
347.55	7.6387E-01
347.91	7.8731E-01
348.27	8.7398E-01
348.63	7.5347E-01
349.00	7.7616E-01
349.36	1.5584E00
349.72	9.9018E-01
350.08	1.4865E00
350.45	9.0682E-01
350.81	8.6228E-01
351.17	1.1527E00
351.53	1.2385E00
351.89	1.0003E00
352.26	1.1638E00
352.62	9.4480E-01
352.98	1.0815E00
353.34	9.7890E-01
353.70	1.3426E00
354.07	1.0099E00
354.43	9.5907E-01
354.79	1.1245E00
355.15	8.9730E-01
355.51	8.5622E-01
355.87	9.6780E-01
356.24	1.0082E00
356.60	9.7585E-01
356.96	1.0579E00
357.32	9.5317E-01
357.68	8.9663E-01
358.04	8.0080E-01
358.40	8.4256E-01
358.77	7.4898E-01
359.13	9.0554E-01
359.49	1.0191E00
359.85	1.0158E00
360.21	7.6406E-01
360.57	9.3091E-01
360.93	9.2259E-01
361.29	9.7577E-01
361.66	8.0905E-01
362.02	7.4570E-01
362.38	9.7245E-01
362.74	8.4618E-01
363.10	8.9244E-01
363.46	1.0384E00
363.82	8.8723E-01
364.18	1.0623E00
364.54	1.0077E00
364.90	9.6013E-01
365.26	9.4393E-01
365.62	1.0784E00
365.98	9.3938E-01
366.35	7.5267E-01
366.71	9.1153E-01
367.07	1.1692E00
367.43	7.3890E-01
367.79	1.0551E00
368.15	9.6757E-01
368.51	1.1477E00
368.87	1.0028E00
369.23	1.0727E00
369.59	8.4395E-01
369.95	9.1359E-01
370.31	8.7176E-01
370.67	1.0314E00
371.03	8.6904E-01
371.39	8.4967E-01
371.75	8.5851E-01
372.11	8.8602E-01
372.47	8.1434E-01
372.83	8.2286E-01
373.19	6.8733E-01
373.55	9.0083E-01
373.91	9.1797E-01
374.27	9.9045E-01
374.63	9.6666E-01
374.99	8.7833E-01
375.35	8.4289E-01
375.71	8.5924E-01
376.07	8.6703E-01
376.42	8.5756E-01
376.78	7.7807E-01
377.14	8.8240E-01
377.50	9.6301E-01
377.86	8.2038E-01
378.22	7.7309E-01
378.58	7.7435E-01
378.94	7.5035E-01
379.30	7.8892E-01
379.66	7.7658E-01
380.02	7.6052E-01
380.38	7.3941E-01
380.74	7.7412E-01
381.09	8.1295E-01
381.45	7.4945E-01
381.81	7.2514E-01
382.17	7.6438E-01
382.53	7.9483E-01
382.89	7.1159E-01
383.25	7.4812E-01
383.61	7.3952E-01
383.97	7.1795E-01
384.32	7.1522E-01
384.68	6.8280E-01
385.04	7.5898E-01
385.40	7.8167E-01
385.76	7.7859E-01
386.12	7.3208E-01
386.48	7.4406E-01
386.83	6.9456E-01
387.19	6.9281E-01
387.55	7.7556E-01
387.91	7.4907E-01
388.27	7.0057E-01
388.62	7.8723E-01
388.98	7.1411E-01
389.34	7.9157E-01
389.70	7.1857E-01
390.06	7.4182E-01
390.42	7.4809E-01
390.77	7.3012E-01
391.13	7.4483E-01
391.49	7.3085E-01
391.85	7.7077E-01
392.20	6.8092E-01
392.56	6.8968E-01
392.92	7.0017E-01
393.28	7.0299E-01
393.64	7.3431E-01
393.99	7.4824E-01
394.35	7.3546E-01
394.71	7.2703E-01
395.07	7.1212E-01
395.42	7.1539E-01
395.78	7.2826E-01
396.14	6.5707E-01
396.50	6.6000E-01
396.85	7.2572E-01
397.21	6.9900E-01
397.57	7.1749E-01
397.92	6.7125E-01
398.28	6.4954E-01
398.64	7.7202E-01
399.00	6.2281E-01
399.35	6.4796E-01
399.71	6.9473E-01
400.07	6.7763E-01
400.42	6.6311E-01
400.78	6.7911E-01
401.14	6.8125E-01
401.49	6.3210E-01
401.85	6.2848E-01
402.21	6.3793E-01
402.57	6.3480E-01
402.92	6.6916E-01
403.28	6.3624E-01
403.63	6.3284E-01
403.99	6.4740E-01
404.35	6.2835E-01
404.70	6.1683E-01
405.06	6.2683E-01
405.42	6.4092E-01
405.77	5.9565E-01
406.13	5.9561E-01
406.49	5.9133E-01
406.84	5.9827E-01
407.20	5.8410E-01
407.55	6.2948E-01
407.91	6.4169E-01
408.27	6.0126E-01
408.62	6.0449E-01
408.98	6.1177E-01
409.34	6.2244E-01
409.69	5.9570E-01
410.05	6.2721E-01
410.40	5.9921E-01
410.76	5.5466E-01
411.11	5.5960E-01
411.47	6.0636E-01
411.83	5.7501E-01
412.18	5.8589E-01
412.54	5.7436E-01
412.89	5.7076E-01
413.25	5.9252E-01
413.60	6.1773E-01
413.96	5.7960E-01
414.31	5.8360E-01
414.67	6.1549E-01
415.03	6.0355E-01
415.38	6.1820E-01
415.74	6.1116E-01
416.09	6.0677E-01
416.45	6.1511E-01
416.80	6.0369E-01
417.16	5.9827E-01
417.51	5.9485E-01
417.87	5.7311E-01
418.22	5.6603E-01
418.58	5.7786E-01
418.93	5.5374E-01
419.29	5.9348E-01
419.64	5.7648E-01
420.00	5.4464E-01
420.35	5.3487E-01
420.71	5.6103E-01
421.06	5.6408E-01
421.42	5.7772E-01
421.77	5.6973E-01
422.12	5.6846E-01
422.48	5.3868E-01
422.83	5.7515E-01
423.19	5.4354E-01
423.54	5.4344E-01
423.90	5.5040E-01
424.25	5.1945E-01
424.61	5.7320E-01
424.96	5.3627E-01
425.31	5.3313E-01
425.67	5.1118E-01
426.02	5.3426E-01
426.38	5.3366E-01
426.73	5.0591E-01
427.09	5.2930E-01
427.44	5.0722E-01
427.79	5.1310E-01
428.15	5.2842E-01
428.50	5.2490E-01
428.85	5.3779E-01
429.21	4.9584E-01
429.56	4.8521E-01
429.92	4.9461E-01
430.27	5.1112E-01
430.62	5.1069E-01
430.98	5.1707E-01
431.33	5.0532E-01
431.68	4.8833E-01
432.04	4.8503E-01
432.39	4.9228E-01
432.74	5.1025E-01
433.10	4.7795E-01
433.45	5.0619E-01
433.80	5.0357E-01
434.16	5.1438E-01
434.51	4.8983E-01
434.86	5.1023E-01
435.22	4.9147E-01
435.57	5.2539E-01
435.92	5.1504E-01
436.28	5.1261E-01
436.63	4.7565E-01
436.98	5.0830E-01
437.34	5.0495E-01
437.69	4.8021E-01
438.04	4.6685E-01
438.39	4.9940E-01
438.75	5.1124E-01
439.10	4.6173E-01
439.45	5.0178E-01
439.81	4.9631E-01
440.16	4.6668E-01
440.51	4.8798E-01
440.86	4.8553E-01
441.22	4.7477E-01
441.57	4.7936E-01
441.92	4.6585E-01
442.27	4.8842E-01
442.63	4.7823E-01
442.98	5.1071E-01
443.33	4.9978E-01
443.68	4.6470E-01
444.03	4.3868E-01
444.39	4.4074E-01
444.74	4.7849E-01
445.09	4.8545E-01
445.44	4.8645E-01
445.79	4.2955E-01
446.15	4.6139E-01
446.50	4.7713E-01
446.85	4.4874E-01
447.20	4.3680E-01
447.55	4.7198E-01
447.91	4.5421E-01
448.26	4.6588E-01
448.61	4.6133E-01
448.96	4.5209E-01
449.31	4.5829E-01
449.66	4.6297E-01
450.02	4.5635E-01
450.37	4.5705E-01
450.72	4.5012E-01
451.07	4.8587E-01
451.42	4.8282E-01
451.77	4.5617E-01
452.12	4.5552E-01
452.47	4.7648E-01
452.83	4.3797E-01
453.18	4.6351E-01
453.53	4.5831E-01
453.88	4.3123E-01
454.23	4.2596E-01
454.58	4.2627E-01
454.93	4.5774E-01
455.28	4.5453E-01
455.63	4.4142E-01
455.98	4.3145E-01
456.34	4.5454E-01
456.69	4.4047E-01
457.04	4.4438E-01
457.39	4.1638E-01
457.74	4.2542E-01
458.09	4.1437E-01
458.44	4.1337E-01
458.79	4.0435E-01
459.14	4.1787E-01
459.49	4.3540E-01
459.84	4.1117E-01
460.19	4.3741E-01
460.54	4.3455E-01
460.89	4.0080E-01
461.24	4.3838E-01
461.59	4.1946E-01
461.94	4.2494E-01
462.29	3.9736E-01
462.64	4.2030E-01
462.99	4.2473E-01
463.34	4.4876E-01
463.69	4.2055E-01
464.04	3.9258E-01
464.39	4.0780E-01
464.74	4.1340E-01
465.09	4.2473E-01
465.44	3.9992E-01
465.79	4.1269E-01
466.14	4.1452E-01
466.49	4.0782E-01
466.84	4.0403E-01
467.19	4.1802E-01
467.54	4.1937E-01
467.89	3.9885E-01
468.24	3.7785E-01
468.59	3.9064E-01
468.94	3.8262E-01
469.29	3.8449E-01
469.64	3.9731E-01
469.99	3.8264E-01
470.34	3.7066E-01
470.68	3.9443E-01
471.03	3.8065E-01
471.38	3.8191E-01
471.73	3.6366E-01
472.08	3.5926E-01
472.43	3.4692E-01
472.78	3.6620E-01
473.13	3.6207E-01
473.48	3.5620E-01
473.83	3.4947E-01
474.17	3.5420E-01
474.52	3.5055E-01
474.87	3.3619E-01
475.22	3.4292E-01
475.57	3.2656E-01
475.92	3.1822E-01
476.27	3.2766E-01
476.61	3.1893E-01
476.96	3.1094E-01
477.31	3.0153E-01
477.66	3.0716E-01
478.01	3.0530E-01
478.36	3.0361E-01
478.70	2.9944E-01
479.05	3.0383E-01
479.40	2.9006E-01
479.75	2.8672E-01
480.10	2.8869E-01
480.45	2.8199E-01
480.79	2.8045E-01
481.14	2.8462E-01
481.49	2.7769E-01
481.84	2.7295E-01
482.19	2.7094E-01
482.53	2.7031E-01
482.88	2.6795E-01
483.23	2.6346E-01
483.58	2.5798E-01
483.92	2.6446E-01
484.27	2.5621E-01
484.62	2.5460E-01
484.97	2.4901E-01
485.31	2.4755E-01
485.66	2.5313E-01
486.01	2.5302E-01
486.36	2.4106E-01
486.70	2.4765E-01
487.05	2.4617E-01
487.40	2.4628E-01
487.75	2.3918E-01
488.09	2.3932E-01
488.44	2.4146E-01
488.79	2.3785E-01
489.13	2.3499E-01
489.48	2.3795E-01
489.83	2.3836E-01
490.17	2.3199E-01
490.52	2.3199E-01
490.87	2.3316E-01
491.22	2.3650E-01
491.56	2.3299E-01
491.91	2.3592E-01
492.26	2.3318E-01
492.60	2.3352E-01
492.95	2.3542E-01
493.30	2.3502E-01
493.64	2.3213E-01
493.99	2.3362E-01
494.34	2.3057E-01
494.68	2.2817E-01
495.03	2.3373E-01
495.37	2.3148E-01
495.72	2.3416E-01
496.07	2.2899E-01
496.41	2.3052E-01
496.76	2.2879E-01
497.11	2.3112E-01
497.45	2.3002E-01
497.80	2.3076E-01
498.14	2.3049E-01
498.49	2.3057E-01
498.84	2.3140E-01
499.18	2.3088E-01
499.53	2.3076E-01
499.87	2.2869E-01
500.22	2.3142E-01
500.56	2.3101E-01
500.91	2.3065E-01
501.26	2.3041E-01
501.60	2.2984E-01
501.95	2.2818E-01
502.29	2.3089E-01
502.64	2.2668E-01
502.98	2.3033E-01
503.33	2.2836E-01
503.67	2.2894E-01
504.02	2.2851E-01
504.36	2.2824E-01
504.71	2.2887E-01
505.06	2.2664E-01
505.40	2.2679E-01
505.75	2.2816E-01
506.09	2.2821E-01
506.44	2.2792E-01
506.78	2.2577E-01
507.13	2.2686E-01
507.47	2.2542E-01
507.82	2.2528E-01
508.16	2.2746E-01
508.51	2.2534E-01
508.85	2.2265E-01
509.19	2.2516E-01
509.54	2.2499E-01
509.88	2.2536E-01
510.23	2.2201E-01
510.57	2.2298E-01
510.92	2.2237E-01
511.26	2.2260E-01
511.61	2.2222E-01
511.95	2.2249E-01
512.30	2.2132E-01
512.64	2.2300E-01
512.98	2.1912E-01
513.33	2.2053E-01
513.67	2.2111E-01
514.02	2.2038E-01
514.36	2.1848E-01
514.70	2.2002E-01
515.05	2.1729E-01
515.39	2.1905E-01
515.74	2.1682E-01
516.08	2.1588E-01
516.42	2.1761E-01
516.77	2.1822E-01
517.11	2.1827E-01
517.46	2.1938E-01
517.80	2.1624E-01
518.14	2.1779E-01
518.49	2.1567E-01
518.83	2.1660E-01
519.17	2.1658E-01
519.52	2.1698E-01
519.86	2.1579E-01
520.20	2.1492E-01
520.55	2.1566E-01
520.89	2.1415E-01
521.23	2.1643E-01
521.58	2.1600E-01
521.92	2.1760E-01
522.26	2.1888E-01
522.61	2.1526E-01
522.95	2.1704E-01
523.29	2.1390E-01
523.64	2.1432E-01
523.98	2.1521E-01
524.32	2.1585E-01
524.66	2.1744E-01
525.01	2.1761E-01
525.35	2.1836E-01
525.69	2.1886E-01
526.04	2.1825E-01
526.38	2.1524E-01
526.72	2.1949E-01
527.06	2.1814E-01
527.41	2.1985E-01
527.75	2.2185E-01
528.09	2.2004E-01
528.43	2.2357E-01
528.78	2.2087E-01
529.12	2.2342E-01
529.46	2.2495E-01
529.80	2.2410E-01
530.15	2.2465E-01
530.49	2.2476E-01
530.83	2.2592E-01
531.17	2.2587E-01
531.51	2.2520E-01
531.86	2.2720E-01
532.20	2.2839E-01
532.54	2.2763E-01
532.88	2.2935E-01
533.22	2.3108E-01
533.57	2.3224E-01
533.91	2.3151E-01
534.25	2.3364E-01
534.59	2.3249E-01
534.93	2.3432E-01
535.27	2.3339E-01
535.62	2.3758E-01
535.96	2.3672E-01
536.30	2.3736E-01
536.64	2.3775E-01
536.98	2.3968E-01
537.32	2.3906E-01
537.66	2.3886E-01
538.01	2.4142E-01
538.35	2.4358E-01
538.69	2.4044E-01
539.03	2.4621E-01
539.37	2.4392E-01
539.71	2.4570E-01
540.05	2.4608E-01
540.39	2.4686E-01
540.73	2.4590E-01
541.07	2.4658E-01
541.42	2.4701E-01
541.76	2.4735E-01
542.10	2.4862E-01
542.44	2.4971E-01
542.78	2.4985E-01
543.12	2.4930E-01
543.46	2.5484E-01
543.80	2.5163E-01
544.14	2.5139E-01
544.48	2.5027E-01
544.82	2.5324E-01
545.16	2.5321E-01
545.50	2.5221E-01
545.84	2.5455E-01
546.18	2.5292E-01
546.52	2.5574E-01
546.86	2.5374E-01
547.20	2.5708E-01
547.54	2.6015E-01
547.88	2.5576E-01
548.22	2.5632E-01
548.56	2.5774E-01
548.90	2.5576E-01
549.24	2.5782E-01
549.58	2.5872E-01
549.92	2.5683E-01
550.26	2.6127E-01
550.60	2.5767E-01
550.94	2.5651E-01
551.28	2.5986E-01
551.62	2.5813E-01
551.96	2.6050E-01
552.30	2.6172E-01
552.64	2.6040E-01
552.98	2.6087E-01
553.32	2.6121E-01
553.66	2.5983E-01
554.00	2.6033E-01
554.34	2.6100E-01
554.68	2.6213E-01
555.02	2.6231E-01
555.36	2.6341E-01
555.69	2.6230E-01
556.03	2.6221E-01
556.37	2.6363E-01
556.71	2.6095E-01
557.05	2.6064E-01
557.39	2.6132E-01
557.73	2.6164E-01
558.07	2.6358E-01
558.41	2.6261E-01
558.75	2.6299E-01
559.08	2.6299E-01
559.42	2.6068E-01
559.76	2.6466E-01
560.10	2.6451E-01
560.44	2.6440E-01
560.78	2.6170E-01
561.12	2.6329E-01
561.45	2.6292E-01
561.79	2.6419E-01
562.13	2.6412E-01
562.47	2.6431E-01
562.81	2.6437E-01
563.15	2.6458E-01
563.48	2.6512E-01
563.82	2.6181E-01
564.16	2.6413E-01
564.50	2.6419E-01
564.84	2.6484E-01
565.17	2.6493E-01
565.51	2.6455E-01
565.85	2.6650E-01
566.19	2.6311E-01
566.52	2.6697E-01
566.86	2.6385E-01
567.20	2.6676E-01
567.54	2.6532E-01
567.88	2.6589E-01
568.21	2.6593E-01
568.55	2.6710E-01
568.89	2.6743E-01
569.23	2.6709E-01
569.56	2.6647E-01
569.90	2.6777E-01
570.24	2.6953E-01
570.57	2.6930E-01
570.91	2.6980E-01
571.25	2.6615E-01
571.59	2.6941E-01
571.92	2.6899E-01
572.26	2.7019E-01
572.60	2.7272E-01
572.93	2.7122E-01
573.27	2.7355E-01
573.61	2.7393E-01
573.95	2.6976E-01
574.28	2.7431E-01
574.62	2.7471E-01
574.96	2.7485E-01
575.29	2.7407E-01
575.63	2.7845E-01
575.97	2.7764E-01
576.30	2.8417E-01
576.64	2.8076E-01
576.98	2.8003E-01
577.31	2.8170E-01
577.65	2.8433E-01
577.98	2.8222E-01
578.32	2.8466E-01
578.66	2.8616E-01
578.99	2.8647E-01
579.33	2.8776E-01
579.67	2.8595E-01
580.00	2.8962E-01
580.34	2.8917E-01
580.67	2.9052E-01
581.01	2.9263E-01
581.35	2.9394E-01
581.68	2.9514E-01
582.02	2.9393E-01
582.35	2.9636E-01
582.69	2.9630E-01
583.02	3.0078E-01
583.36	2.9776E-01
583.70	2.9721E-01
584.03	2.9936E-01
584.37	2.9780E-01
584.70	3.0403E-01
585.04	3.0383E-01
585.37	3.0201E-01
585.71	3.0724E-01
586.04	3.0622E-01
586.38	3.0393E-01
586.72	3.0834E-01
587.05	3.0980E-01
587.39	3.1097E-01
587.72	3.0896E-01
588.06	3.1124E-01
588.39	3.1086E-01
588.73	3.1404E-01
589.06	3.1195E-01
589.40	3.1651E-01
589.73	3.1842E-01
590.07	3.1888E-01
590.40	3.1927E-01
590.73	3.2311E-01
591.07	3.1961E-01
591.40	3.2651E-01
591.74	3.1919E-01
592.07	3.2365E-01
592.41	3.2541E-01
592.74	3.2652E-01
593.08	3.2422E-01
593.41	3.2630E-01
593.75	3.2410E-01
594.08	3.2899E-01
594.41	3.2768E-01
594.75	3.2876E-01
595.08	3.2843E-01
595.42	3.2474E-01
595.75	3.3026E-01
596.09	3.3014E-01
596.42	3.2870E-01
596.75	3.3246E-01
597.09	3.3407E-01
597.42	3.3077E-01
597.75	3.3471E-01
598.09	3.3530E-01
598.42	3.3280E-01
598.76	3.3496E-01
599.09	3.3919E-01
599.42	3.3876E-01
599.76	3.3730E-01
600.09	3.3635E-01
600.42	3.4180E-01
600.76	3.3516E-01
601.09	3.3917E-01
601.42	3.4241E-01
601.76	3.3848E-01
602.09	3.3774E-01
602.42	3.4003E-01
602.76	3.3872E-01
603.09	3.3822E-01
603.42	3.4422E-01
603.76	3.3995E-01
604.09	3.4011E-01
604.42	3.4311E-01
604.76	3.4030E-01
605.09	3.4538E-01
605.42	3.4211E-01
605.75	3.4371E-01
606.09	3.4188E-01
606.42	3.4322E-01
606.75	3.4506E-01
607.09	3.4560E-01
607.42	3.4593E-01
607.75	3.4634E-01
608.08	3.4522E-01
608.42	3.4810E-01
608.75	3.4413E-01
609.08	3.4831E-01
609.41	3.4736E-01
609.75	3.4563E-01
610.08	3.4776E-01
610.41	3.4986E-01
610.74	3.4905E-01
611.07	3.4900E-01
611.41	3.4845E-01
611.74	3.5026E-01
612.07	3.5154E-01
612.40	3.4668E-01
612.73	3.5026E-01
613.07	3.5223E-01
613.40	3.4828E-01
613.73	3.4755E-01
614.06	3.5030E-01
614.39	3.5160E-01
614.72	3.5288E-01
615.06	3.5244E-01
615.39	3.5675E-01
615.72	3.5075E-01
616.05	3.5437E-01
616.38	3.5485E-01
616.71	3.5562E-01
617.05	3.5357E-01
617.38	3.5587E-01
617.71	3.5401E-01
618.04	3.5559E-01
618.37	3.5341E-01
618.70	3.5457E-01
619.03	3.5603E-01
619.36	3.5044E-01
619.69	3.5786E-01
620.03	3.5381E-01
620.36	3.5447E-01
620.69	3.5308E-01
621.02	3.5626E-01
621.35	3.5497E-01
621.68	3.5207E-01
622.01	3.5073E-01
622.34	3.5237E-01
622.67	3.5169E-01
623.00	3.5307E-01
623.33	3.5412E-01
623.66	3.5146E-01
623.99	3.5247E-01
624.32	3.5126E-01
624.65	3.5204E-01
624.99	3.5197E-01
625.32	3.5339E-01
625.65	3.5292E-01
625.98	3.4759E-01
626.31	3.5252E-01
626.64	3.5338E-01
626.97	3.5336E-01
627.30	3.5058E-01
627.63	3.5231E-01
627.96	3.4947E-01
628.29	3.4929E-01
628.62	3.5320E-01
628.95	3.5288E-01
629.28	3.4724E-01
629.61	3.5795E-01
629.94	3.5285E-01
630.26	3.5342E-01
630.59	3.5553E-01
630.92	3.5342E-01
631.25	3.5520E-01
631.58	3.5922E-01
631.91	3.5415E-01
632.24	3.6153E-01
632.57	3.5781E-01
632.90	3.5817E-01
633.23	3.5883E-01
633.56	3.6094E-01
633.89	3.6149E-01
634.22	3.6255E-01
634.55	3.6369E-01
634.88	3.6789E-01
635.20	3.6689E-01
635.53	3.6983E-01
635.86	3.6997E-01
636.19	3.7378E-01
636.52	3.7497E-01
636.85	3.7207E-01
637.18	3.7640E-01
637.51	3.7366E-01
637.83	3.7773E-01
638.16	3.7398E-01
638.49	3.8484E-01
638.82	3.8338E-01
639.15	3.8649E-01
639.48	3.8953E-01
639.81	3.9119E-01
640.13	3.8786E-01
640.46	3.9338E-01
640.79	3.9311E-01
641.12	3.9684E-01
641.45	3.9626E-01
641.77	3.9374E-01
642.10	4.0298E-01
642.43	4.0389E-01
642.76	4.0590E-01
643.09	4.0362E-01
643.41	4.0665E-01
643.74	4.0672E-01
644.07	4.0681E-01
644.40	4.1065E-01
644.73	4.1466E-01
645.05	4.1646E-01
645.38	4.1880E-01
645.71	4.2010E-01
646.04	4.2030E-01
646.36	4.1972E-01
646.69	4.2566E-01
647.02	4.2611E-01
647.35	4.2354E-01
647.67	4.2943E-01
648.00	4.2787E-01
648.33	4.3325E-01
648.66	4.3048E-01
648.98	4.3673E-01
649.31	4.3540E-01
649.64	4.3723E-01
649.96	4.4150E-01
650.29	4.4384E-01
650.62	4.4461E-01
650.94	4.4386E-01
651.27	4.4342E-01
651.60	4.4424E-01
651.92	4.5205E-01
652.25	4.5273E-01
652.58	4.5224E-01
652.90	4.5414E-01
653.23	4.5446E-01
653.56	4.5612E-01
653.88	4.5783E-01
654.21	4.5786E-01
654.54	4.5986E-01
654.86	4.6577E-01
655.19	4.6082E-01
655.52	4.6765E-01
655.84	4.6638E-01
656.17	4.6879E-01
656.49	4.7401E-01
656.82	4.6858E-01
657.15	4.7386E-01
657.47	4.7390E-01
657.80	4.7419E-01
658.13	4.7624E-01
658.45	4.7828E-01
658.78	4.7777E-01
659.10	4.8386E-01
659.43	4.8335E-01
659.75	4.8195E-01
660.08	4.7982E-01
660.41	4.8664E-01
660.73	4.8688E-01
661.06	4.9033E-01
661.38	4.8873E-01
661.71	4.9064E-01
662.03	4.9072E-01
662.36	4.9701E-01
662.68	4.9553E-01
663.01	4.8976E-01
663.33	4.9397E-01
663.66	4.9805E-01
663.98	4.9513E-01
664.31	4.9538E-01
664.63	5.0490E-01
664.96	5.0214E-01
665.28	5.0563E-01
665.61	5.0455E-01
665.93	5.0513E-01
666.26	5.0814E-01
666.58	5.0917E-01
666.91	5.0532E-01
667.23	5.1103E-01
667.56	5.0503E-01
667.88	5.1297E-01
668.21	5.1223E-01
668.53	5.1062E-01
668.86	5.2041E-01
669.18	5.1292E-01
669.50	5.2453E-01
669.83	5.2279E-01
670.15	5.2412E-01
670.48	5.2309E-01
670.80	5.2103E-01
671.13	5.1856E-01
671.45	5.2472E-01
671.77	5.2779E-01
672.10	5.2403E-01
672.42	5.3159E-01
672.75	5.2855E-01
673.07	5.3265E-01
673.39	5.2794E-01
673.72	5.3167E-01
674.04	5.3582E-01
674.37	5.3912E-01
674.69	5.3569E-01
675.01	5.4004E-01
675.34	5.4144E-01
675.66	5.4281E-01
675.98	5.3746E-01
676.31	5.4636E-01
676.63	5.4790E-01
676.95	5.4505E-01
677.28	5.4850E-01
677.60	5.4926E-01
677.92	5.4729E-01
678.25	5.5286E-01
678.57	5.5408E-01
678.89	5.5244E-01
679.22	5.6063E-01
679.54	5.5793E-01
679.86	5.5869E-01
680.18	5.6009E-01
680.51	5.6170E-01
680.83	5.6743E-01
681.15	5.6124E-01
681.48	5.6533E-01
681.80	5.6937E-01
682.12	5.6599E-01
682.44	5.7503E-01
682.77	5.7554E-01
683.09	5.7910E-01
683.41	5.7620E-01
683.73	5.8181E-01
684.06	5.8107E-01
684.38	5.8253E-01
684.70	5.8135E-01
685.02	5.8721E-01
685.34	5.9312E-01
685.67	5.8776E-01
685.99	5.9592E-01
686.31	5.9084E-01
686.63	6.0088E-01
686.96	5.9780E-01
687.28	6.0444E-01
687.60	5.9605E-01
687.92	6.0253E-01
688.24	6.0890E-01
688.56	6.1070E-01
688.89	6.1217E-01
689.21	6.0962E-01
689.53	6.1227E-01
689.85	6.2136E-01
690.17	6.1760E-01
690.49	6.2705E-01
690.82	6.2666E-01
691.14	6.2619E-01
691.46	6.3068E-01
691.78	6.3482E-01
692.10	6.2753E-01
692.42	6.3403E-01
692.74	6.3945E-01
693.06	6.4017E-01
693.39	6.5092E-01
693.71	6.5174E-01
694.03	6.5257E-01
694.35	6.5435E-01
694.67	6.5561E-01
694.99	6.6228E-01
695.31	6.6497E-01
695.63	6.6344E-01
695.95	6.6978E-01
696.27	6.6784E-01
696.59	6.7399E-01
696.91	6.8319E-01
697.23	6.8261E-01
697.56	6.8012E-01
697.88	6.8814E-01
698.20	6.8723E-01
698.52	6.9362E-01
698.84	6.9833E-01
699.16	7.0375E-01
699.48	6.9693E-01
699.80	7.0635E-01
700.12	7.1235E-01
700.44	7.1411E-01
700.76	7.1548E-01
701.08	7.1965E-01
701.40	7.2315E-01
701.72	7.3089E-01
702.04	7.3001E-01
702.36	7.3684E-01
702.68	7.3968E-01
703.00	7.4433E-01
703.32	7.4846E-01
703.64	7.4937E-01
703.96	7.4243E-01
704.28	7.5377E-01
704.60	7.6300E-01
704.91	7.6505E-01
705.23	7.6609E-01
705.55	7.7443E-01
705.87	7.6898E-01
706.19	7.7164E-01
706.51	7.7673E-01
706.83	7.8014E-01
707.15	8.0040E-01
707.47	7.8404E-01
707.79	7.9855E-01
708.11	8.0042E-01
708.43	8.0448E-01
708.74	8.1134E-01
709.06	8.2297E-01
709.38	8.1699E-01
709.70	8.1208E-01
710.02	8.2353E-01
710.34	8.2087E-01
710.66	8.4142E-01
710.98	8.3729E-01
711.29	8.3573E-01
711.61	8.5105E-01
711.93	8.5605E-01
712.25	8.4845E-01
712.57	8.6042E-01
712.89	8.6411E-01
713.20	8.6502E-01
713.52	8.7377E-01
713.84	8.8074E-01
714.16	8.7531E-01
714.48	8.7737E-01
714.80	8.9068E-01
715.11	8.8867E-01
715.43	9.0107E-01
715.75	9.0664E-01
716.07	9.1549E-01
716.39	8.9892E-01
716.70	9.1051E-01
717.02	9.0561E-01
717.34	9.3309E-01
717.66	9.2314E-01
717.97	9.3506E-01
718.29	9.3974E-01
718.61	9.5138E-01
718.93	9.5178E-01
719.24	9.5409E-01
719.56	9.7537E-01
719.88	9.6601E-01
720.20	9.7877E-01
720.51	9.9181E-01
720.83	9.8659E-01
721.15	1.0073E00
721.46	1.0037E00
721.78	1.0092E00
722.10	1.0243E00
722.42	1.0337E00
722.73	1.0405E00
723.05	1.0276E00
723.37	1.0425E00
723.68	1.0523E00
724.00	1.0522E00
724.32	1.0705E00
724.63	1.0677E00
724.95	1.0635E00
725.27	1.0736E00
725.58	1.0806E00
725.90	1.0803E00
726.22	1.0976E00
726.53	1.0755E00
726.85	1.0908E00
727.16	1.1129E00
727.48	1.0946E00
727.80	1.1062E00
728.11	1.1116E00
728.43	1.1081E00
728.74	1.1032E00
729.06	1.1243E00
729.38	1.1197E00
729.69	1.1249E00
730.01	1.1322E00
730.32	1.1407E00
730.64	1.1390E00
730.96	1.1285E00
731.27	1.1598E00
731.59	1.1319E00
731.90	1.1464E00
732.22	1.1556E00
732.53	1.1537E00
732.85	1.1674E00
733.16	1.1625E00
733.48	1.1715E00
733.80	1.1650E00
734.11	1.1867E00
734.43	1.1844E00
734.74	1.1831E00
735.06	1.1978E00
735.37	1.2089E00
735.69	1.1923E00
736.00	1.2066E00
736.32	1.2089E00
736.63	1.2167E00
736.95	1.2134E00
737.26	1.2366E00
737.58	1.2361E00
737.89	1.2446E00
738.21	1.2325E00
738.52	1.2397E00
738.83	1.2441E00
739.15	1.2433E00
739.46	1.2611E00
739.78	1.2562E00
740.09	1.2719E00
740.41	1.2649E00
740.72	1.2596E00
741.04	1.2611E00
741.35	1.2639E00
741.66	1.2850E00
741.98	1.2784E00
742.29	1.2857E00
742.61	1.2784E00
742.92	1.2834E00
743.23	1.2824E00
743.55	1.2917E00
743.86	1.2813E00
744.18	1.2898E00
744.49	1.2904E00
744.80	1.2894E00
745.12	1.2900E00
745.43	1.2942E00
745.74	1.2931E00
746.06	1.2849E00
746.37	1.2831E00
746.68	1.2943E00
747.00	1.2921E00
747.31	1.2814E00
747.62	1.2734E00
747.94	1.2944E00
748.25	1.2955E00
748.56	1.2974E00
748.88	1.2771E00
749.19	1.2883E00
749.50	1.2908E00
749.82	1.2833E00
750.13	1.2898E00
750.44	1.2918E00
750.75	1.2767E00
751.07	1.2943E00
751.38	1.3016E00
751.69	1.2765E00
752.01	1.2947E00
752.32	1.2931E00
752.63	1.2959E00
752.94	1.3024E00
753.26	1.3081E00
753.57	1.2944E00
753.88	1.3023E00
754.19	1.3033E00
754.51	1.3079E00
754.82	1.3036E00
755.13	1.3193E00
755.44	1.3177E00
755.75	1.3214E00
756.07	1.3215E00
756.38	1.3356E00
756.69	1.3324E00
757.00	1.3409E00
757.31	1.3573E00
757.63	1.3647E00
757.94	1.3672E00
758.25	1.3819E00
758.56	1.3477E00
758.87	1.3954E00
759.18	1.3973E00
759.50	1.3955E00
759.81	1.3886E00
760.12	1.3982E00
760.43	1.4090E00
760.74	1.4041E00
761.05	1.4328E00
761.36	1.4367E00
761.67	1.4467E00
761.99	1.4571E00
762.30	1.4360E00
762.61	1.4715E00
762.92	1.4674E00
763.23	1.4677E00
763.54	1.4826E00
763.85	1.5083E00
764.16	1.5109E00
764.47	1.5294E00
764.78	1.5398E00
765.10	1.5422E00
765.41	1.5444E00
765.72	1.5531E00
766.03	1.5879E00
766.34	1.5995E00
766.65	1.6104E00
766.96	1.6430E00
767.27	1.6318E00
767.58	1.6328E00
767.89	1.6500E00
768.20	1.6759E00
768.51	1.6758E00
768.82	1.6791E00
769.13	1.7136E00
769.44	1.7349E00
769.75	1.7327E00
770.06	1.7363E00
770.37	1.7344E00
770.68	1.7781E00
770.99	1.7897E00
771.30	1.8009E00
771.61	1.8529E00
771.92	1.8132E00
772.23	1.8380E00
772.54	1.8791E00
772.85	1.8589E00
773.16	1.8765E00
773.47	1.9341E00
773.78	1.9189E00
774.09	1.9516E00
774.39	1.9534E00
774.70	1.9592E00
775.01	1.9988E00
775.32	2.0089E00
775.63	2.0307E00
775.94	2.0520E00
776.25	2.0406E00
776.56	2.0594E00
776.87	2.1150E00
777.18	2.1078E00
777.48	2.1281E00
777.79	2.1482E00
778.10	2.1674E00
778.41	2.1848E00
778.72	2.2100E00
779.03	2.2202E00
779.34	2.2682E00
779.65	2.2672E00
779.95	2.3107E00
780.26	2.2911E00
780.57	2.3319E00
780.88	2.3251E00
781.19	2.3660E00
781.50	2.3694E00
781.80	2.3918E00
782.11	2.3960E00
782.42	2.4538E00
782.73	2.4059E00
783.04	2.5025E00
783.34	2.5002E00
783.65	2.5193E00
783.96	2.5270E00
784.27	2.5437E00
784.57	2.5653E00
784.88	2.5935E00
785.19	2.6064E00
785.50	2.6352E00
785.81	2.6685E00
786.11	2.6315E00
786.42	2.6642E00
786.73	2.6917E00
787.04	2.7224E00
787.34	2.7716E00
787.65	2.7840E00
787.96	2.8495E00
788.26	2.8250E00
788.57	2.8854E00
788.88	2.8528E00
789.19	2.9406E00
789.49	2.9136E00
789.80	2.9656E00
790.11	2.9716E00
790.41	3.0029E00
790.72	3.0345E00
791.03	3.0467E00
791.33	3.0778E00
791.64	3.1458E00
791.95	3.0902E00
792.25	3.1896E00
792.56	3.1595E00
792.87	3.2057E00
793.17	3.2272E00
793.48	3.2453E00
793.79	3.2741E00
794.09	3.3370E00
794.40	3.2895E00
794.70	3.3014E00
795.01	3.3130E00
795.32	3.3586E00
795.62	3.4256E00
795.93	3.4322E00
796.23	3.4428E00
796.54	3.4895E00
796.85	3.4722E00
797.15	3.5151E00
797.46	3.5450E00
797.76	3.6339E00
798.07	3.6203E00
798.37	3.6304E00
798.68	3.6855E00
798.99	3.6822E00
799.29	3.7243E00
799.60	3.7897E00
799.90	3.7830E00
800.21	3.8409E00
800.51	3.8727E00
800.82	3.8625E00
801.12	3.9352E00
801.43	3.9259E00
801.73	4.0067E00
802.04	4.0002E00
802.34	3.9926E00
802.65	4.0389E00
802.95	4.1766E00
803.26	4.1465E00
803.56	4.0729E00
803.87	4.1422E00
804.17	4.1717E00
804.48	4.1652E00
804.78	4.2425E00
805.09	4.3175E00
805.39	4.2888E00
805.70	4.3103E00
806.00	4.3785E00
806.30	4.3715E00
806.61	4.4359E00
806.91	4.4624E00
807.22	4.5060E00
807.52	4.5319E00
807.83	4.5488E00
808.13	4.6047E00
808.43	4.5122E00
808.74	4.6380E00
809.04	4.6774E00
809.35	4.6518E00
809.65	4.7667E00
809.95	4.7943E00
810.26	4.8458E00
810.56	4.8673E00
810.86	4.9313E00
811.17	4.9677E00
811.47	4.9594E00
811.77	4.9552E00
812.08	4.9604E00
812.38	5.1065E00
812.69	5.0019E00
812.99	5.1726E00
813.29	5.2013E00
813.59	5.2428E00
813.90	5.2638E00
814.20	5.2722E00
814.50	5.3525E00
814.81	5.3039E00
815.11	5.4456E00
815.41	5.5960E00
815.72	5.1641E00
816.02	4.7417E00
816.32	4.5047E00
816.62	4.2135E00
816.93	4.2555E00
817.23	4.3104E00
817.53	4.2542E00
817.84	4.2569E00
818.14	4.2000E00
818.44	4.2882E00
818.74	4.5312E00
819.04	4.4537E00
819.35	4.4303E00
819.65	4.5285E00
819.95	4.5701E00
820.25	4.7573E00
820.56	5.0440E00
820.86	5.2756E00
821.16	5.4739E00
821.46	5.4689E00
821.76	5.5114E00
822.07	5.4546E00
822.37	5.1210E00
822.67	4.9168E00
822.97	4.5043E00
823.27	4.1540E00
823.57	4.1437E00
823.88	4.2993E00
824.18	4.4690E00
824.48	4.6619E00
824.78	4.7650E00
825.08	5.0515E00
825.38	5.2085E00
825.69	5.1464E00
825.99	5.2927E00
826.29	5.3518E00
826.59	5.2695E00
826.89	5.4095E00
827.19	5.4516E00
827.49	5.3884E00
827.79	5.0401E00
828.09	4.7904E00
828.39	4.7914E00
828.70	4.7906E00
829.00	4.7295E00
829.30	4.6856E00
829.60	4.6840E00
829.90	4.6364E00
830.20	4.5099E00
830.50	4.5958E00
830.80	4.7006E00
831.10	4.5854E00
831.40	4.7406E00
831.70	4.6285E00
832.00	4.5974E00
832.30	4.5730E00
832.60	4.5839E00
832.90	4.5464E00
833.20	4.6213E00
833.50	4.5115E00
833.80	4.4795E00
834.10	4.5032E00
834.40	4.5741E00
834.70	4.6973E00
835.00	4.6164E00
835.30	4.7000E00
835.60	4.6979E00
835.90	4.7738E00
836.20	4.8655E00
836.50	4.8741E00
836.80	5.0782E00
837.10	5.3240E00
837.40	5.0435E00
837.70	5.0288E00
838.00	4.9198E00
838.30	4.9577E00
838.60	5.1387E00
838.90	5.0609E00
839.19	5.3048E00
839.49	5.1495E00
839.79	5.2402E00
840.09	5.1132E00
840.39	5.2007E00
840.69	5.2301E00
840.99	5.4337E00
841.29	5.4127E00
841.59	5.2294E00
841.88	5.1912E00
842.18	5.2969E00
842.48	5.3258E00
842.78	5.3292E00
843.08	5.3553E00
843.38	5.2546E00
843.68	5.4161E00
843.97	5.4790E00
844.27	5.3538E00
844.57	5.3537E00
844.87	5.4138E00
845.17	5.4136E00
845.47	5.2308E00
845.76	5.4017E00
846.06	5.5414E00
846.36	5.8824E00
846.66	5.5312E00
846.96	5.5309E00
847.25	5.3652E00
847.55	5.4101E00
847.85	5.5145E00
848.15	5.3580E00
848.44	5.4271E00
848.74	5.2833E00
849.04	5.3694E00
849.34	5.4519E00
849.63	5.4140E00
849.93	5.2393E00
850.23	5.2965E00
850.53	5.0242E00
850.82	5.1054E00
851.12	4.9881E00
851.42	5.0789E00
851.71	5.1188E00
852.01	5.1487E00
852.31	5.1755E00
852.61	5.1189E00
852.90	5.1416E00
853.20	5.2457E00
853.50	5.5122E00
853.79	5.4648E00
854.09	5.0462E00
854.39	4.9086E00
854.68	4.9513E00
854.98	4.7542E00
855.28	4.7292E00
855.57	4.8730E00
855.87	4.8412E00
856.17	4.9223E00
856.46	4.7507E00
856.76	4.8333E00
857.05	5.1099E00
857.35	5.0470E00
857.65	5.2664E00
857.94	5.2615E00
858.24	5.3294E00
858.53	5.2406E00
858.83	5.6120E00
859.13	5.3258E00
859.42	5.1878E00
859.72	5.3963E00
860.01	5.3959E00
860.31	5.2380E00
860.60	5.3226E00
860.90	5.5069E00
861.20	5.3197E00
861.49	5.1967E00
861.79	5.3498E00
862.08	6.2781E00
862.38	5.6045E00
862.67	5.3053E00
862.97	5.3275E00
863.26	5.2729E00
863.56	5.5598E00
863.85	5.6564E00
864.15	5.2139E00
864.44	5.4173E00
864.74	5.3342E00
865.03	5.5305E00
865.33	5.3783E00
865.62	5.3894E00
865.92	5.1793E00
866.21	5.4376E00
866.51	5.2612E00
866.80	5.3880E00
867.10	5.4019E00
867.39	4.9333E00
867.69	5.2423E00
867.98	4.7644E00
868.27	4.8376E00
868.57	4.8473E00
868.86	5.2791E00
869.16	5.0497E00
869.45	5.0133E00
869.75	4.8930E00
870.04	5.0618E00
870.33	5.3671E00
870.63	5.0195E00
870.92	5.3159E00
871.22	6.2151E00
871.51	5.0919E00
871.80	5.2606E00
872.10	5.2606E00
>>>>>End Processed Spectral Data<<<<<
